3998.31069,0.02244
3997.34631,0.02244
3996.38194,0.02244
3995.41756,0.02244
3994.45318,0.02244
3993.48880,0.02244
3992.52442,0.02244
3991.56005,0.02248
3990.59567,0.02250
3989.63129,0.02243
3988.66691,0.02233
3987.70253,0.02229
3986.73816,0.02229
3985.77378,0.02229
3984.80940,0.02231
3983.84502,0.02232
3982.88065,0.02228
3981.91627,0.02218
3980.95189,0.02208
3979.98751,0.02203
3979.02313,0.02198
3978.05876,0.02190
3977.09438,0.02184
3976.13000,0.02187
3975.16562,0.02196
3974.20124,0.02203
3973.23687,0.02203
3972.27249,0.02199
3971.30811,0.02200
3970.34373,0.02202
3969.37935,0.02200
3968.41498,0.02196
3967.45060,0.02189
3966.48622,0.02179
3965.52184,0.02175
3964.55747,0.02179
3963.59309,0.02186
3962.62871,0.02186
3961.66433,0.02185
3960.69995,0.02186
3959.73558,0.02192
3958.77120,0.02198
3957.80682,0.02198
3956.84244,0.02196
3955.87806,0.02193
3954.91369,0.02192
3953.94931,0.02194
3952.98493,0.02196
3952.02055,0.02198
3951.05618,0.02199
3950.09180,0.02199
3949.12742,0.02199
3948.16304,0.02200
3947.19866,0.02203
3946.23429,0.02206
3945.26991,0.02213
3944.30553,0.02223
3943.34115,0.02230
3942.37677,0.02233
3941.41240,0.02231
3940.44802,0.02228
3939.48364,0.02225
3938.51926,0.02221
3937.55488,0.02215
3936.59051,0.02204
3935.62613,0.02196
3934.66175,0.02193
3933.69737,0.02191
3932.73300,0.02189
3931.76862,0.02182
3930.80424,0.02172
3929.83986,0.02167
3928.87548,0.02173
3927.91111,0.02184
3926.94673,0.02196
3925.98235,0.02205
3925.01797,0.02212
3924.05359,0.02216
3923.08922,0.02218
3922.12484,0.02219
3921.16046,0.02212
3920.19608,0.02200
3919.23171,0.02188
3918.26733,0.02185
3917.30295,0.02187
3916.33857,0.02189
3915.37419,0.02190
3914.40982,0.02192
3913.44544,0.02188
3912.48106,0.02179
3911.51668,0.02169
3910.55230,0.02159
3909.58793,0.02150
3908.62355,0.02142
3907.65917,0.02139
3906.69479,0.02144
3905.73041,0.02151
3904.76604,0.02158
3903.80166,0.02167
3902.83728,0.02175
3901.87290,0.02180
3900.90853,0.02178
3899.94415,0.02177
3898.97977,0.02177
3898.01539,0.02177
3897.05101,0.02181
3896.08664,0.02189
3895.12226,0.02196
3894.15788,0.02199
3893.19350,0.02201
3892.22912,0.02203
3891.26475,0.02206
3890.30037,0.02205
3889.33599,0.02200
3888.37161,0.02197
3887.40724,0.02191
3886.44286,0.02186
3885.47848,0.02189
3884.51410,0.02192
3883.54972,0.02196
3882.58535,0.02202
3881.62097,0.02208
3880.65659,0.02212
3879.69221,0.02214
3878.72783,0.02211
3877.76346,0.02203
3876.79908,0.02194
3875.83470,0.02185
3874.87032,0.02184
3873.90594,0.02186
3872.94157,0.02187
3871.97719,0.02187
3871.01281,0.02183
3870.04843,0.02179
3869.08406,0.02174
3868.11968,0.02171
3867.15530,0.02175
3866.19092,0.02177
3865.22654,0.02178
3864.26217,0.02181
3863.29779,0.02184
3862.33341,0.02183
3861.36903,0.02178
3860.40465,0.02170
3859.44028,0.02164
3858.47590,0.02165
3857.51152,0.02165
3856.54714,0.02170
3855.58276,0.02179
3854.61839,0.02184
3853.65401,0.02185
3852.68963,0.02184
3851.72525,0.02179
3850.76088,0.02171
3849.79650,0.02166
3848.83212,0.02165
3847.86774,0.02162
3846.90336,0.02157
3845.93899,0.02154
3844.97461,0.02157
3844.01023,0.02161
3843.04585,0.02165
3842.08147,0.02168
3841.11710,0.02175
3840.15272,0.02187
3839.18834,0.02198
3838.22396,0.02204
3837.25959,0.02204
3836.29521,0.02199
3835.33083,0.02198
3834.36645,0.02201
3833.40207,0.02205
3832.43770,0.02206
3831.47332,0.02204
3830.50894,0.02204
3829.54456,0.02203
3828.58018,0.02198
3827.61581,0.02190
3826.65143,0.02184
3825.68705,0.02176
3824.72267,0.02170
3823.75829,0.02168
3822.79392,0.02166
3821.82954,0.02167
3820.86516,0.02174
3819.90078,0.02180
3818.93641,0.02185
3817.97203,0.02181
3817.00765,0.02179
3816.04327,0.02183
3815.07889,0.02184
3814.11452,0.02178
3813.15014,0.02165
3812.18576,0.02152
3811.22138,0.02141
3810.25700,0.02131
3809.29263,0.02126
3808.32825,0.02118
3807.36387,0.02116
3806.39949,0.02122
3805.43512,0.02133
3804.47074,0.02150
3803.50636,0.02168
3802.54198,0.02180
3801.57760,0.02183
3800.61323,0.02183
3799.64885,0.02183
3798.68447,0.02178
3797.72009,0.02171
3796.75571,0.02158
3795.79134,0.02144
3794.82696,0.02131
3793.86258,0.02120
3792.89820,0.02117
3791.93382,0.02119
3790.96945,0.02120
3790.00507,0.02120
3789.04069,0.02124
3788.07631,0.02133
3787.11194,0.02142
3786.14756,0.02148
3785.18318,0.02144
3784.21880,0.02137
3783.25442,0.02133
3782.29005,0.02127
3781.32567,0.02123
3780.36129,0.02121
3779.39691,0.02118
3778.43253,0.02114
3777.46816,0.02105
3776.50378,0.02096
3775.53940,0.02097
3774.57502,0.02101
3773.61065,0.02099
3772.64627,0.02092
3771.68189,0.02091
3770.71751,0.02095
3769.75313,0.02099
3768.78876,0.02100
3767.82438,0.02101
3766.86000,0.02106
3765.89562,0.02110
3764.93124,0.02119
3763.96687,0.02134
3763.00249,0.02142
3762.03811,0.02137
3761.07373,0.02130
3760.10935,0.02133
3759.14498,0.02140
3758.18060,0.02143
3757.21622,0.02142
3756.25184,0.02140
3755.28747,0.02139
3754.32309,0.02137
3753.35871,0.02135
3752.39433,0.02127
3751.42995,0.02110
3750.46558,0.02089
3749.50120,0.02079
3748.53682,0.02079
3747.57244,0.02080
3746.60806,0.02083
3745.64369,0.02084
3744.67931,0.02083
3743.71493,0.02081
3742.75055,0.02085
3741.78618,0.02091
3740.82180,0.02093
3739.85742,0.02092
3738.89304,0.02094
3737.92866,0.02104
3736.96429,0.02116
3735.99991,0.02126
3735.03553,0.02137
3734.07115,0.02146
3733.10677,0.02146
3732.14240,0.02137
3731.17802,0.02128
3730.21364,0.02117
3729.24926,0.02103
3728.28488,0.02088
3727.32051,0.02079
3726.35613,0.02084
3725.39175,0.02095
3724.42737,0.02108
3723.46300,0.02122
3722.49862,0.02133
3721.53424,0.02139
3720.56986,0.02142
3719.60548,0.02139
3718.64111,0.02128
3717.67673,0.02111
3716.71235,0.02093
3715.74797,0.02084
3714.78359,0.02080
3713.81922,0.02070
3712.85484,0.02058
3711.89046,0.02053
3710.92608,0.02055
3709.96171,0.02065
3708.99733,0.02077
3708.03295,0.02084
3707.06857,0.02092
3706.10419,0.02106
3705.13982,0.02115
3704.17544,0.02115
3703.21106,0.02115
3702.24668,0.02117
3701.28230,0.02122
3700.31793,0.02129
3699.35355,0.02131
3698.38917,0.02120
3697.42479,0.02100
3696.46041,0.02084
3695.49604,0.02078
3694.53166,0.02077
3693.56728,0.02077
3692.60290,0.02077
3691.63853,0.02081
3690.67415,0.02090
3689.70977,0.02100
3688.74539,0.02105
3687.78101,0.02105
3686.81664,0.02102
3685.85226,0.02104
3684.88788,0.02115
3683.92350,0.02125
3682.95912,0.02131
3681.99475,0.02138
3681.03037,0.02144
3680.06599,0.02150
3679.10161,0.02154
3678.13724,0.02155
3677.17286,0.02151
3676.20848,0.02151
3675.24410,0.02164
3674.27972,0.02180
3673.31535,0.02195
3672.35097,0.02203
3671.38659,0.02206
3670.42221,0.02216
3669.45783,0.02230
3668.49346,0.02242
3667.52908,0.02238
3666.56470,0.02222
3665.60032,0.02209
3664.63594,0.02204
3663.67157,0.02207
3662.70719,0.02211
3661.74281,0.02217
3660.77843,0.02228
3659.81406,0.02248
3658.84968,0.02279
3657.88530,0.02311
3656.92092,0.02330
3655.95654,0.02337
3654.99217,0.02343
3654.02779,0.02356
3653.06341,0.02370
3652.09903,0.02380
3651.13465,0.02385
3650.17028,0.02387
3649.20590,0.02394
3648.24152,0.02407
3647.27714,0.02419
3646.31276,0.02424
3645.34839,0.02423
3644.38401,0.02426
3643.41963,0.02438
3642.45525,0.02457
3641.49088,0.02478
3640.52650,0.02497
3639.56212,0.02517
3638.59774,0.02539
3637.63336,0.02554
3636.66899,0.02557
3635.70461,0.02554
3634.74023,0.02555
3633.77585,0.02563
3632.81147,0.02580
3631.84710,0.02598
3630.88272,0.02612
3629.91834,0.02627
3628.95396,0.02640
3627.98959,0.02653
3627.02521,0.02659
3626.06083,0.02656
3625.09645,0.02651
3624.13207,0.02651
3623.16770,0.02657
3622.20332,0.02665
3621.23894,0.02674
3620.27456,0.02677
3619.31018,0.02684
3618.34581,0.02693
3617.38143,0.02697
3616.41705,0.02702
3615.45267,0.02707
3614.48829,0.02711
3613.52392,0.02714
3612.55954,0.02718
3611.59516,0.02721
3610.63078,0.02721
3609.66641,0.02717
3608.70203,0.02713
3607.73765,0.02718
3606.77327,0.02724
3605.80889,0.02730
3604.84452,0.02743
3603.88014,0.02752
3602.91576,0.02758
3601.95138,0.02767
3600.98700,0.02779
3600.02263,0.02787
3599.05825,0.02786
3598.09387,0.02780
3597.12949,0.02774
3596.16512,0.02767
3595.20074,0.02760
3594.23636,0.02757
3593.27198,0.02756
3592.30760,0.02754
3591.34323,0.02759
3590.37885,0.02773
3589.41447,0.02787
3588.45009,0.02796
3587.48571,0.02801
3586.52134,0.02805
3585.55696,0.02807
3584.59258,0.02805
3583.62820,0.02800
3582.66382,0.02795
3581.69945,0.02793
3580.73507,0.02794
3579.77069,0.02797
3578.80631,0.02803
3577.84194,0.02804
3576.87756,0.02800
3575.91318,0.02796
3574.94880,0.02795
3573.98442,0.02795
3573.02005,0.02795
3572.05567,0.02794
3571.09129,0.02795
3570.12691,0.02804
3569.16253,0.02817
3568.19816,0.02829
3567.23378,0.02845
3566.26940,0.02859
3565.30502,0.02868
3564.34065,0.02879
3563.37627,0.02886
3562.41189,0.02886
3561.44751,0.02876
3560.48313,0.02859
3559.51876,0.02843
3558.55438,0.02830
3557.59000,0.02821
3556.62562,0.02817
3555.66124,0.02818
3554.69687,0.02816
3553.73249,0.02818
3552.76811,0.02830
3551.80373,0.02843
3550.83935,0.02853
3549.87498,0.02853
3548.91060,0.02853
3547.94622,0.02860
3546.98184,0.02864
3546.01747,0.02866
3545.05309,0.02867
3544.08871,0.02862
3543.12433,0.02857
3542.15995,0.02862
3541.19558,0.02878
3540.23120,0.02897
3539.26682,0.02913
3538.30244,0.02927
3537.33806,0.02949
3536.37369,0.02971
3535.40931,0.02980
3534.44493,0.02983
3533.48055,0.02982
3532.51618,0.02980
3531.55180,0.02980
3530.58742,0.02978
3529.62304,0.02976
3528.65866,0.02975
3527.69429,0.02977
3526.72991,0.02983
3525.76553,0.02992
3524.80115,0.02996
3523.83677,0.02996
3522.87240,0.02998
3521.90802,0.03006
3520.94364,0.03019
3519.97926,0.03031
3519.01488,0.03040
3518.05051,0.03048
3517.08613,0.03051
3516.12175,0.03056
3515.15737,0.03058
3514.19300,0.03058
3513.22862,0.03055
3512.26424,0.03050
3511.29986,0.03047
3510.33548,0.03045
3509.37111,0.03045
3508.40673,0.03051
3507.44235,0.03059
3506.47797,0.03067
3505.51359,0.03076
3504.54922,0.03088
3503.58484,0.03101
3502.62046,0.03112
3501.65608,0.03116
3500.69171,0.03116
3499.72733,0.03115
3498.76295,0.03114
3497.79857,0.03114
3496.83419,0.03119
3495.86982,0.03125
3494.90544,0.03134
3493.94106,0.03142
3492.97668,0.03147
3492.01230,0.03150
3491.04793,0.03147
3490.08355,0.03140
3489.11917,0.03139
3488.15479,0.03141
3487.19041,0.03147
3486.22604,0.03155
3485.26166,0.03164
3484.29728,0.03174
3483.33290,0.03182
3482.36853,0.03185
3481.40415,0.03186
3480.43977,0.03191
3479.47539,0.03194
3478.51101,0.03193
3477.54664,0.03194
3476.58226,0.03195
3475.61788,0.03200
3474.65350,0.03210
3473.68912,0.03219
3472.72475,0.03226
3471.76037,0.03231
3470.79599,0.03239
3469.83161,0.03250
3468.86724,0.03261
3467.90286,0.03270
3466.93848,0.03273
3465.97410,0.03277
3465.00972,0.03278
3464.04535,0.03283
3463.08097,0.03293
3462.11659,0.03299
3461.15221,0.03301
3460.18783,0.03305
3459.22346,0.03308
3458.25908,0.03303
3457.29470,0.03293
3456.33032,0.03284
3455.36594,0.03278
3454.40157,0.03272
3453.43719,0.03267
3452.47281,0.03269
3451.50843,0.03274
3450.54406,0.03281
3449.57968,0.03293
3448.61530,0.03306
3447.65092,0.03311
3446.68654,0.03313
3445.72217,0.03315
3444.75779,0.03322
3443.79341,0.03330
3442.82903,0.03336
3441.86465,0.03342
3440.90028,0.03349
3439.93590,0.03351
3438.97152,0.03350
3438.00714,0.03344
3437.04276,0.03335
3436.07839,0.03328
3435.11401,0.03322
3434.14963,0.03315
3433.18525,0.03310
3432.22088,0.03304
3431.25650,0.03295
3430.29212,0.03292
3429.32774,0.03296
3428.36336,0.03301
3427.39899,0.03308
3426.43461,0.03313
3425.47023,0.03325
3424.50585,0.03341
3423.54147,0.03349
3422.57710,0.03351
3421.61272,0.03347
3420.64834,0.03339
3419.68396,0.03326
3418.71959,0.03317
3417.75521,0.03316
3416.79083,0.03319
3415.82645,0.03324
3414.86207,0.03325
3413.89770,0.03332
3412.93332,0.03339
3411.96894,0.03342
3411.00456,0.03342
3410.04018,0.03337
3409.07581,0.03334
3408.11143,0.03331
3407.14705,0.03333
3406.18267,0.03336
3405.21829,0.03338
3404.25392,0.03340
3403.28954,0.03345
3402.32516,0.03349
3401.36078,0.03350
3400.39641,0.03348
3399.43203,0.03346
3398.46765,0.03343
3397.50327,0.03338
3396.53889,0.03333
3395.57452,0.03326
3394.61014,0.03318
3393.64576,0.03317
3392.68138,0.03327
3391.71700,0.03339
3390.75263,0.03351
3389.78825,0.03359
3388.82387,0.03366
3387.85949,0.03370
3386.89512,0.03369
3385.93074,0.03361
3384.96636,0.03347
3384.00198,0.03331
3383.03760,0.03323
3382.07323,0.03326
3381.10885,0.03332
3380.14447,0.03338
3379.18009,0.03347
3378.21571,0.03355
3377.25134,0.03362
3376.28696,0.03368
3375.32258,0.03371
3374.35820,0.03367
3373.39382,0.03360
3372.42945,0.03356
3371.46507,0.03354
3370.50069,0.03352
3369.53631,0.03345
3368.57194,0.03342
3367.60756,0.03339
3366.64318,0.03336
3365.67880,0.03333
3364.71442,0.03329
3363.75005,0.03326
3362.78567,0.03322
3361.82129,0.03322
3360.85691,0.03326
3359.89253,0.03328
3358.92816,0.03328
3357.96378,0.03327
3356.99940,0.03328
3356.03502,0.03325
3355.07065,0.03317
3354.10627,0.03308
3353.14189,0.03299
3352.17751,0.03292
3351.21313,0.03286
3350.24876,0.03286
3349.28438,0.03296
3348.32000,0.03306
3347.35562,0.03312
3346.39124,0.03319
3345.42687,0.03326
3344.46249,0.03332
3343.49811,0.03330
3342.53373,0.03318
3341.56935,0.03304
3340.60498,0.03295
3339.64060,0.03284
3338.67622,0.03271
3337.71184,0.03262
3336.74747,0.03254
3335.78309,0.03243
3334.81871,0.03235
3333.85433,0.03234
3332.88995,0.03235
3331.92558,0.03232
3330.96120,0.03228
3329.99682,0.03230
3329.03244,0.03241
3328.06806,0.03248
3327.10369,0.03249
3326.13931,0.03253
3325.17493,0.03254
3324.21055,0.03250
3323.24618,0.03246
3322.28180,0.03242
3321.31742,0.03234
3320.35304,0.03222
3319.38866,0.03214
3318.42429,0.03214
3317.45991,0.03217
3316.49553,0.03218
3315.53115,0.03217
3314.56677,0.03215
3313.60240,0.03213
3312.63802,0.03215
3311.67364,0.03219
3310.70926,0.03218
3309.74488,0.03212
3308.78051,0.03211
3307.81613,0.03218
3306.85175,0.03227
3305.88737,0.03232
3304.92300,0.03231
3303.95862,0.03225
3302.99424,0.03216
3302.02986,0.03208
3301.06548,0.03201
3300.10111,0.03194
3299.13673,0.03184
3298.17235,0.03174
3297.20797,0.03166
3296.24359,0.03163
3295.27922,0.03167
3294.31484,0.03174
3293.35046,0.03175
3292.38608,0.03173
3291.42171,0.03172
3290.45733,0.03172
3289.49295,0.03175
3288.52857,0.03183
3287.56419,0.03189
3286.59982,0.03187
3285.63544,0.03185
3284.67106,0.03187
3283.70668,0.03190
3282.74230,0.03192
3281.77793,0.03189
3280.81355,0.03183
3279.84917,0.03178
3278.88479,0.03174
3277.92041,0.03166
3276.95604,0.03157
3275.99166,0.03144
3275.02728,0.03128
3274.06290,0.03116
3273.09853,0.03109
3272.13415,0.03108
3271.16977,0.03111
3270.20539,0.03122
3269.24101,0.03138
3268.27664,0.03156
3267.31226,0.03172
3266.34788,0.03182
3265.38350,0.03185
3264.41912,0.03180
3263.45475,0.03170
3262.49037,0.03161
3261.52599,0.03151
3260.56161,0.03140
3259.59724,0.03127
3258.63286,0.03117
3257.66848,0.03115
3256.70410,0.03109
3255.73972,0.03104
3254.77535,0.03103
3253.81097,0.03104
3252.84659,0.03107
3251.88221,0.03113
3250.91783,0.03124
3249.95346,0.03133
3248.98908,0.03140
3248.02470,0.03143
3247.06032,0.03144
3246.09594,0.03141
3245.13157,0.03126
3244.16719,0.03106
3243.20281,0.03087
3242.23843,0.03068
3241.27406,0.03057
3240.30968,0.03054
3239.34530,0.03054
3238.38092,0.03054
3237.41654,0.03056
3236.45217,0.03062
3235.48779,0.03070
3234.52341,0.03074
3233.55903,0.03075
3232.59465,0.03075
3231.63028,0.03073
3230.66590,0.03073
3229.70152,0.03079
3228.73714,0.03087
3227.77276,0.03087
3226.80839,0.03079
3225.84401,0.03071
3224.87963,0.03065
3223.91525,0.03059
3222.95088,0.03051
3221.98650,0.03041
3221.02212,0.03035
3220.05774,0.03033
3219.09336,0.03033
3218.12899,0.03037
3217.16461,0.03040
3216.20023,0.03037
3215.23585,0.03028
3214.27147,0.03019
3213.30710,0.03018
3212.34272,0.03021
3211.37834,0.03019
3210.41396,0.03011
3209.44959,0.03008
3208.48521,0.03010
3207.52083,0.03012
3206.55645,0.03016
3205.59207,0.03017
3204.62770,0.03015
3203.66332,0.03014
3202.69894,0.03014
3201.73456,0.03019
3200.77018,0.03021
3199.80581,0.03018
3198.84143,0.03010
3197.87705,0.02999
3196.91267,0.02988
3195.94829,0.02977
3194.98392,0.02969
3194.01954,0.02965
3193.05516,0.02965
3192.09078,0.02968
3191.12641,0.02971
3190.16203,0.02975
3189.19765,0.02980
3188.23327,0.02988
3187.26889,0.02990
3186.30452,0.02984
3185.34014,0.02976
3184.37576,0.02969
3183.41138,0.02966
3182.44700,0.02967
3181.48263,0.02969
3180.51825,0.02968
3179.55387,0.02962
3178.58949,0.02956
3177.62512,0.02952
3176.66074,0.02948
3175.69636,0.02940
3174.73198,0.02933
3173.76760,0.02923
3172.80323,0.02913
3171.83885,0.02912
3170.87447,0.02913
3169.91009,0.02915
3168.94571,0.02913
3167.98134,0.02907
3167.01696,0.02903
3166.05258,0.02898
3165.08820,0.02892
3164.12382,0.02885
3163.15945,0.02879
3162.19507,0.02868
3161.23069,0.02859
3160.26631,0.02861
3159.30194,0.02868
3158.33756,0.02876
3157.37318,0.02881
3156.40880,0.02883
3155.44442,0.02884
3154.48005,0.02881
3153.51567,0.02875
3152.55129,0.02869
3151.58691,0.02863
3150.62253,0.02860
3149.65816,0.02859
3148.69378,0.02862
3147.72940,0.02867
3146.76502,0.02869
3145.80065,0.02866
3144.83627,0.02860
3143.87189,0.02855
3142.90751,0.02849
3141.94313,0.02841
3140.97876,0.02833
3140.01438,0.02829
3139.05000,0.02827
3138.08562,0.02822
3137.12124,0.02817
3136.15687,0.02813
3135.19249,0.02808
3134.22811,0.02803
3133.26373,0.02802
3132.29935,0.02806
3131.33498,0.02809
3130.37060,0.02807
3129.40622,0.02803
3128.44184,0.02797
3127.47747,0.02793
3126.51309,0.02791
3125.54871,0.02789
3124.58433,0.02784
3123.61995,0.02781
3122.65558,0.02780
3121.69120,0.02783
3120.72682,0.02786
3119.76244,0.02781
3118.79806,0.02772
3117.83369,0.02762
3116.86931,0.02754
3115.90493,0.02754
3114.94055,0.02757
3113.97618,0.02752
3113.01180,0.02743
3112.04742,0.02738
3111.08304,0.02740
3110.11866,0.02747
3109.15429,0.02752
3108.18991,0.02750
3107.22553,0.02746
3106.26115,0.02746
3105.29677,0.02745
3104.33240,0.02744
3103.36802,0.02739
3102.40364,0.02726
3101.43926,0.02711
3100.47488,0.02704
3099.51051,0.02704
3098.54613,0.02709
3097.58175,0.02713
3096.61737,0.02715
3095.65300,0.02717
3094.68862,0.02720
3093.72424,0.02721
3092.75986,0.02719
3091.79548,0.02718
3090.83111,0.02715
3089.86673,0.02711
3088.90235,0.02709
3087.93797,0.02706
3086.97359,0.02701
3086.00922,0.02698
3085.04484,0.02694
3084.08046,0.02685
3083.11608,0.02677
3082.15171,0.02676
3081.18733,0.02679
3080.22295,0.02681
3079.25857,0.02685
3078.29419,0.02686
3077.32982,0.02680
3076.36544,0.02669
3075.40106,0.02657
3074.43668,0.02650
3073.47230,0.02645
3072.50793,0.02641
3071.54355,0.02640
3070.57917,0.02641
3069.61479,0.02640
3068.65041,0.02638
3067.68604,0.02639
3066.72166,0.02642
3065.75728,0.02640
3064.79290,0.02637
3063.82853,0.02635
3062.86415,0.02636
3061.89977,0.02639
3060.93539,0.02639
3059.97101,0.02633
3059.00664,0.02620
3058.04226,0.02608
3057.07788,0.02602
3056.11350,0.02601
3055.14912,0.02601
3054.18475,0.02600
3053.22037,0.02596
3052.25599,0.02591
3051.29161,0.02588
3050.32724,0.02585
3049.36286,0.02584
3048.39848,0.02585
3047.43410,0.02585
3046.46972,0.02587
3045.50535,0.02590
3044.54097,0.02591
3043.57659,0.02591
3042.61221,0.02593
3041.64783,0.02593
3040.68346,0.02589
3039.71908,0.02584
3038.75470,0.02580
3037.79032,0.02577
3036.82594,0.02571
3035.86157,0.02562
3034.89719,0.02552
3033.93281,0.02544
3032.96843,0.02538
3032.00406,0.02534
3031.03968,0.02535
3030.07530,0.02537
3029.11092,0.02533
3028.14654,0.02531
3027.18217,0.02531
3026.21779,0.02532
3025.25341,0.02531
3024.28903,0.02532
3023.32465,0.02535
3022.36028,0.02538
3021.39590,0.02540
3020.43152,0.02540
3019.46714,0.02539
3018.50276,0.02534
3017.53839,0.02522
3016.57401,0.02510
3015.60963,0.02495
3014.64525,0.02481
3013.68088,0.02476
3012.71650,0.02474
3011.75212,0.02476
3010.78774,0.02480
3009.82336,0.02485
3008.85899,0.02492
3007.89461,0.02499
3006.93023,0.02503
3005.96585,0.02501
3005.00147,0.02498
3004.03710,0.02491
3003.07272,0.02486
3002.10834,0.02485
3001.14396,0.02481
3000.17959,0.02475
2999.21521,0.02470
2998.25083,0.02468
2997.28645,0.02469
2996.32207,0.02469
2995.35770,0.02469
2994.39332,0.02468
2993.42894,0.02468
2992.46456,0.02466
2991.50018,0.02459
2990.53581,0.02450
2989.57143,0.02438
2988.60705,0.02429
2987.64267,0.02425
2986.67829,0.02422
2985.71392,0.02421
2984.74954,0.02420
2983.78516,0.02419
2982.82078,0.02415
2981.85641,0.02411
2980.89203,0.02409
2979.92765,0.02409
2978.96327,0.02412
2977.99889,0.02419
2977.03452,0.02430
2976.07014,0.02440
2975.10576,0.02445
2974.14138,0.02449
2973.17700,0.02449
2972.21263,0.02445
2971.24825,0.02440
2970.28387,0.02434
2969.31949,0.02428
2968.35512,0.02421
2967.39074,0.02414
2966.42636,0.02408
2965.46198,0.02403
2964.49760,0.02398
2963.53323,0.02390
2962.56885,0.02384
2961.60447,0.02383
2960.64009,0.02383
2959.67571,0.02384
2958.71134,0.02385
2957.74696,0.02386
2956.78258,0.02389
2955.81820,0.02397
2954.85382,0.02407
2953.88945,0.02415
2952.92507,0.02419
2951.96069,0.02423
2950.99631,0.02429
2950.03194,0.02432
2949.06756,0.02428
2948.10318,0.02420
2947.13880,0.02409
2946.17442,0.02400
2945.21005,0.02394
2944.24567,0.02391
2943.28129,0.02387
2942.31691,0.02383
2941.35253,0.02383
2940.38816,0.02387
2939.42378,0.02394
2938.45940,0.02398
2937.49502,0.02401
2936.53065,0.02405
2935.56627,0.02409
2934.60189,0.02414
2933.63751,0.02419
2932.67313,0.02423
2931.70876,0.02428
2930.74438,0.02431
2929.78000,0.02433
2928.81562,0.02435
2927.85124,0.02441
2926.88687,0.02445
2925.92249,0.02447
2924.95811,0.02449
2923.99373,0.02449
2923.02935,0.02449
2922.06498,0.02448
2921.10060,0.02446
2920.13622,0.02440
2919.17184,0.02430
2918.20747,0.02420
2917.24309,0.02415
2916.27871,0.02413
2915.31433,0.02409
2914.34995,0.02401
2913.38558,0.02395
2912.42120,0.02389
2911.45682,0.02383
2910.49244,0.02377
2909.52806,0.02368
2908.56369,0.02358
2907.59931,0.02352
2906.63493,0.02347
2905.67055,0.02345
2904.70618,0.02345
2903.74180,0.02345
2902.77742,0.02346
2901.81304,0.02346
2900.84866,0.02344
2899.88429,0.02340
2898.91991,0.02335
2897.95553,0.02333
2896.99115,0.02336
2896.02677,0.02341
2895.06240,0.02347
2894.09802,0.02353
2893.13364,0.02359
2892.16926,0.02364
2891.20488,0.02367
2890.24051,0.02369
2889.27613,0.02368
2888.31175,0.02361
2887.34737,0.02353
2886.38300,0.02348
2885.41862,0.02341
2884.45424,0.02334
2883.48986,0.02329
2882.52548,0.02326
2881.56111,0.02323
2880.59673,0.02322
2879.63235,0.02322
2878.66797,0.02323
2877.70359,0.02322
2876.73922,0.02323
2875.77484,0.02324
2874.81046,0.02322
2873.84608,0.02320
2872.88171,0.02319
2871.91733,0.02319
2870.95295,0.02318
2869.98857,0.02321
2869.02419,0.02324
2868.05982,0.02324
2867.09544,0.02323
2866.13106,0.02326
2865.16668,0.02330
2864.20230,0.02332
2863.23793,0.02333
2862.27355,0.02337
2861.30917,0.02342
2860.34479,0.02346
2859.38041,0.02350
2858.41604,0.02353
2857.45166,0.02352
2856.48728,0.02347
2855.52290,0.02344
2854.55853,0.02344
2853.59415,0.02343
2852.62977,0.02340
2851.66539,0.02338
2850.70101,0.02335
2849.73664,0.02333
2848.77226,0.02328
2847.80788,0.02320
2846.84350,0.02309
2845.87912,0.02300
2844.91475,0.02296
2843.95037,0.02297
2842.98599,0.02299
2842.02161,0.02302
2841.05724,0.02304
2840.09286,0.02306
2839.12848,0.02307
2838.16410,0.02305
2837.19972,0.02302
2836.23535,0.02298
2835.27097,0.02294
2834.30659,0.02293
2833.34221,0.02291
2832.37783,0.02288
2831.41346,0.02283
2830.44908,0.02279
2829.48470,0.02276
2828.52032,0.02272
2827.55594,0.02268
2826.59157,0.02269
2825.62719,0.02274
2824.66281,0.02278
2823.69843,0.02282
2822.73406,0.02285
2821.76968,0.02285
2820.80530,0.02284
2819.84092,0.02281
2818.87654,0.02278
2817.91217,0.02273
2816.94779,0.02268
2815.98341,0.02267
2815.01903,0.02269
2814.05465,0.02271
2813.09028,0.02274
2812.12590,0.02276
2811.16152,0.02278
2810.19714,0.02278
2809.23276,0.02278
2808.26839,0.02279
2807.30401,0.02277
2806.33963,0.02274
2805.37525,0.02270
2804.41088,0.02267
2803.44650,0.02267
2802.48212,0.02270
2801.51774,0.02274
2800.55336,0.02275
2799.58899,0.02274
2798.62461,0.02273
2797.66023,0.02273
2796.69585,0.02274
2795.73147,0.02272
2794.76710,0.02265
2793.80272,0.02257
2792.83834,0.02251
2791.87396,0.02249
2790.90959,0.02248
2789.94521,0.02245
2788.98083,0.02238
2788.01645,0.02232
2787.05207,0.02227
2786.08770,0.02225
2785.12332,0.02225
2784.15894,0.02225
2783.19456,0.02223
2782.23018,0.02221
2781.26581,0.02222
2780.30143,0.02225
2779.33705,0.02228
2778.37267,0.02227
2777.40829,0.02226
2776.44392,0.02228
2775.47954,0.02230
2774.51516,0.02234
2773.55078,0.02238
2772.58641,0.02238
2771.62203,0.02236
2770.65765,0.02236
2769.69327,0.02235
2768.72889,0.02233
2767.76452,0.02230
2766.80014,0.02227
2765.83576,0.02226
2764.87138,0.02224
2763.90700,0.02222
2762.94263,0.02219
2761.97825,0.02218
2761.01387,0.02215
2760.04949,0.02212
2759.08512,0.02210
2758.12074,0.02210
2757.15636,0.02210
2756.19198,0.02211
2755.22760,0.02212
2754.26323,0.02212
2753.29885,0.02210
2752.33447,0.02207
2751.37009,0.02204
2750.40571,0.02203
2749.44134,0.02202
2748.47696,0.02198
2747.51258,0.02197
2746.54820,0.02196
2745.58382,0.02196
2744.61945,0.02196
2743.65507,0.02197
2742.69069,0.02199
2741.72631,0.02202
2740.76194,0.02204
2739.79756,0.02203
2738.83318,0.02201
2737.86880,0.02197
2736.90442,0.02191
2735.94005,0.02186
2734.97567,0.02181
2734.01129,0.02177
2733.04691,0.02177
2732.08253,0.02178
2731.11816,0.02180
2730.15378,0.02183
2729.18940,0.02184
2728.22502,0.02182
2727.26065,0.02179
2726.29627,0.02177
2725.33189,0.02173
2724.36751,0.02170
2723.40313,0.02168
2722.43876,0.02169
2721.47438,0.02172
2720.51000,0.02175
2719.54562,0.02174
2718.58124,0.02174
2717.61687,0.02172
2716.65249,0.02169
2715.68811,0.02165
2714.72373,0.02163
2713.75935,0.02159
2712.79498,0.02154
2711.83060,0.02151
2710.86622,0.02149
2709.90184,0.02149
2708.93747,0.02148
2707.97309,0.02147
2707.00871,0.02148
2706.04433,0.02148
2705.07995,0.02147
2704.11558,0.02147
2703.15120,0.02148
2702.18682,0.02145
2701.22244,0.02140
2700.25806,0.02137
2699.29369,0.02135
2698.32931,0.02131
2697.36493,0.02129
2696.40055,0.02129
2695.43618,0.02129
2694.47180,0.02129
2693.50742,0.02131
2692.54304,0.02132
2691.57866,0.02130
2690.61429,0.02127
2689.64991,0.02124
2688.68553,0.02125
2687.72115,0.02125
2686.75677,0.02125
2685.79240,0.02126
2684.82802,0.02126
2683.86364,0.02126
2682.89926,0.02126
2681.93488,0.02126
2680.97051,0.02122
2680.00613,0.02119
2679.04175,0.02116
2678.07737,0.02114
2677.11300,0.02114
2676.14862,0.02114
2675.18424,0.02115
2674.21986,0.02117
2673.25548,0.02118
2672.29111,0.02116
2671.32673,0.02113
2670.36235,0.02108
2669.39797,0.02103
2668.43359,0.02098
2667.46922,0.02092
2666.50484,0.02088
2665.54046,0.02086
2664.57608,0.02083
2663.61171,0.02082
2662.64733,0.02082
2661.68295,0.02082
2660.71857,0.02083
2659.75419,0.02084
2658.78982,0.02085
2657.82544,0.02085
2656.86106,0.02082
2655.89668,0.02078
2654.93230,0.02076
2653.96793,0.02074
2653.00355,0.02071
2652.03917,0.02067
2651.07479,0.02063
2650.11041,0.02060
2649.14604,0.02057
2648.18166,0.02053
2647.21728,0.02049
2646.25290,0.02045
2645.28853,0.02043
2644.32415,0.02044
2643.35977,0.02047
2642.39539,0.02052
2641.43101,0.02056
2640.46664,0.02059
2639.50226,0.02062
2638.53788,0.02061
2637.57350,0.02055
2636.60912,0.02045
2635.64475,0.02035
2634.68037,0.02025
2633.71599,0.02016
2632.75161,0.02009
2631.78724,0.02003
2630.82286,0.02001
2629.85848,0.02000
2628.89410,0.02000
2627.92972,0.01999
2626.96535,0.01999
2626.00097,0.02001
2625.03659,0.02003
2624.07221,0.02006
2623.10783,0.02005
2622.14346,0.02001
2621.17908,0.02001
2620.21470,0.02001
2619.25032,0.01999
2618.28594,0.01990
2617.32157,0.01979
2616.35719,0.01971
2615.39281,0.01968
2614.42843,0.01970
2613.46406,0.01971
2612.49968,0.01972
2611.53530,0.01970
2610.57092,0.01967
2609.60654,0.01972
2608.64217,0.01978
2607.67779,0.01981
2606.71341,0.01979
2605.74903,0.01977
2604.78465,0.01977
2603.82028,0.01976
2602.85590,0.01973
2601.89152,0.01966
2600.92714,0.01965
2599.96276,0.01960
2598.99839,0.01952
2598.03401,0.01951
2597.06963,0.01952
2596.10525,0.01952
2595.14088,0.01950
2594.17650,0.01948
2593.21212,0.01946
2592.24774,0.01941
2591.28336,0.01934
2590.31899,0.01926
2589.35461,0.01922
2588.39023,0.01918
2587.42585,0.01913
2586.46147,0.01914
2585.49710,0.01920
2584.53272,0.01926
2583.56834,0.01929
2582.60396,0.01931
2581.63959,0.01929
2580.67521,0.01922
2579.71083,0.01914
2578.74645,0.01907
2577.78207,0.01902
2576.81770,0.01895
2575.85332,0.01891
2574.88894,0.01891
2573.92456,0.01897
2572.96018,0.01902
2571.99581,0.01903
2571.03143,0.01904
2570.06705,0.01906
2569.10267,0.01906
2568.13829,0.01911
2567.17392,0.01915
2566.20954,0.01911
2565.24516,0.01906
2564.28078,0.01905
2563.31641,0.01904
2562.35203,0.01903
2561.38765,0.01902
2560.42327,0.01899
2559.45889,0.01894
2558.49452,0.01888
2557.53014,0.01880
2556.56576,0.01875
2555.60138,0.01873
2554.63700,0.01870
2553.67263,0.01869
2552.70825,0.01869
2551.74387,0.01871
2550.77949,0.01878
2549.81512,0.01887
2548.85074,0.01891
2547.88636,0.01891
2546.92198,0.01889
2545.95760,0.01881
2544.99323,0.01872
2544.02885,0.01869
2543.06447,0.01869
2542.10009,0.01869
2541.13571,0.01868
2540.17134,0.01867
2539.20696,0.01873
2538.24258,0.01878
2537.27820,0.01881
2536.31382,0.01884
2535.34945,0.01887
2534.38507,0.01884
2533.42069,0.01878
2532.45631,0.01878
2531.49194,0.01881
2530.52756,0.01881
2529.56318,0.01877
2528.59880,0.01871
2527.63442,0.01867
2526.67005,0.01863
2525.70567,0.01859
2524.74129,0.01858
2523.77691,0.01858
2522.81253,0.01852
2521.84816,0.01843
2520.88378,0.01838
2519.91940,0.01835
2518.95502,0.01833
2517.99065,0.01832
2517.02627,0.01828
2516.06189,0.01825
2515.09751,0.01825
2514.13313,0.01828
2513.16876,0.01833
2512.20438,0.01836
2511.24000,0.01833
2510.27562,0.01829
2509.31124,0.01830
2508.34687,0.01832
2507.38249,0.01831
2506.41811,0.01829
2505.45373,0.01827
2504.48935,0.01826
2503.52498,0.01823
2502.56060,0.01818
2501.59622,0.01815
2500.63184,0.01813
2499.66747,0.01810
2498.70309,0.01810
2497.73871,0.01813
2496.77433,0.01816
2495.80995,0.01823
2494.84558,0.01832
2493.88120,0.01839
2492.91682,0.01839
2491.95244,0.01831
2490.98806,0.01823
2490.02369,0.01819
2489.05931,0.01814
2488.09493,0.01814
2487.13055,0.01815
2486.16618,0.01818
2485.20180,0.01824
2484.23742,0.01831
2483.27304,0.01831
2482.30866,0.01826
2481.34429,0.01819
2480.37991,0.01811
2479.41553,0.01805
2478.45115,0.01799
2477.48677,0.01797
2476.52240,0.01800
2475.55802,0.01803
2474.59364,0.01806
2473.62926,0.01808
2472.66488,0.01807
2471.70051,0.01803
2470.73613,0.01798
2469.77175,0.01799
2468.80737,0.01802
2467.84300,0.01801
2466.87862,0.01799
2465.91424,0.01794
2464.94986,0.01790
2463.98548,0.01784
2463.02111,0.01776
2462.05673,0.01769
2461.09235,0.01764
2460.12797,0.01763
2459.16359,0.01765
2458.19922,0.01774
2457.23484,0.01787
2456.27046,0.01798
2455.30608,0.01807
2454.34171,0.01813
2453.37733,0.01815
2452.41295,0.01809
2451.44857,0.01798
2450.48419,0.01784
2449.51982,0.01771
2448.55544,0.01762
2447.59106,0.01759
2446.62668,0.01761
2445.66230,0.01765
2444.69793,0.01765
2443.73355,0.01764
2442.76917,0.01764
2441.80479,0.01758
2440.84041,0.01749
2439.87604,0.01749
2438.91166,0.01755
2437.94728,0.01762
2436.98290,0.01772
2436.01853,0.01780
2435.05415,0.01787
2434.08977,0.01787
2433.12539,0.01780
2432.16101,0.01769
2431.19664,0.01758
2430.23226,0.01748
2429.26788,0.01741
2428.30350,0.01745
2427.33912,0.01750
2426.37475,0.01752
2425.41037,0.01749
2424.44599,0.01741
2423.48161,0.01739
2422.51724,0.01742
2421.55286,0.01739
2420.58848,0.01738
2419.62410,0.01742
2418.65972,0.01745
2417.69535,0.01744
2416.73097,0.01742
2415.76659,0.01742
2414.80221,0.01741
2413.83783,0.01738
2412.87346,0.01735
2411.90908,0.01739
2410.94470,0.01744
2409.98032,0.01750
2409.01594,0.01758
2408.05157,0.01764
2407.08719,0.01762
2406.12281,0.01758
2405.15843,0.01757
2404.19406,0.01755
2403.22968,0.01755
2402.26530,0.01755
2401.30092,0.01757
2400.33654,0.01760
2399.37217,0.01763
2398.40779,0.01766
2397.44341,0.01767
2396.47903,0.01767
2395.51465,0.01767
2394.55028,0.01767
2393.58590,0.01767
2392.62152,0.01763
2391.65714,0.01758
2390.69276,0.01751
2389.72839,0.01744
2388.76401,0.01738
2387.79963,0.01732
2386.83525,0.01730
2385.87088,0.01732
2384.90650,0.01737
2383.94212,0.01744
2382.97774,0.01755
2382.01336,0.01765
2381.04899,0.01773
2380.08461,0.01781
2379.12023,0.01791
2378.15585,0.01803
2377.19147,0.01815
2376.22710,0.01828
2375.26272,0.01845
2374.29834,0.01861
2373.33396,0.01874
2372.36959,0.01884
2371.40521,0.01892
2370.44083,0.01901
2369.47645,0.01910
2368.51207,0.01921
2367.54770,0.01935
2366.58332,0.01949
2365.61894,0.01958
2364.65456,0.01966
2363.69018,0.01975
2362.72581,0.01986
2361.76143,0.01992
2360.79705,0.01992
2359.83267,0.01988
2358.86829,0.01982
2357.90392,0.01970
2356.93954,0.01954
2355.97516,0.01937
2355.01078,0.01916
2354.04641,0.01888
2353.08203,0.01861
2352.11765,0.01841
2351.15327,0.01831
2350.18889,0.01826
2349.22452,0.01825
2348.26014,0.01831
2347.29576,0.01839
2346.33138,0.01849
2345.36700,0.01863
2344.40263,0.01875
2343.43825,0.01883
2342.47387,0.01887
2341.50949,0.01889
2340.54512,0.01891
2339.58074,0.01894
2338.61636,0.01893
2337.65198,0.01895
2336.68760,0.01900
2335.72323,0.01902
2334.75885,0.01903
2333.79447,0.01902
2332.83009,0.01899
2331.86571,0.01897
2330.90134,0.01895
2329.93696,0.01894
2328.97258,0.01894
2328.00820,0.01891
2327.04382,0.01882
2326.07945,0.01869
2325.11507,0.01850
2324.15069,0.01830
2323.18631,0.01811
2322.22194,0.01793
2321.25756,0.01780
2320.29318,0.01772
2319.32880,0.01768
2318.36442,0.01766
2317.40005,0.01764
2316.43567,0.01765
2315.47129,0.01763
2314.50691,0.01756
2313.54253,0.01747
2312.57816,0.01741
2311.61378,0.01738
2310.64940,0.01736
2309.68502,0.01736
2308.72065,0.01732
2307.75627,0.01720
2306.79189,0.01705
2305.82751,0.01692
2304.86313,0.01686
2303.89876,0.01678
2302.93438,0.01670
2301.97000,0.01665
2301.00562,0.01666
2300.04124,0.01669
2299.07687,0.01673
2298.11249,0.01682
2297.14811,0.01678
2296.18373,0.01662
2295.21935,0.01648
2294.25498,0.01638
2293.29060,0.01632
2292.32622,0.01627
2291.36184,0.01627
2290.39747,0.01632
2289.43309,0.01642
2288.46871,0.01659
2287.50433,0.01675
2286.53995,0.01682
2285.57558,0.01673
2284.61120,0.01657
2283.64682,0.01646
2282.68244,0.01631
2281.71806,0.01614
2280.75369,0.01602
2279.78931,0.01593
2278.82493,0.01576
2277.86055,0.01558
2276.89618,0.01557
2275.93180,0.01561
2274.96742,0.01567
2274.00304,0.01586
2273.03866,0.01611
2272.07429,0.01636
2271.10991,0.01657
2270.14553,0.01673
2269.18115,0.01683
2268.21677,0.01682
2267.25240,0.01663
2266.28802,0.01645
2265.32364,0.01634
2264.35926,0.01614
2263.39488,0.01596
2262.43051,0.01583
2261.46613,0.01562
2260.50175,0.01541
2259.53737,0.01529
2258.57300,0.01513
2257.60862,0.01494
2256.64424,0.01491
2255.67986,0.01497
2254.71548,0.01503
2253.75111,0.01505
2252.78673,0.01508
2251.82235,0.01521
2250.85797,0.01536
2249.89359,0.01540
2248.92922,0.01532
2247.96484,0.01528
2247.00046,0.01525
2246.03608,0.01526
2245.07171,0.01549
2244.10733,0.01570
2243.14295,0.01574
2242.17857,0.01567
2241.21419,0.01556
2240.24982,0.01565
2239.28544,0.01585
2238.32106,0.01591
2237.35668,0.01581
2236.39230,0.01563
2235.42793,0.01546
2234.46355,0.01544
2233.49917,0.01556
2232.53479,0.01536
2231.57041,0.01481
2230.60604,0.01421
2229.64166,0.01386
2228.67728,0.01409
2227.71290,0.01453
2226.74853,0.01486
2225.78415,0.01509
2224.81977,0.01518
2223.85539,0.01527
2222.89101,0.01545
2221.92664,0.01546
2220.96226,0.01511
2219.99788,0.01482
2219.03350,0.01489
2218.06912,0.01519
2217.10475,0.01559
2216.14037,0.01576
2215.17599,0.01579
2214.21161,0.01592
2213.24724,0.01592
2212.28286,0.01571
2211.31848,0.01529
2210.35410,0.01465
2209.38972,0.01410
2208.42535,0.01393
2207.46097,0.01390
2206.49659,0.01383
2205.53221,0.01372
2204.56783,0.01360
2203.60346,0.01368
2202.63908,0.01393
2201.67470,0.01406
2200.71032,0.01404
2199.74594,0.01390
2198.78157,0.01376
2197.81719,0.01373
2196.85281,0.01378
2195.88843,0.01377
2194.92406,0.01376
2193.95968,0.01376
2192.99530,0.01375
2192.03092,0.01374
2191.06654,0.01373
2190.10217,0.01372
2189.13779,0.01371
2188.17341,0.01370
2187.20903,0.01369
2186.24465,0.01368
2185.28028,0.01368
2184.31590,0.01367
2183.35152,0.01366
2182.38714,0.01365
2181.42276,0.01364
2180.45839,0.01363
2179.49401,0.01362
2178.52963,0.01361
2177.56525,0.01360
2176.60088,0.01359
2175.63650,0.01359
2174.67212,0.01358
2173.70774,0.01357
2172.74336,0.01356
2171.77899,0.01355
2170.81461,0.01354
2169.85023,0.01353
2168.88585,0.01352
2167.92147,0.01351
2166.95710,0.01350
2165.99272,0.01350
2165.02834,0.01349
2164.06396,0.01348
2163.09959,0.01347
2162.13521,0.01346
2161.17083,0.01345
2160.20645,0.01344
2159.24207,0.01343
2158.27770,0.01342
2157.31332,0.01341
2156.34894,0.01341
2155.38456,0.01340
2154.42018,0.01339
2153.45581,0.01338
2152.49143,0.01337
2151.52705,0.01336
2150.56267,0.01335
2149.59829,0.01334
2148.63392,0.01333
2147.66954,0.01333
2146.70516,0.01332
2145.74078,0.01331
2144.77641,0.01330
2143.81203,0.01329
2142.84765,0.01328
2141.88327,0.01327
2140.91889,0.01326
2139.95452,0.01325
2138.99014,0.01324
2138.02576,0.01324
2137.06138,0.01323
2136.09700,0.01322
2135.13263,0.01321
2134.16825,0.01320
2133.20387,0.01319
2132.23949,0.01318
2131.27512,0.01317
2130.31074,0.01316
2129.34636,0.01315
2128.38198,0.01315
2127.41760,0.01314
2126.45323,0.01313
2125.48885,0.01312
2124.52447,0.01311
2123.56009,0.01310
2122.59571,0.01309
2121.63134,0.01308
2120.66696,0.01307
2119.70258,0.01306
2118.73820,0.01306
2117.77382,0.01305
2116.80945,0.01304
2115.84507,0.01303
2114.88069,0.01302
2113.91631,0.01301
2112.95194,0.01300
2111.98756,0.01299
2111.02318,0.01298
2110.05880,0.01298
2109.09442,0.01297
2108.13005,0.01296
2107.16567,0.01295
2106.20129,0.01294
2105.23691,0.01293
2104.27253,0.01292
2103.30816,0.01291
2102.34378,0.01290
2101.37940,0.01289
2100.41502,0.01289
2099.45065,0.01288
2098.48627,0.01287
2097.52189,0.01286
2096.55751,0.01285
2095.59313,0.01284
2094.62876,0.01283
2093.66438,0.01282
2092.70000,0.01281
2091.73562,0.01280
2090.77124,0.01280
2089.80687,0.01279
2088.84249,0.01278
2087.87811,0.01277
2086.91373,0.01276
2085.94935,0.01275
2084.98498,0.01274
2084.02060,0.01273
2083.05622,0.01272
2082.09184,0.01271
2081.12747,0.01271
2080.16309,0.01270
2079.19871,0.01269
2078.23433,0.01268
2077.26995,0.01267
2076.30558,0.01266
2075.34120,0.01265
2074.37682,0.01264
2073.41244,0.01263
2072.44806,0.01262
2071.48369,0.01262
2070.51931,0.01261
2069.55493,0.01260
2068.59055,0.01259
2067.62618,0.01258
2066.66180,0.01257
2065.69742,0.01256
2064.73304,0.01255
2063.76866,0.01254
2062.80429,0.01254
2061.83991,0.01253
2060.87553,0.01252
2059.91115,0.01251
2058.94677,0.01250
2057.98240,0.01249
2057.01802,0.01248
2056.05364,0.01247
2055.08926,0.01246
2054.12488,0.01245
2053.16051,0.01245
2052.19613,0.01244
2051.23175,0.01243
2050.26737,0.01242
2049.30300,0.01241
2048.33862,0.01240
2047.37424,0.01239
2046.40986,0.01238
2045.44548,0.01237
2044.48111,0.01236
2043.51673,0.01236
2042.55235,0.01235
2041.58797,0.01234
2040.62359,0.01233
2039.65922,0.01232
2038.69484,0.01231
2037.73046,0.01230
2036.76608,0.01229
2035.80171,0.01228
2034.83733,0.01227
2033.87295,0.01227
2032.90857,0.01226
2031.94419,0.01225
2030.97982,0.01224
2030.01544,0.01223
2029.05106,0.01222
2028.08668,0.01221
2027.12230,0.01220
2026.15793,0.01219
2025.19355,0.01219
2024.22917,0.01218
2023.26479,0.01217
2022.30041,0.01216
2021.33604,0.01215
2020.37166,0.01214
2019.40728,0.01213
2018.44290,0.01212
2017.47853,0.01211
2016.51415,0.01210
2015.54977,0.01210
2014.58539,0.01209
2013.62101,0.01208
2012.65664,0.01207
2011.69226,0.01206
2010.72788,0.01205
2009.76350,0.01204
2008.79912,0.01203
2007.83475,0.01202
2006.87037,0.01201
2005.90599,0.01201
2004.94161,0.01200
2003.97724,0.01199
2003.01286,0.01198
2002.04848,0.01197
2001.08410,0.01196
2000.11972,0.01195
1999.15535,0.01194
1998.19097,0.01193
1997.22659,0.01192
1996.26221,0.01192
1995.29783,0.01191
1994.33346,0.01190
1993.36908,0.01189
1992.40470,0.01188
1991.44032,0.01187
1990.47594,0.01186
1989.51157,0.01185
1988.54719,0.01184
1987.58281,0.01184
1986.61843,0.01183
1985.65406,0.01182
1984.68968,0.01181
1983.72530,0.01180
1982.76092,0.01179
1981.79654,0.01178
1980.83217,0.01177
1979.86779,0.01176
1978.90341,0.01175
1977.93903,0.01175
1976.97465,0.01174
1976.01028,0.01173
1975.04590,0.01172
1974.08152,0.01171
1973.11714,0.01170
1972.15276,0.01169
1971.18839,0.01168
1970.22401,0.01167
1969.25963,0.01166
1968.29525,0.01166
1967.33088,0.01165
1966.36650,0.01164
1965.40212,0.01163
1964.43774,0.01162
1963.47336,0.01161
1962.50899,0.01142
1961.54461,0.01128
1960.58023,0.01153
1959.61585,0.01194
1958.65147,0.01246
1957.68710,0.01297
1956.72272,0.01325
1955.75834,0.01340
1954.79396,0.01355
1953.82959,0.01360
1952.86521,0.01352
1951.90083,0.01333
1950.93645,0.01289
1949.97207,0.01256
1949.00770,0.01265
1948.04332,0.01293
1947.07894,0.01323
1946.11456,0.01328
1945.15018,0.01303
1944.18581,0.01279
1943.22143,0.01268
1942.25705,0.01259
1941.29267,0.01259
1940.32829,0.01258
1939.36392,0.01250
1938.39954,0.01244
1937.43516,0.01257
1936.47078,0.01294
1935.50641,0.01334
1934.54203,0.01355
1933.57765,0.01364
1932.61327,0.01377
1931.64889,0.01396
1930.68452,0.01407
1929.72014,0.01406
1928.75576,0.01395
1927.79138,0.01382
1926.82700,0.01357
1925.86263,0.01335
1924.89825,0.01341
1923.93387,0.01350
1922.96949,0.01350
1922.00512,0.01354
1921.04074,0.01362
1920.07636,0.01370
1919.11198,0.01369
1918.14760,0.01361
1917.18323,0.01354
1916.21885,0.01346
1915.25447,0.01329
1914.29009,0.01321
1913.32571,0.01322
1912.36134,0.01313
1911.39696,0.01303
1910.43258,0.01303
1909.46820,0.01304
1908.50382,0.01316
1907.53945,0.01337
1906.57507,0.01348
1905.61069,0.01357
1904.64631,0.01370
1903.68194,0.01382
1902.71756,0.01392
1901.75318,0.01396
1900.78880,0.01390
1899.82442,0.01379
1898.86005,0.01370
1897.89567,0.01358
1896.93129,0.01346
1895.96691,0.01343
1895.00253,0.01342
1894.03816,0.01351
1893.07378,0.01370
1892.10940,0.01385
1891.14502,0.01393
1890.18065,0.01395
1889.21627,0.01393
1888.25189,0.01387
1887.28751,0.01377
1886.32313,0.01364
1885.35876,0.01352
1884.39438,0.01350
1883.43000,0.01355
1882.46562,0.01362
1881.50124,0.01365
1880.53687,0.01359
1879.57249,0.01349
1878.60811,0.01345
1877.64373,0.01345
1876.67935,0.01346
1875.71498,0.01348
1874.75060,0.01349
1873.78622,0.01348
1872.82184,0.01350
1871.85747,0.01357
1870.89309,0.01366
1869.92871,0.01371
1868.96433,0.01371
1867.99995,0.01368
1867.03558,0.01370
1866.07120,0.01373
1865.10682,0.01370
1864.14244,0.01360
1863.17806,0.01347
1862.21369,0.01340
1861.24931,0.01343
1860.28493,0.01352
1859.32055,0.01359
1858.35618,0.01362
1857.39180,0.01361
1856.42742,0.01358
1855.46304,0.01357
1854.49866,0.01355
1853.53429,0.01348
1852.56991,0.01342
1851.60553,0.01340
1850.64115,0.01345
1849.67677,0.01357
1848.71240,0.01368
1847.74802,0.01376
1846.78364,0.01383
1845.81926,0.01386
1844.85488,0.01387
1843.89051,0.01383
1842.92613,0.01379
1841.96175,0.01378
1840.99737,0.01380
1840.03300,0.01382
1839.06862,0.01387
1838.10424,0.01392
1837.13986,0.01394
1836.17548,0.01394
1835.21111,0.01393
1834.24673,0.01392
1833.28235,0.01390
1832.31797,0.01384
1831.35359,0.01380
1830.38922,0.01379
1829.42484,0.01383
1828.46046,0.01394
1827.49608,0.01407
1826.53171,0.01418
1825.56733,0.01423
1824.60295,0.01427
1823.63857,0.01432
1822.67419,0.01435
1821.70982,0.01430
1820.74544,0.01420
1819.78106,0.01412
1818.81668,0.01408
1817.85230,0.01409
1816.88793,0.01417
1815.92355,0.01428
1814.95917,0.01435
1813.99479,0.01440
1813.03041,0.01443
1812.06604,0.01445
1811.10166,0.01443
1810.13728,0.01439
1809.17290,0.01435
1808.20853,0.01436
1807.24415,0.01437
1806.27977,0.01438
1805.31539,0.01443
1804.35101,0.01449
1803.38664,0.01454
1802.42226,0.01458
1801.45788,0.01460
1800.49350,0.01462
1799.52912,0.01467
1798.56475,0.01471
1797.60037,0.01474
1796.63599,0.01475
1795.67161,0.01474
1794.70724,0.01472
1793.74286,0.01473
1792.77848,0.01472
1791.81410,0.01470
1790.84972,0.01469
1789.88535,0.01470
1788.92097,0.01474
1787.95659,0.01481
1786.99221,0.01487
1786.02783,0.01491
1785.06346,0.01494
1784.09908,0.01498
1783.13470,0.01503
1782.17032,0.01507
1781.20594,0.01509
1780.24157,0.01511
1779.27719,0.01515
1778.31281,0.01522
1777.34843,0.01530
1776.38406,0.01538
1775.41968,0.01546
1774.45530,0.01552
1773.49092,0.01559
1772.52654,0.01569
1771.56217,0.01580
1770.59779,0.01590
1769.63341,0.01597
1768.66903,0.01605
1767.70465,0.01612
1766.74028,0.01620
1765.77590,0.01628
1764.81152,0.01637
1763.84714,0.01645
1762.88276,0.01652
1761.91839,0.01660
1760.95401,0.01668
1759.98963,0.01675
1759.02525,0.01682
1758.06088,0.01692
1757.09650,0.01703
1756.13212,0.01715
1755.16774,0.01727
1754.20336,0.01739
1753.23899,0.01751
1752.27461,0.01763
1751.31023,0.01775
1750.34585,0.01786
1749.38147,0.01797
1748.41710,0.01808
1747.45272,0.01819
1746.48834,0.01830
1745.52396,0.01842
1744.55959,0.01853
1743.59521,0.01859
1742.63083,0.01863
1741.66645,0.01868
1740.70207,0.01873
1739.73770,0.01880
1738.77332,0.01889
1737.80894,0.01897
1736.84456,0.01905
1735.88018,0.01910
1734.91581,0.01916
1733.95143,0.01922
1732.98705,0.01925
1732.02267,0.01924
1731.05829,0.01922
1730.09392,0.01919
1729.12954,0.01917
1728.16516,0.01918
1727.20078,0.01919
1726.23641,0.01920
1725.27203,0.01922
1724.30765,0.01925
1723.34327,0.01929
1722.37889,0.01933
1721.41452,0.01934
1720.45014,0.01934
1719.48576,0.01933
1718.52138,0.01931
1717.55700,0.01929
1716.59263,0.01925
1715.62825,0.01922
1714.66387,0.01919
1713.69949,0.01917
1712.73512,0.01917
1711.77074,0.01916
1710.80636,0.01914
1709.84198,0.01910
1708.87760,0.01907
1707.91323,0.01903
1706.94885,0.01899
1705.98447,0.01895
1705.02009,0.01890
1704.05571,0.01887
1703.09134,0.01887
1702.12696,0.01888
1701.16258,0.01888
1700.19820,0.01887
1699.23382,0.01882
1698.26945,0.01876
1697.30507,0.01871
1696.34069,0.01866
1695.37631,0.01862
1694.41194,0.01860
1693.44756,0.01857
1692.48318,0.01854
1691.51880,0.01852
1690.55442,0.01850
1689.59005,0.01849
1688.62567,0.01849
1687.66129,0.01847
1686.69691,0.01846
1685.73253,0.01847
1684.76816,0.01850
1683.80378,0.01856
1682.83940,0.01862
1681.87502,0.01867
1680.91065,0.01871
1679.94627,0.01875
1678.98189,0.01881
1678.01751,0.01888
1677.05313,0.01894
1676.08876,0.01900
1675.12438,0.01904
1674.16000,0.01910
1673.19562,0.01916
1672.23124,0.01923
1671.26687,0.01931
1670.30249,0.01939
1669.33811,0.01948
1668.37373,0.01957
1667.40935,0.01967
1666.44498,0.01976
1665.48060,0.01985
1664.51622,0.01995
1663.55184,0.02005
1662.58747,0.02016
1661.62309,0.02027
1660.65871,0.02039
1659.69433,0.02053
1658.72995,0.02066
1657.76558,0.02081
1656.80120,0.02094
1655.83682,0.02106
1654.87244,0.02119
1653.90806,0.02133
1652.94369,0.02146
1651.97931,0.02156
1651.01493,0.02167
1650.05055,0.02178
1649.08618,0.02189
1648.12180,0.02199
1647.15742,0.02208
1646.19304,0.02218
1645.22866,0.02226
1644.26429,0.02236
1643.29991,0.02249
1642.33553,0.02261
1641.37115,0.02272
1640.40677,0.02284
1639.44240,0.02297
1638.47802,0.02310
1637.51364,0.02323
1636.54926,0.02336
1635.58488,0.02347
1634.62051,0.02356
1633.65613,0.02365
1632.69175,0.02375
1631.72737,0.02383
1630.76300,0.02389
1629.79862,0.02393
1628.83424,0.02399
1627.86986,0.02404
1626.90548,0.02410
1625.94111,0.02417
1624.97673,0.02422
1624.01235,0.02428
1623.04797,0.02433
1622.08359,0.02439
1621.11922,0.02444
1620.15484,0.02446
1619.19046,0.02446
1618.22608,0.02446
1617.26171,0.02444
1616.29733,0.02441
1615.33295,0.02439
1614.36857,0.02438
1613.40419,0.02436
1612.43982,0.02434
1611.47544,0.02432
1610.51106,0.02431
1609.54668,0.02429
1608.58230,0.02428
1607.61793,0.02427
1606.65355,0.02427
1605.68917,0.02427
1604.72479,0.02427
1603.76041,0.02429
1602.79604,0.02432
1601.83166,0.02433
1600.86728,0.02436
1599.90290,0.02439
1598.93853,0.02443
1597.97415,0.02446
1597.00977,0.02449
1596.04539,0.02451
1595.08101,0.02454
1594.11664,0.02456
1593.15226,0.02457
1592.18788,0.02458
1591.22350,0.02459
1590.25912,0.02462
1589.29475,0.02466
1588.33037,0.02469
1587.36599,0.02471
1586.40161,0.02471
1585.43724,0.02470
1584.47286,0.02468
1583.50848,0.02464
1582.54410,0.02461
1581.57972,0.02459
1580.61535,0.02456
1579.65097,0.02451
1578.68659,0.02445
1577.72221,0.02437
1576.75783,0.02429
1575.79346,0.02419
1574.82908,0.02407
1573.86470,0.02395
1572.90032,0.02382
1571.93594,0.02370
1570.97157,0.02359
1570.00719,0.02348
1569.04281,0.02337
1568.07843,0.02325
1567.11406,0.02313
1566.14968,0.02303
1565.18530,0.02294
1564.22092,0.02285
1563.25654,0.02275
1562.29217,0.02265
1561.32779,0.02255
1560.36341,0.02243
1559.39903,0.02232
1558.43465,0.02220
1557.47028,0.02207
1556.50590,0.02195
1555.54152,0.02181
1554.57714,0.02167
1553.61276,0.02154
1552.64839,0.02141
1551.68401,0.02127
1550.71963,0.02114
1549.75525,0.02101
1548.79088,0.02090
1547.82650,0.02080
1546.86212,0.02072
1545.89774,0.02064
1544.93336,0.02056
1543.96899,0.02048
1543.00461,0.02041
1542.04023,0.02034
1541.07585,0.02027
1540.11147,0.02019
1539.14710,0.02011
1538.18272,0.02004
1537.21834,0.01996
1536.25396,0.01989
1535.28959,0.01983
1534.32521,0.01974
1533.36083,0.01965
1532.39645,0.01956
1531.43207,0.01947
1530.46770,0.01939
1529.50332,0.01933
1528.53894,0.01927
1527.57456,0.01922
1526.61018,0.01918
1525.64581,0.01916
1524.68143,0.01915
1523.71705,0.01913
1522.75267,0.01911
1521.78829,0.01907
1520.82392,0.01902
1519.85954,0.01899
1518.89516,0.01897
1517.93078,0.01896
1516.96641,0.01896
1516.00203,0.01896
1515.03765,0.01897
1514.07327,0.01898
1513.10889,0.01897
1512.14452,0.01896
1511.18014,0.01895
1510.21576,0.01894
1509.25138,0.01892
1508.28700,0.01891
1507.32263,0.01891
1506.35825,0.01891
1505.39387,0.01892
1504.42949,0.01891
1503.46512,0.01890
1502.50074,0.01889
1501.53636,0.01887
1500.57198,0.01886
1499.60760,0.01885
1498.64323,0.01885
1497.67885,0.01884
1496.71447,0.01885
1495.75009,0.01887
1494.78571,0.01889
1493.82134,0.01890
1492.85696,0.01892
1491.89258,0.01896
1490.92820,0.01899
1489.96382,0.01900
1488.99945,0.01901
1488.03507,0.01903
1487.07069,0.01905
1486.10631,0.01907
1485.14194,0.01911
1484.17756,0.01916
1483.21318,0.01920
1482.24880,0.01925
1481.28442,0.01932
1480.32005,0.01940
1479.35567,0.01947
1478.39129,0.01953
1477.42691,0.01960
1476.46253,0.01968
1475.49816,0.01975
1474.53378,0.01981
1473.56940,0.01987
1472.60502,0.01993
1471.64065,0.01999
1470.67627,0.02005
1469.71189,0.02010
1468.74751,0.02016
1467.78313,0.02022
1466.81876,0.02028
1465.85438,0.02034
1464.89000,0.02040
1463.92562,0.02046
1462.96124,0.02053
1461.99687,0.02059
1461.03249,0.02065
1460.06811,0.02071
1459.10373,0.02077
1458.13935,0.02083
1457.17498,0.02090
1456.21060,0.02095
1455.24622,0.02103
1454.28184,0.02111
1453.31747,0.02119
1452.35309,0.02129
1451.38871,0.02136
1450.42433,0.02142
1449.45995,0.02148
1448.49558,0.02156
1447.53120,0.02165
1446.56682,0.02173
1445.60244,0.02180
1444.63806,0.02186
1443.67369,0.02194
1442.70931,0.02203
1441.74493,0.02214
1440.78055,0.02226
1439.81618,0.02235
1438.85180,0.02243
1437.88742,0.02252
1436.92304,0.02264
1435.95866,0.02275
1434.99429,0.02284
1434.02991,0.02291
1433.06553,0.02297
1432.10115,0.02303
1431.13677,0.02310
1430.17240,0.02319
1429.20802,0.02326
1428.24364,0.02332
1427.27926,0.02338
1426.31488,0.02344
1425.35051,0.02352
1424.38613,0.02362
1423.42175,0.02371
1422.45737,0.02381
1421.49300,0.02390
1420.52862,0.02398
1419.56424,0.02405
1418.59986,0.02411
1417.63548,0.02417
1416.67111,0.02422
1415.70673,0.02426
1414.74235,0.02430
1413.77797,0.02437
1412.81359,0.02446
1411.84922,0.02454
1410.88484,0.02461
1409.92046,0.02467
1408.95608,0.02474
1407.99171,0.02480
1407.02733,0.02485
1406.06295,0.02488
1405.09857,0.02493
1404.13419,0.02498
1403.16982,0.02503
1402.20544,0.02509
1401.24106,0.02514
1400.27668,0.02518
1399.31230,0.02522
1398.34793,0.02528
1397.38355,0.02535
1396.41917,0.02541
1395.45479,0.02545
1394.49041,0.02548
1393.52604,0.02551
1392.56166,0.02555
1391.59728,0.02559
1390.63290,0.02561
1389.66853,0.02563
1388.70415,0.02566
1387.73977,0.02569
1386.77539,0.02571
1385.81101,0.02574
1384.84664,0.02578
1383.88226,0.02581
1382.91788,0.02582
1381.95350,0.02584
1380.98912,0.02588
1380.02475,0.02591
1379.06037,0.02593
1378.09599,0.02595
1377.13161,0.02595
1376.16724,0.02595
1375.20286,0.02593
1374.23848,0.02593
1373.27410,0.02594
1372.30972,0.02594
1371.34535,0.02595
1370.38097,0.02594
1369.41659,0.02592
1368.45221,0.02590
1367.48783,0.02589
1366.52346,0.02588
1365.55908,0.02587
1364.59470,0.02585
1363.63032,0.02582
1362.66594,0.02579
1361.70157,0.02576
1360.73719,0.02573
1359.77281,0.02569
1358.80843,0.02566
1357.84406,0.02562
1356.87968,0.02560
1355.91530,0.02558
1354.95092,0.02556
1353.98654,0.02552
1353.02217,0.02549
1352.05779,0.02545
1351.09341,0.02541
1350.12903,0.02537
1349.16465,0.02534
1348.20028,0.02532
1347.23590,0.02532
1346.27152,0.02533
1345.30714,0.02533
1344.34276,0.02531
1343.37839,0.02529
1342.41401,0.02526
1341.44963,0.02525
1340.48525,0.02523
1339.52088,0.02519
1338.55650,0.02513
1337.59212,0.02507
1336.62774,0.02499
1335.66336,0.02491
1334.69899,0.02483
1333.73461,0.02476
1332.77023,0.02470
1331.80585,0.02464
1330.84147,0.02460
1329.87710,0.02456
1328.91272,0.02452
1327.94834,0.02447
1326.98396,0.02444
1326.01959,0.02440
1325.05521,0.02434
1324.09083,0.02430
1323.12645,0.02429
1322.16207,0.02427
1321.19770,0.02427
1320.23332,0.02426
1319.26894,0.02425
1318.30456,0.02424
1317.34018,0.02424
1316.37581,0.02423
1315.41143,0.02422
1314.44705,0.02422
1313.48267,0.02420
1312.51829,0.02421
1311.55392,0.02422
1310.58954,0.02423
1309.62516,0.02424
1308.66078,0.02426
1307.69641,0.02429
1306.73203,0.02431
1305.76765,0.02432
1304.80327,0.02431
1303.83889,0.02431
1302.87452,0.02431
1301.91014,0.02429
1300.94576,0.02427
1299.98138,0.02426
1299.01700,0.02425
1298.05263,0.02427
1297.08825,0.02430
1296.12387,0.02433
1295.15949,0.02435
1294.19512,0.02439
1293.23074,0.02443
1292.26636,0.02447
1291.30198,0.02450
1290.33760,0.02450
1289.37323,0.02450
1288.40885,0.02452
1287.44447,0.02455
1286.48009,0.02458
1285.51571,0.02461
1284.55134,0.02465
1283.58696,0.02469
1282.62258,0.02473
1281.65820,0.02479
1280.69382,0.02484
1279.72945,0.02488
1278.76507,0.02490
1277.80069,0.02493
1276.83631,0.02495
1275.87194,0.02497
1274.90756,0.02499
1273.94318,0.02502
1272.97880,0.02506
1272.01442,0.02509
1271.05005,0.02514
1270.08567,0.02522
1269.12129,0.02527
1268.15691,0.02533
1267.19253,0.02539
1266.22816,0.02547
1265.26378,0.02551
1264.29940,0.02553
1263.33502,0.02556
1262.37065,0.02557
1261.40627,0.02557
1260.44189,0.02556
1259.47751,0.02557
1258.51313,0.02559
1257.54876,0.02562
1256.58438,0.02566
1255.62000,0.02573
1254.65562,0.02582
1253.69124,0.02590
1252.72687,0.02598
1251.76249,0.02607
1250.79811,0.02613
1249.83373,0.02617
1248.86935,0.02622
1247.90498,0.02627
1246.94060,0.02631
1245.97622,0.02634
1245.01184,0.02636
1244.04747,0.02637
1243.08309,0.02638
1242.11871,0.02639
1241.15433,0.02640
1240.18995,0.02641
1239.22558,0.02643
1238.26120,0.02646
1237.29682,0.02650
1236.33244,0.02654
1235.36806,0.02657
1234.40369,0.02660
1233.43931,0.02663
1232.47493,0.02664
1231.51055,0.02664
1230.54618,0.02664
1229.58180,0.02664
1228.61742,0.02665
1227.65304,0.02665
1226.68866,0.02664
1225.72429,0.02664
1224.75991,0.02664
1223.79553,0.02663
1222.83115,0.02662
1221.86677,0.02660
1220.90240,0.02658
1219.93802,0.02657
1218.97364,0.02656
1218.00926,0.02655
1217.04488,0.02655
1216.08051,0.02655
1215.11613,0.02654
1214.15175,0.02654
1213.18737,0.02655
1212.22300,0.02656
1211.25862,0.02655
1210.29424,0.02653
1209.32986,0.02651
1208.36548,0.02650
1207.40111,0.02648
1206.43673,0.02647
1205.47235,0.02644
1204.50797,0.02640
1203.54359,0.02637
1202.57922,0.02636
1201.61484,0.02636
1200.65046,0.02637
1199.68608,0.02638
1198.72171,0.02640
1197.75733,0.02641
1196.79295,0.02642
1195.82857,0.02643
1194.86419,0.02644
1193.89982,0.02647
1192.93544,0.02649
1191.97106,0.02651
1191.00668,0.02654
1190.04230,0.02657
1189.07793,0.02662
1188.11355,0.02667
1187.14917,0.02671
1186.18479,0.02673
1185.22041,0.02674
1184.25604,0.02675
1183.29166,0.02677
1182.32728,0.02681
1181.36290,0.02685
1180.39853,0.02690
1179.43415,0.02695
1178.46977,0.02701
1177.50539,0.02708
1176.54101,0.02715
1175.57664,0.02723
1174.61226,0.02731
1173.64788,0.02737
1172.68350,0.02743
1171.71912,0.02751
1170.75475,0.02760
1169.79037,0.02770
1168.82599,0.02780
1167.86161,0.02788
1166.89724,0.02794
1165.93286,0.02799
1164.96848,0.02806
1164.00410,0.02814
1163.03972,0.02821
1162.07535,0.02827
1161.11097,0.02833
1160.14659,0.02841
1159.18221,0.02849
1158.21783,0.02857
1157.25346,0.02866
1156.28908,0.02873
1155.32470,0.02877
1154.36032,0.02880
1153.39594,0.02886
1152.43157,0.02892
1151.46719,0.02896
1150.50281,0.02901
1149.53843,0.02906
1148.57406,0.02912
1147.60968,0.02917
1146.64530,0.02923
1145.68092,0.02930
1144.71654,0.02935
1143.75217,0.02939
1142.78779,0.02944
1141.82341,0.02949
1140.85903,0.02952
1139.89465,0.02956
1138.93028,0.02961
1137.96590,0.02965
1137.00152,0.02971
1136.03714,0.02978
1135.07276,0.02988
1134.10839,0.02998
1133.14401,0.03008
1132.17963,0.03018
1131.21525,0.03025
1130.25088,0.03031
1129.28650,0.03037
1128.32212,0.03042
1127.35774,0.03047
1126.39336,0.03051
1125.42899,0.03055
1124.46461,0.03062
1123.50023,0.03071
1122.53585,0.03078
1121.57147,0.03081
1120.60710,0.03083
1119.64272,0.03084
1118.67834,0.03084
1117.71396,0.03083
1116.74959,0.03084
1115.78521,0.03085
1114.82083,0.03085
1113.85645,0.03087
1112.89207,0.03092
1111.92770,0.03097
1110.96332,0.03102
1109.99894,0.03105
1109.03456,0.03109
1108.07018,0.03112
1107.10581,0.03110
1106.14143,0.03107
1105.17705,0.03104
1104.21267,0.03100
1103.24829,0.03096
1102.28392,0.03093
1101.31954,0.03092
1100.35516,0.03091
1099.39078,0.03092
1098.42641,0.03093
1097.46203,0.03092
1096.49765,0.03088
1095.53327,0.03083
1094.56889,0.03079
1093.60452,0.03072
1092.64014,0.03068
1091.67576,0.03068
1090.71138,0.03068
1089.74700,0.03070
1088.78263,0.03072
1087.81825,0.03074
1086.85387,0.03075
1085.88949,0.03075
1084.92512,0.03075
1083.96074,0.03075
1082.99636,0.03076
1082.03198,0.03075
1081.06760,0.03074
1080.10323,0.03075
1079.13885,0.03074
1078.17447,0.03071
1077.21009,0.03065
1076.24571,0.03056
1075.28134,0.03049
1074.31696,0.03043
1073.35258,0.03037
1072.38820,0.03030
1071.42382,0.03025
1070.45945,0.03018
1069.49507,0.03010
1068.53069,0.03004
1067.56631,0.02999
1066.60194,0.02992
1065.63756,0.02984
1064.67318,0.02976
1063.70880,0.02969
1062.74442,0.02961
1061.78005,0.02950
1060.81567,0.02941
1059.85129,0.02932
1058.88691,0.02920
1057.92253,0.02906
1056.95816,0.02896
1055.99378,0.02889
1055.02940,0.02881
1054.06502,0.02870
1053.10065,0.02859
1052.13627,0.02845
1051.17189,0.02830
1050.20751,0.02818
1049.24313,0.02809
1048.27876,0.02798
1047.31438,0.02784
1046.35000,0.02772
1045.38562,0.02763
1044.42124,0.02756
1043.45687,0.02746
1042.49249,0.02735
1041.52811,0.02723
1040.56373,0.02711
1039.59935,0.02700
1038.63498,0.02689
1037.67060,0.02679
1036.70622,0.02666
1035.74184,0.02652
1034.77747,0.02639
1033.81309,0.02625
1032.84871,0.02611
1031.88433,0.02596
1030.91995,0.02581
1029.95558,0.02566
1028.99120,0.02552
1028.02682,0.02537
1027.06244,0.02523
1026.09806,0.02513
1025.13369,0.02504
1024.16931,0.02497
1023.20493,0.02490
1022.24055,0.02482
1021.27618,0.02476
1020.31180,0.02468
1019.34742,0.02459
1018.38304,0.02449
1017.41866,0.02437
1016.45429,0.02422
1015.48991,0.02409
1014.52553,0.02399
1013.56115,0.02390
1012.59677,0.02382
1011.63240,0.02372
1010.66802,0.02365
1009.70364,0.02360
1008.73926,0.02356
1007.77488,0.02353
1006.81051,0.02350
1005.84613,0.02347
1004.88175,0.02342
1003.91737,0.02336
1002.95300,0.02328
1001.98862,0.02320
1001.02424,0.02310
1000.05986,0.02302
999.09548,0.02296
998.13111,0.02294
997.16673,0.02295
996.20235,0.02298
995.23797,0.02302
994.27359,0.02303
993.30922,0.02304
992.34484,0.02304
991.38046,0.02303
990.41608,0.02301
989.45171,0.02298
988.48733,0.02295
987.52295,0.02292
986.55857,0.02290
985.59419,0.02289
984.62982,0.02288
983.66544,0.02285
982.70106,0.02282
981.73668,0.02282
980.77230,0.02284
979.80793,0.02285
978.84355,0.02284
977.87917,0.02280
976.91479,0.02277
975.95041,0.02274
974.98604,0.02273
974.02166,0.02270
973.05728,0.02262
972.09290,0.02251
971.12853,0.02242
970.16415,0.02234
969.19977,0.02227
968.23539,0.02219
967.27101,0.02211
966.30664,0.02204
965.34226,0.02197
964.37788,0.02191
963.41350,0.02184
962.44912,0.02175
961.48475,0.02163
960.52037,0.02151
959.55599,0.02139
958.59161,0.02131
957.62724,0.02125
956.66286,0.02119
955.69848,0.02114
954.73410,0.02108
953.76972,0.02101
952.80535,0.02091
951.84097,0.02082
950.87659,0.02076
949.91221,0.02074
948.94783,0.02070
947.98346,0.02069
947.01908,0.02074
946.05470,0.02078
945.09032,0.02078
944.12594,0.02076
943.16157,0.02072
942.19719,0.02064
941.23281,0.02053
940.26843,0.02042
939.30406,0.02033
938.33968,0.02024
937.37530,0.02013
936.41092,0.02002
935.44654,0.01994
934.48217,0.01986
933.51779,0.01981
932.55341,0.01980
931.58903,0.01980
930.62465,0.01981
929.66028,0.01983
928.69590,0.01986
927.73152,0.01987
926.76714,0.01984
925.80276,0.01978
924.83839,0.01968
923.87401,0.01956
922.90963,0.01946
921.94525,0.01937
920.98088,0.01930
920.01650,0.01926
919.05212,0.01923
918.08774,0.01918
917.12336,0.01913
916.15899,0.01910
915.19461,0.01910
914.23023,0.01912
913.26585,0.01912
912.30147,0.01913
911.33710,0.01918
910.37272,0.01922
909.40834,0.01926
908.44396,0.01930
907.47959,0.01932
906.51521,0.01928
905.55083,0.01919
904.58645,0.01906
903.62207,0.01895
902.65770,0.01886
901.69332,0.01879
900.72894,0.01879
899.76456,0.01884
898.80018,0.01887
897.83581,0.01892
896.87143,0.01898
895.90705,0.01905
894.94267,0.01906
893.97829,0.01902
893.01392,0.01899
892.04954,0.01899
891.08516,0.01901
890.12078,0.01903
889.15641,0.01909
888.19203,0.01912
887.22765,0.01913
886.26327,0.01913
885.29889,0.01913
884.33452,0.01914
883.37014,0.01912
882.40576,0.01906
881.44138,0.01903
880.47700,0.01903
879.51263,0.01905
878.54825,0.01908
877.58387,0.01911
876.61949,0.01911
875.65512,0.01912
874.69074,0.01915
873.72636,0.01917
872.76198,0.01916
871.79760,0.01909
870.83323,0.01901
869.86885,0.01897
868.90447,0.01900
867.94009,0.01903
866.97571,0.01909
866.01134,0.01914
865.04696,0.01918
864.08258,0.01924
863.11820,0.01929
862.15382,0.01932
861.18945,0.01937
860.22507,0.01943
859.26069,0.01948
858.29631,0.01950
857.33194,0.01954
856.36756,0.01957
855.40318,0.01961
854.43880,0.01964
853.47442,0.01963
852.51005,0.01962
851.54567,0.01960
850.58129,0.01960
849.61691,0.01963
848.65253,0.01965
847.68816,0.01967
846.72378,0.01971
845.75940,0.01979
844.79502,0.01989
843.83065,0.01994
842.86627,0.01995
841.90189,0.01994
840.93751,0.01993
839.97313,0.01991
839.00876,0.01988
838.04438,0.01986
837.08000,0.01986
836.11562,0.01986
835.15124,0.01984
834.18687,0.01982
833.22249,0.01978
832.25811,0.01973
831.29373,0.01971
830.32935,0.01969
829.36498,0.01972
828.40060,0.01980
827.43622,0.01988
826.47184,0.01995
825.50747,0.01998
824.54309,0.01997
823.57871,0.01995
822.61433,0.01993
821.64995,0.01995
820.68558,0.01997
819.72120,0.01997
818.75682,0.01995
817.79244,0.01996
816.82806,0.01996
815.86369,0.01992
814.89931,0.01984
813.93493,0.01976
812.97055,0.01969
812.00618,0.01964
811.04180,0.01966
810.07742,0.01974
809.11304,0.01980
808.14866,0.01982
807.18429,0.01983
806.21991,0.01987
805.25553,0.01989
804.29115,0.01986
803.32677,0.01978
802.36240,0.01972
801.39802,0.01966
800.43364,0.01958
799.46926,0.01955
798.50488,0.01956
797.54051,0.01955
796.57613,0.01954
795.61175,0.01956
794.64737,0.01960
793.68300,0.01962
792.71862,0.01959
791.75424,0.01958
790.78986,0.01959
789.82548,0.01961
788.86111,0.01960
787.89673,0.01958
786.93235,0.01955
785.96797,0.01950
785.00359,0.01941
784.03922,0.01930
783.07484,0.01921
782.11046,0.01915
781.14608,0.01911
780.18171,0.01910
779.21733,0.01914
778.25295,0.01923
777.28857,0.01932
776.32419,0.01944
775.35982,0.01954
774.39544,0.01959
773.43106,0.01959
772.46668,0.01953
771.50230,0.01947
770.53793,0.01941
769.57355,0.01934
768.60917,0.01930
767.64479,0.01929
766.68041,0.01928
765.71604,0.01930
764.75166,0.01938
763.78728,0.01947
762.82290,0.01951
761.85853,0.01952
760.89415,0.01951
759.92977,0.01950
758.96539,0.01949
758.00101,0.01949
757.03664,0.01947
756.07226,0.01942
755.10788,0.01940
754.14350,0.01939
753.17912,0.01938
752.21475,0.01936
751.25037,0.01932
750.28599,0.01931
749.32161,0.01936
748.35724,0.01940
747.39286,0.01945
746.42848,0.01949
745.46410,0.01954
744.49972,0.01964
743.53535,0.01975
742.57097,0.01985
741.60659,0.01990
740.64221,0.01987
739.67783,0.01983
738.71346,0.01977
737.74908,0.01968
736.78470,0.01956
735.82032,0.01944
734.85594,0.01933
733.89157,0.01932
732.92719,0.01936
731.96281,0.01936
730.99843,0.01941
730.03406,0.01947
729.06968,0.01949
728.10530,0.01952
727.14092,0.01953
726.17654,0.01952
725.21217,0.01953
724.24779,0.01952
723.28341,0.01954
722.31903,0.01963
721.35465,0.01972
720.39028,0.01979
719.42590,0.01990
718.46152,0.02001
717.49714,0.02008
716.53276,0.02012
715.56839,0.02010
714.60401,0.02003
713.63963,0.01997
712.67525,0.01991
711.71088,0.01987
710.74650,0.01986
709.78212,0.01989
708.81774,0.01992
707.85336,0.01996
706.88899,0.02004
705.92461,0.02011
704.96023,0.02015
703.99585,0.02014
703.03147,0.02011
702.06710,0.02012
701.10272,0.02009
700.13834,0.02004
699.17396,0.02002
698.20959,0.02002
697.24521,0.02002
696.28083,0.02005
695.31645,0.02011
694.35207,0.02014
693.38770,0.02015
692.42332,0.02017
691.45894,0.02017
690.49456,0.02018
689.53018,0.02017
688.56581,0.02018
687.60143,0.02020
686.63705,0.02020
685.67267,0.02021
684.70829,0.02024
683.74392,0.02025
682.77954,0.02023
681.81516,0.02023
680.85078,0.02025
679.88641,0.02027
678.92203,0.02033
677.95765,0.02039
676.99327,0.02041
676.02889,0.02039
675.06452,0.02033
674.10014,0.02024
673.13576,0.02032
672.17138,0.02059
671.20700,0.02082
670.24263,0.02097
669.27825,0.02106
668.31387,0.02109
667.34949,0.02108
666.38512,0.02101
665.42074,0.02083
664.45636,0.02057
663.49198,0.02029
662.52760,0.02009
661.56323,0.02012
660.59885,0.02027
659.63447,0.02036
658.67009,0.02045
657.70571,0.02058
656.74134,0.02070
655.77696,0.02081
654.81258,0.02088
653.84820,0.02091
652.88382,0.02093
651.91945,0.02094
650.95507,0.02093
649.99069,0.02088
649.02631,0.02087
648.06194,0.02094
647.09756,0.02101
646.13318,0.02106
645.16880,0.02113
644.20442,0.02120
643.24005,0.02125
642.27567,0.02127
641.31129,0.02129
640.34691,0.02129
639.38253,0.02125
638.41816,0.02121
637.45378,0.02121
636.48940,0.02127
635.52502,0.02130
634.56065,0.02131
633.59627,0.02135
632.63189,0.02142
631.66751,0.02147
630.70313,0.02145
629.73876,0.02157
628.77438,0.02183
627.81000,0.02215
626.84562,0.02244
625.88124,0.02260
624.91687,0.02274
623.95249,0.02287
622.98811,0.02312
622.02373,0.02299
621.05935,0.02226
620.09498,0.02138
619.13060,0.02080
618.16622,0.02058
617.20184,0.01999
616.23747,0.01913
615.27309,0.01844
614.30871,0.01824
613.34433,0.01866
612.37995,0.01945
611.41558,0.02052
610.45120,0.02108
609.48682,0.02138
608.52244,0.02208
607.55806,0.02308
606.59369,0.02375
605.62931,0.02353
604.66493,0.02303
603.70055,0.02271
602.73618,0.02259
601.77180,0.02248
600.80742,0.02224
599.84304,0.02204
598.87866,0.02179
597.91429,0.02171
596.94991,0.02172
595.98553,0.02173
595.02115,0.02174
594.05677,0.02165
593.09240,0.02163
592.12802,0.02168
591.16364,0.02180
590.19926,0.02188
589.23488,0.02189
588.27051,0.02194
587.30613,0.02201
586.34175,0.02204
585.37737,0.02191
584.41300,0.02176
583.44862,0.02164
582.48424,0.02149
581.51986,0.02145
580.55548,0.02148
579.59111,0.02149
578.62673,0.02143
577.66235,0.02134
576.69797,0.02128
575.73359,0.02120
574.76922,0.02115
573.80484,0.02115
572.84046,0.02118
571.87608,0.02126
570.91171,0.02132
569.94733,0.02134
568.98295,0.02127
568.01857,0.02109
567.05419,0.02091
566.08982,0.02082
565.12544,0.02091
564.16106,0.02108
563.19668,0.02124
562.23230,0.02138
561.26793,0.02151
560.30355,0.02167
559.33917,0.02174
558.37479,0.02163
557.41041,0.02140
556.44604,0.02116
555.48166,0.02098
554.51728,0.02092
553.55290,0.02095
552.58853,0.02096
551.62415,0.02093
550.65977,0.02089
549.69539,0.02094
548.73101,0.02102
547.76664,0.02108
546.80226,0.02105
545.83788,0.02101
544.87350,0.02106
543.90912,0.02119
542.94475,0.02131
541.98037,0.02130
541.01599,0.02122
540.05161,0.02116
539.08724,0.02109
538.12286,0.02103
537.15848,0.02096
536.19410,0.02088
535.22972,0.02077
534.26535,0.02070
533.30097,0.02076
532.33659,0.02088
531.37221,0.02091
530.40783,0.02081
529.44346,0.02071
528.47908,0.02060
527.51470,0.02047
526.55032,0.02038
525.58594,0.02040
524.62157,0.02049
523.65719,0.02062
522.69281,0.02078
521.72843,0.02093
520.76406,0.02104
519.79968,0.02111
518.83530,0.02112
517.87092,0.02107
516.90654,0.02099
515.94217,0.02094
514.97779,0.02087
514.01341,0.02082
513.04903,0.02086
512.08465,0.02095
511.12028,0.02106
510.15590,0.02115
509.19152,0.02120
508.22714,0.02121
507.26276,0.02118
506.29839,0.02110
505.33401,0.02103
504.36963,0.02105
503.40525,0.02100
502.44088,0.02092
501.47650,0.02088
500.51212,0.02087
499.54774,0.02092
498.58336,0.02096
497.61899,0.02093
496.65461,0.02083
495.69023,0.02068
494.72585,0.02050
493.76147,0.02042
492.79710,0.02053
491.83272,0.02052
490.86834,0.02037
489.90396,0.02026
488.93959,0.02024
487.97521,0.02034
487.01083,0.02046
486.04645,0.02048
485.08207,0.02043
484.11770,0.02037
483.15332,0.02037
482.18894,0.02051
481.22456,0.02062
480.26018,0.02053
479.29581,0.02040
478.33143,0.02034
477.36705,0.02030
476.40267,0.02034
475.43829,0.02046
474.47392,0.02053
473.50954,0.02051
472.54516,0.02048
471.58078,0.02050
470.61641,0.02050
469.65203,0.02040
468.68765,0.02028
467.72327,0.02021
466.75889,0.02018
465.79452,0.02017
464.83014,0.02020
463.86576,0.02036
462.90138,0.02054
461.93700,0.02061
460.97263,0.02063
460.00825,0.02056
459.04387,0.02041
458.07949,0.02025
457.11512,0.02008
456.15074,0.01994
455.18636,0.01988
454.22198,0.01984
453.25760,0.01979
452.29323,0.01986
451.32885,0.02005
450.36447,0.02017
449.40009,0.02015
448.43571,0.02008
447.47134,0.02005
446.50696,0.02004
445.54258,0.01995
444.57820,0.01984
443.61382,0.01977
442.64945,0.01966
441.68507,0.01954
440.72069,0.01949
439.75631,0.01950
438.79194,0.01949
437.82756,0.01947
436.86318,0.01952
435.89880,0.01960
434.93442,0.01966
433.97005,0.01965
433.00567,0.01958
432.04129,0.01946
431.07691,0.01931
430.11253,0.01916
429.14816,0.01902
428.18378,0.01889
427.21940,0.01877
426.25502,0.01862
425.29065,0.01853
424.32627,0.01850
423.36189,0.01855
422.39751,0.01865
421.43313,0.01878
420.46876,0.01893
419.50438,0.01905
418.54000,0.01908
417.57562,0.01903
416.61124,0.01891
415.64687,0.01872
414.68249,0.01852
413.71811,0.01841
412.75373,0.01833
411.78935,0.01830
410.82498,0.01833
409.86060,0.01837
408.89622,0.01844
407.93184,0.01846
406.96747,0.01842
406.00309,0.01834
405.03871,0.01827
404.07433,0.01827
403.10995,0.01827
402.14558,0.01827
401.18120,0.01827
400.21682,0.01827
399.25244,0.01827
