3998.31069,0.00021
3997.34631,0.00021
3996.38194,0.00021
3995.41756,0.00021
3994.45318,0.00021
3993.48880,0.00021
3992.52442,0.00021
3991.56005,0.00017
3990.59567,0.00014
3989.63129,0.00012
3988.66691,0.00013
3987.70253,0.00013
3986.73816,0.00013
3985.77378,0.00019
3984.80940,0.00028
3983.84502,0.00038
3982.88065,0.00041
3981.91627,0.00035
3980.95189,0.00026
3979.98751,0.00023
3979.02313,0.00021
3978.05876,0.00016
3977.09438,0.00007
3976.13000,-0.00002
3975.16562,-0.00007
3974.20124,-0.00008
3973.23687,-0.00006
3972.27249,-0.00003
3971.30811,0.00002
3970.34373,0.00009
3969.37935,0.00009
3968.41498,0.00008
3967.45060,0.00008
3966.48622,0.00002
3965.52184,-0.00007
3964.55747,-0.00010
3963.59309,-0.00010
3962.62871,-0.00009
3961.66433,-0.00005
3960.69995,0.00001
3959.73558,0.00011
3958.77120,0.00019
3957.80682,0.00018
3956.84244,0.00023
3955.87806,0.00031
3954.91369,0.00034
3953.94931,0.00038
3952.98493,0.00038
3952.02055,0.00034
3951.05618,0.00027
3950.09180,0.00016
3949.12742,0.00002
3948.16304,-0.00011
3947.19866,-0.00018
3946.23429,-0.00021
3945.26991,-0.00014
3944.30553,-0.00005
3943.34115,0.00004
3942.37677,0.00015
3941.41240,0.00023
3940.44802,0.00026
3939.48364,0.00027
3938.51926,0.00025
3937.55488,0.00019
3936.59051,0.00014
3935.62613,0.00013
3934.66175,0.00012
3933.69737,0.00010
3932.73300,0.00011
3931.76862,0.00007
3930.80424,-0.00001
3929.83986,-0.00005
3928.87548,-0.00002
3927.91111,0.00005
3926.94673,0.00010
3925.98235,0.00011
3925.01797,0.00013
3924.05359,0.00017
3923.08922,0.00023
3922.12484,0.00030
3921.16046,0.00031
3920.19608,0.00026
3919.23171,0.00018
3918.26733,0.00016
3917.30295,0.00015
3916.33857,0.00015
3915.37419,0.00017
3914.40982,0.00018
3913.44544,0.00015
3912.48106,0.00014
3911.51668,0.00017
3910.55230,0.00023
3909.58793,0.00028
3908.62355,0.00030
3907.65917,0.00031
3906.69479,0.00036
3905.73041,0.00043
3904.76604,0.00053
3903.80166,0.00063
3902.83728,0.00066
3901.87290,0.00062
3900.90853,0.00054
3899.94415,0.00048
3898.97977,0.00044
3898.01539,0.00034
3897.05101,0.00024
3896.08664,0.00018
3895.12226,0.00015
3894.15788,0.00016
3893.19350,0.00018
3892.22912,0.00020
3891.26475,0.00023
3890.30037,0.00027
3889.33599,0.00030
3888.37161,0.00032
3887.40724,0.00031
3886.44286,0.00029
3885.47848,0.00030
3884.51410,0.00030
3883.54972,0.00026
3882.58535,0.00026
3881.62097,0.00025
3880.65659,0.00022
3879.69221,0.00021
3878.72783,0.00021
3877.76346,0.00019
3876.79908,0.00016
3875.83470,0.00011
3874.87032,0.00010
3873.90594,0.00012
3872.94157,0.00012
3871.97719,0.00013
3871.01281,0.00015
3870.04843,0.00019
3869.08406,0.00024
3868.11968,0.00033
3867.15530,0.00038
3866.19092,0.00039
3865.22654,0.00042
3864.26217,0.00044
3863.29779,0.00044
3862.33341,0.00041
3861.36903,0.00040
3860.40465,0.00042
3859.44028,0.00047
3858.47590,0.00052
3857.51152,0.00050
3856.54714,0.00042
3855.58276,0.00034
3854.61839,0.00031
3853.65401,0.00032
3852.68963,0.00033
3851.72525,0.00036
3850.76088,0.00041
3849.79650,0.00049
3848.83212,0.00058
3847.86774,0.00063
3846.90336,0.00059
3845.93899,0.00049
3844.97461,0.00041
3844.01023,0.00039
3843.04585,0.00036
3842.08147,0.00032
3841.11710,0.00032
3840.15272,0.00037
3839.18834,0.00042
3838.22396,0.00042
3837.25959,0.00036
3836.29521,0.00025
3835.33083,0.00019
3834.36645,0.00017
3833.40207,0.00018
3832.43770,0.00018
3831.47332,0.00017
3830.50894,0.00021
3829.54456,0.00031
3828.58018,0.00040
3827.61581,0.00042
3826.65143,0.00038
3825.68705,0.00035
3824.72267,0.00037
3823.75829,0.00041
3822.79392,0.00041
3821.82954,0.00039
3820.86516,0.00041
3819.90078,0.00041
3818.93641,0.00038
3817.97203,0.00033
3817.00765,0.00031
3816.04327,0.00031
3815.07889,0.00032
3814.11452,0.00036
3813.15014,0.00039
3812.18576,0.00041
3811.22138,0.00044
3810.25700,0.00049
3809.29263,0.00054
3808.32825,0.00050
3807.36387,0.00045
3806.39949,0.00043
3805.43512,0.00045
3804.47074,0.00053
3803.50636,0.00061
3802.54198,0.00062
3801.57760,0.00058
3800.61323,0.00056
3799.64885,0.00056
3798.68447,0.00053
3797.72009,0.00048
3796.75571,0.00040
3795.79134,0.00033
3794.82696,0.00030
3793.86258,0.00030
3792.89820,0.00035
3791.93382,0.00041
3790.96945,0.00042
3790.00507,0.00039
3789.04069,0.00039
3788.07631,0.00043
3787.11194,0.00047
3786.14756,0.00049
3785.18318,0.00048
3784.21880,0.00043
3783.25442,0.00038
3782.29005,0.00034
3781.32567,0.00034
3780.36129,0.00032
3779.39691,0.00026
3778.43253,0.00021
3777.46816,0.00020
3776.50378,0.00025
3775.53940,0.00030
3774.57502,0.00031
3773.61065,0.00029
3772.64627,0.00024
3771.68189,0.00020
3770.71751,0.00022
3769.75313,0.00022
3768.78876,0.00016
3767.82438,0.00013
3766.86000,0.00016
3765.89562,0.00021
3764.93124,0.00030
3763.96687,0.00041
3763.00249,0.00049
3762.03811,0.00056
3761.07373,0.00062
3760.10935,0.00069
3759.14498,0.00074
3758.18060,0.00076
3757.21622,0.00076
3756.25184,0.00073
3755.28747,0.00066
3754.32309,0.00058
3753.35871,0.00055
3752.39433,0.00052
3751.42995,0.00041
3750.46558,0.00027
3749.50120,0.00024
3748.53682,0.00027
3747.57244,0.00035
3746.60806,0.00042
3745.64369,0.00045
3744.67931,0.00040
3743.71493,0.00033
3742.75055,0.00033
3741.78618,0.00038
3740.82180,0.00044
3739.85742,0.00044
3738.89304,0.00043
3737.92866,0.00049
3736.96429,0.00055
3735.99991,0.00060
3735.03553,0.00063
3734.07115,0.00061
3733.10677,0.00053
3732.14240,0.00045
3731.17802,0.00043
3730.21364,0.00043
3729.24926,0.00043
3728.28488,0.00042
3727.32051,0.00041
3726.35613,0.00041
3725.39175,0.00041
3724.42737,0.00050
3723.46300,0.00062
3722.49862,0.00063
3721.53424,0.00058
3720.56986,0.00058
3719.60548,0.00062
3718.64111,0.00065
3717.67673,0.00067
3716.71235,0.00065
3715.74797,0.00061
3714.78359,0.00051
3713.81922,0.00039
3712.85484,0.00033
3711.89046,0.00028
3710.92608,0.00017
3709.96171,0.00009
3708.99733,0.00007
3708.03295,0.00011
3707.06857,0.00019
3706.10419,0.00030
3705.13982,0.00038
3704.17544,0.00044
3703.21106,0.00047
3702.24668,0.00048
3701.28230,0.00056
3700.31793,0.00065
3699.35355,0.00071
3698.38917,0.00067
3697.42479,0.00053
3696.46041,0.00046
3695.49604,0.00047
3694.53166,0.00048
3693.56728,0.00050
3692.60290,0.00053
3691.63853,0.00057
3690.67415,0.00059
3689.70977,0.00060
3688.74539,0.00059
3687.78101,0.00059
3686.81664,0.00053
3685.85226,0.00043
3684.88788,0.00043
3683.92350,0.00049
3682.95912,0.00048
3681.99475,0.00045
3681.03037,0.00046
3680.06599,0.00050
3679.10161,0.00049
3678.13724,0.00043
3677.17286,0.00038
3676.20848,0.00037
3675.24410,0.00038
3674.27972,0.00044
3673.31535,0.00058
3672.35097,0.00072
3671.38659,0.00075
3670.42221,0.00075
3669.45783,0.00079
3668.49346,0.00078
3667.52908,0.00065
3666.56470,0.00053
3665.60032,0.00047
3664.63594,0.00047
3663.67157,0.00053
3662.70719,0.00058
3661.74281,0.00061
3660.77843,0.00060
3659.81406,0.00062
3658.84968,0.00066
3657.88530,0.00063
3656.92092,0.00055
3655.95654,0.00045
3654.99217,0.00045
3654.02779,0.00052
3653.06341,0.00062
3652.09903,0.00072
3651.13465,0.00077
3650.17028,0.00076
3649.20590,0.00079
3648.24152,0.00089
3647.27714,0.00093
3646.31276,0.00090
3645.34839,0.00086
3644.38401,0.00081
3643.41963,0.00074
3642.45525,0.00072
3641.49088,0.00074
3640.52650,0.00074
3639.56212,0.00069
3638.59774,0.00063
3637.63336,0.00064
3636.66899,0.00066
3635.70461,0.00064
3634.74023,0.00066
3633.77585,0.00077
3632.81147,0.00085
3631.84710,0.00089
3630.88272,0.00100
3629.91834,0.00115
3628.95396,0.00119
3627.98959,0.00119
3627.02521,0.00118
3626.06083,0.00117
3625.09645,0.00113
3624.13207,0.00108
3623.16770,0.00103
3622.20332,0.00097
3621.23894,0.00090
3620.27456,0.00082
3619.31018,0.00088
3618.34581,0.00096
3617.38143,0.00096
3616.41705,0.00098
3615.45267,0.00102
3614.48829,0.00107
3613.52392,0.00109
3612.55954,0.00109
3611.59516,0.00108
3610.63078,0.00106
3609.66641,0.00105
3608.70203,0.00104
3607.73765,0.00107
3606.77327,0.00104
3605.80889,0.00096
3604.84452,0.00094
3603.88014,0.00100
3602.91576,0.00112
3601.95138,0.00125
3600.98700,0.00138
3600.02263,0.00149
3599.05825,0.00155
3598.09387,0.00160
3597.12949,0.00166
3596.16512,0.00166
3595.20074,0.00156
3594.23636,0.00143
3593.27198,0.00133
3592.30760,0.00127
3591.34323,0.00124
3590.37885,0.00120
3589.41447,0.00114
3588.45009,0.00109
3587.48571,0.00108
3586.52134,0.00113
3585.55696,0.00120
3584.59258,0.00128
3583.62820,0.00132
3582.66382,0.00133
3581.69945,0.00135
3580.73507,0.00141
3579.77069,0.00150
3578.80631,0.00154
3577.84194,0.00154
3576.87756,0.00150
3575.91318,0.00147
3574.94880,0.00144
3573.98442,0.00142
3573.02005,0.00139
3572.05567,0.00137
3571.09129,0.00138
3570.12691,0.00145
3569.16253,0.00154
3568.19816,0.00159
3567.23378,0.00167
3566.26940,0.00179
3565.30502,0.00188
3564.34065,0.00198
3563.37627,0.00204
3562.41189,0.00205
3561.44751,0.00199
3560.48313,0.00191
3559.51876,0.00183
3558.55438,0.00170
3557.59000,0.00152
3556.62562,0.00140
3555.66124,0.00137
3554.69687,0.00139
3553.73249,0.00145
3552.76811,0.00155
3551.80373,0.00164
3550.83935,0.00169
3549.87498,0.00163
3548.91060,0.00158
3547.94622,0.00157
3546.98184,0.00151
3546.01747,0.00143
3545.05309,0.00137
3544.08871,0.00131
3543.12433,0.00131
3542.15995,0.00143
3541.19558,0.00158
3540.23120,0.00170
3539.26682,0.00177
3538.30244,0.00180
3537.33806,0.00191
3536.37369,0.00198
3535.40931,0.00198
3534.44493,0.00193
3533.48055,0.00181
3532.51618,0.00170
3531.55180,0.00169
3530.58742,0.00175
3529.62304,0.00179
3528.65866,0.00179
3527.69429,0.00180
3526.72991,0.00184
3525.76553,0.00186
3524.80115,0.00179
3523.83677,0.00170
3522.87240,0.00162
3521.90802,0.00153
3520.94364,0.00154
3519.97926,0.00160
3519.01488,0.00166
3518.05051,0.00172
3517.08613,0.00180
3516.12175,0.00193
3515.15737,0.00205
3514.19300,0.00210
3513.22862,0.00210
3512.26424,0.00210
3511.29986,0.00211
3510.33548,0.00209
3509.37111,0.00206
3508.40673,0.00204
3507.44235,0.00200
3506.47797,0.00198
3505.51359,0.00197
3504.54922,0.00198
3503.58484,0.00200
3502.62046,0.00202
3501.65608,0.00204
3500.69171,0.00205
3499.72733,0.00206
3498.76295,0.00205
3497.79857,0.00205
3496.83419,0.00208
3495.86982,0.00210
3494.90544,0.00214
3493.94106,0.00218
3492.97668,0.00219
3492.01230,0.00221
3491.04793,0.00221
3490.08355,0.00222
3489.11917,0.00226
3488.15479,0.00227
3487.19041,0.00225
3486.22604,0.00224
3485.26166,0.00219
3484.29728,0.00214
3483.33290,0.00210
3482.36853,0.00201
3481.40415,0.00190
3480.43977,0.00185
3479.47539,0.00182
3478.51101,0.00180
3477.54664,0.00185
3476.58226,0.00192
3475.61788,0.00201
3474.65350,0.00210
3473.68912,0.00215
3472.72475,0.00222
3471.76037,0.00227
3470.79599,0.00229
3469.83161,0.00230
3468.86724,0.00230
3467.90286,0.00226
3466.93848,0.00224
3465.97410,0.00231
3465.00972,0.00233
3464.04535,0.00232
3463.08097,0.00235
3462.11659,0.00238
3461.15221,0.00242
3460.18783,0.00249
3459.22346,0.00254
3458.25908,0.00253
3457.29470,0.00248
3456.33032,0.00246
3455.36594,0.00248
3454.40157,0.00249
3453.43719,0.00242
3452.47281,0.00239
3451.50843,0.00242
3450.54406,0.00246
3449.57968,0.00253
3448.61530,0.00259
3447.65092,0.00259
3446.68654,0.00256
3445.72217,0.00254
3444.75779,0.00256
3443.79341,0.00260
3442.82903,0.00261
3441.86465,0.00260
3440.90028,0.00266
3439.93590,0.00272
3438.97152,0.00273
3438.00714,0.00268
3437.04276,0.00265
3436.07839,0.00262
3435.11401,0.00254
3434.14963,0.00248
3433.18525,0.00248
3432.22088,0.00248
3431.25650,0.00247
3430.29212,0.00251
3429.32774,0.00259
3428.36336,0.00265
3427.39899,0.00270
3426.43461,0.00273
3425.47023,0.00275
3424.50585,0.00271
3423.54147,0.00261
3422.57710,0.00256
3421.61272,0.00253
3420.64834,0.00247
3419.68396,0.00242
3418.71959,0.00243
3417.75521,0.00249
3416.79083,0.00259
3415.82645,0.00267
3414.86207,0.00265
3413.89770,0.00263
3412.93332,0.00259
3411.96894,0.00255
3411.00456,0.00249
3410.04018,0.00243
3409.07581,0.00241
3408.11143,0.00241
3407.14705,0.00245
3406.18267,0.00253
3405.21829,0.00263
3404.25392,0.00271
3403.28954,0.00276
3402.32516,0.00280
3401.36078,0.00279
3400.39641,0.00274
3399.43203,0.00269
3398.46765,0.00266
3397.50327,0.00265
3396.53889,0.00264
3395.57452,0.00265
3394.61014,0.00265
3393.64576,0.00270
3392.68138,0.00280
3391.71700,0.00288
3390.75263,0.00292
3389.78825,0.00296
3388.82387,0.00301
3387.85949,0.00303
3386.89512,0.00303
3385.93074,0.00299
3384.96636,0.00290
3384.00198,0.00280
3383.03760,0.00272
3382.07323,0.00271
3381.10885,0.00275
3380.14447,0.00281
3379.18009,0.00286
3378.21571,0.00292
3377.25134,0.00294
3376.28696,0.00295
3375.32258,0.00295
3374.35820,0.00290
3373.39382,0.00283
3372.42945,0.00279
3371.46507,0.00276
3370.50069,0.00275
3369.53631,0.00275
3368.57194,0.00274
3367.60756,0.00270
3366.64318,0.00266
3365.67880,0.00263
3364.71442,0.00261
3363.75005,0.00261
3362.78567,0.00263
3361.82129,0.00268
3360.85691,0.00271
3359.89253,0.00273
3358.92816,0.00272
3357.96378,0.00270
3356.99940,0.00270
3356.03502,0.00269
3355.07065,0.00270
3354.10627,0.00274
3353.14189,0.00275
3352.17751,0.00278
3351.21313,0.00284
3350.24876,0.00289
3349.28438,0.00291
3348.32000,0.00292
3347.35562,0.00293
3346.39124,0.00294
3345.42687,0.00296
3344.46249,0.00295
3343.49811,0.00292
3342.53373,0.00289
3341.56935,0.00287
3340.60498,0.00286
3339.64060,0.00284
3338.67622,0.00281
3337.71184,0.00278
3336.74747,0.00278
3335.78309,0.00279
3334.81871,0.00279
3333.85433,0.00278
3332.88995,0.00276
3331.92558,0.00273
3330.96120,0.00272
3329.99682,0.00272
3329.03244,0.00270
3328.06806,0.00265
3327.10369,0.00257
3326.13931,0.00251
3325.17493,0.00251
3324.21055,0.00255
3323.24618,0.00261
3322.28180,0.00268
3321.31742,0.00271
3320.35304,0.00273
3319.38866,0.00275
3318.42429,0.00277
3317.45991,0.00279
3316.49553,0.00277
3315.53115,0.00270
3314.56677,0.00266
3313.60240,0.00267
3312.63802,0.00272
3311.67364,0.00276
3310.70926,0.00277
3309.74488,0.00277
3308.78051,0.00279
3307.81613,0.00285
3306.85175,0.00291
3305.88737,0.00294
3304.92300,0.00291
3303.95862,0.00281
3302.99424,0.00270
3302.02986,0.00258
3301.06548,0.00249
3300.10111,0.00242
3299.13673,0.00237
3298.17235,0.00234
3297.20797,0.00235
3296.24359,0.00241
3295.27922,0.00250
3294.31484,0.00262
3293.35046,0.00267
3292.38608,0.00269
3291.42171,0.00271
3290.45733,0.00270
3289.49295,0.00270
3288.52857,0.00271
3287.56419,0.00268
3286.59982,0.00260
3285.63544,0.00253
3284.67106,0.00252
3283.70668,0.00253
3282.74230,0.00252
3281.77793,0.00251
3280.81355,0.00255
3279.84917,0.00262
3278.88479,0.00265
3277.92041,0.00266
3276.95604,0.00265
3275.99166,0.00261
3275.02728,0.00254
3274.06290,0.00250
3273.09853,0.00248
3272.13415,0.00238
3271.16977,0.00230
3270.20539,0.00230
3269.24101,0.00235
3268.27664,0.00241
3267.31226,0.00246
3266.34788,0.00250
3265.38350,0.00256
3264.41912,0.00262
3263.45475,0.00266
3262.49037,0.00269
3261.52599,0.00267
3260.56161,0.00264
3259.59724,0.00262
3258.63286,0.00260
3257.66848,0.00257
3256.70410,0.00252
3255.73972,0.00248
3254.77535,0.00243
3253.81097,0.00242
3252.84659,0.00243
3251.88221,0.00244
3250.91783,0.00248
3249.95346,0.00254
3248.98908,0.00260
3248.02470,0.00262
3247.06032,0.00261
3246.09594,0.00258
3245.13157,0.00250
3244.16719,0.00244
3243.20281,0.00236
3242.23843,0.00227
3241.27406,0.00227
3240.30968,0.00230
3239.34530,0.00235
3238.38092,0.00234
3237.41654,0.00227
3236.45217,0.00220
3235.48779,0.00219
3234.52341,0.00221
3233.55903,0.00224
3232.59465,0.00228
3231.63028,0.00228
3230.66590,0.00229
3229.70152,0.00239
3228.73714,0.00251
3227.77276,0.00259
3226.80839,0.00261
3225.84401,0.00259
3224.87963,0.00257
3223.91525,0.00257
3222.95088,0.00253
3221.98650,0.00243
3221.02212,0.00235
3220.05774,0.00229
3219.09336,0.00227
3218.12899,0.00230
3217.16461,0.00230
3216.20023,0.00233
3215.23585,0.00236
3214.27147,0.00234
3213.30710,0.00233
3212.34272,0.00235
3211.37834,0.00232
3210.41396,0.00230
3209.44959,0.00232
3208.48521,0.00234
3207.52083,0.00240
3206.55645,0.00242
3205.59207,0.00240
3204.62770,0.00241
3203.66332,0.00240
3202.69894,0.00237
3201.73456,0.00239
3200.77018,0.00241
3199.80581,0.00241
3198.84143,0.00239
3197.87705,0.00236
3196.91267,0.00232
3195.94829,0.00230
3194.98392,0.00229
3194.01954,0.00227
3193.05516,0.00227
3192.09078,0.00225
3191.12641,0.00224
3190.16203,0.00226
3189.19765,0.00230
3188.23327,0.00233
3187.26889,0.00231
3186.30452,0.00225
3185.34014,0.00216
3184.37576,0.00212
3183.41138,0.00211
3182.44700,0.00208
3181.48263,0.00207
3180.51825,0.00209
3179.55387,0.00215
3178.58949,0.00226
3177.62512,0.00237
3176.66074,0.00246
3175.69636,0.00248
3174.73198,0.00246
3173.76760,0.00241
3172.80323,0.00235
3171.83885,0.00228
3170.87447,0.00222
3169.91009,0.00219
3168.94571,0.00218
3167.98134,0.00215
3167.01696,0.00213
3166.05258,0.00212
3165.08820,0.00210
3164.12382,0.00205
3163.15945,0.00201
3162.19507,0.00198
3161.23069,0.00195
3160.26631,0.00193
3159.30194,0.00192
3158.33756,0.00192
3157.37318,0.00194
3156.40880,0.00197
3155.44442,0.00200
3154.48005,0.00199
3153.51567,0.00199
3152.55129,0.00201
3151.58691,0.00205
3150.62253,0.00211
3149.65816,0.00213
3148.69378,0.00210
3147.72940,0.00206
3146.76502,0.00207
3145.80065,0.00211
3144.83627,0.00212
3143.87189,0.00211
3142.90751,0.00207
3141.94313,0.00203
3140.97876,0.00201
3140.01438,0.00200
3139.05000,0.00199
3138.08562,0.00197
3137.12124,0.00193
3136.15687,0.00189
3135.19249,0.00186
3134.22811,0.00185
3133.26373,0.00188
3132.29935,0.00197
3131.33498,0.00203
3130.37060,0.00205
3129.40622,0.00206
3128.44184,0.00203
3127.47747,0.00202
3126.51309,0.00203
3125.54871,0.00201
3124.58433,0.00195
3123.61995,0.00192
3122.65558,0.00193
3121.69120,0.00197
3120.72682,0.00202
3119.76244,0.00200
3118.79806,0.00195
3117.83369,0.00190
3116.86931,0.00182
3115.90493,0.00181
3114.94055,0.00182
3113.97618,0.00181
3113.01180,0.00178
3112.04742,0.00180
3111.08304,0.00184
3110.11866,0.00187
3109.15429,0.00190
3108.18991,0.00190
3107.22553,0.00190
3106.26115,0.00189
3105.29677,0.00186
3104.33240,0.00184
3103.36802,0.00184
3102.40364,0.00179
3101.43926,0.00176
3100.47488,0.00177
3099.51051,0.00181
3098.54613,0.00185
3097.58175,0.00191
3096.61737,0.00197
3095.65300,0.00200
3094.68862,0.00200
3093.72424,0.00194
3092.75986,0.00188
3091.79548,0.00182
3090.83111,0.00175
3089.86673,0.00168
3088.90235,0.00164
3087.93797,0.00164
3086.97359,0.00168
3086.00922,0.00176
3085.04484,0.00186
3084.08046,0.00194
3083.11608,0.00201
3082.15171,0.00205
3081.18733,0.00208
3080.22295,0.00209
3079.25857,0.00207
3078.29419,0.00204
3077.32982,0.00199
3076.36544,0.00194
3075.40106,0.00188
3074.43668,0.00184
3073.47230,0.00180
3072.50793,0.00176
3071.54355,0.00176
3070.57917,0.00175
3069.61479,0.00172
3068.65041,0.00172
3067.68604,0.00174
3066.72166,0.00175
3065.75728,0.00174
3064.79290,0.00174
3063.82853,0.00176
3062.86415,0.00180
3061.89977,0.00183
3060.93539,0.00184
3059.97101,0.00182
3059.00664,0.00178
3058.04226,0.00178
3057.07788,0.00180
3056.11350,0.00179
3055.14912,0.00176
3054.18475,0.00175
3053.22037,0.00177
3052.25599,0.00178
3051.29161,0.00182
3050.32724,0.00187
3049.36286,0.00188
3048.39848,0.00188
3047.43410,0.00187
3046.46972,0.00188
3045.50535,0.00185
3044.54097,0.00179
3043.57659,0.00173
3042.61221,0.00172
3041.64783,0.00174
3040.68346,0.00175
3039.71908,0.00179
3038.75470,0.00186
3037.79032,0.00192
3036.82594,0.00193
3035.86157,0.00191
3034.89719,0.00189
3033.93281,0.00185
3032.96843,0.00179
3032.00406,0.00176
3031.03968,0.00179
3030.07530,0.00183
3029.11092,0.00184
3028.14654,0.00187
3027.18217,0.00192
3026.21779,0.00196
3025.25341,0.00196
3024.28903,0.00195
3023.32465,0.00192
3022.36028,0.00186
3021.39590,0.00181
3020.43152,0.00178
3019.46714,0.00179
3018.50276,0.00179
3017.53839,0.00177
3016.57401,0.00178
3015.60963,0.00180
3014.64525,0.00182
3013.68088,0.00182
3012.71650,0.00177
3011.75212,0.00173
3010.78774,0.00170
3009.82336,0.00169
3008.85899,0.00174
3007.89461,0.00181
3006.93023,0.00186
3005.96585,0.00190
3005.00147,0.00196
3004.03710,0.00203
3003.07272,0.00206
3002.10834,0.00204
3001.14396,0.00198
3000.17959,0.00193
2999.21521,0.00190
2998.25083,0.00188
2997.28645,0.00184
2996.32207,0.00180
2995.35770,0.00178
2994.39332,0.00178
2993.42894,0.00181
2992.46456,0.00186
2991.50018,0.00186
2990.53581,0.00181
2989.57143,0.00177
2988.60705,0.00175
2987.64267,0.00176
2986.67829,0.00174
2985.71392,0.00172
2984.74954,0.00174
2983.78516,0.00179
2982.82078,0.00184
2981.85641,0.00190
2980.89203,0.00192
2979.92765,0.00193
2978.96327,0.00194
2977.99889,0.00194
2977.03452,0.00194
2976.07014,0.00195
2975.10576,0.00195
2974.14138,0.00195
2973.17700,0.00197
2972.21263,0.00201
2971.24825,0.00205
2970.28387,0.00208
2969.31949,0.00211
2968.35512,0.00215
2967.39074,0.00222
2966.42636,0.00226
2965.46198,0.00230
2964.49760,0.00235
2963.53323,0.00237
2962.56885,0.00237
2961.60447,0.00237
2960.64009,0.00237
2959.67571,0.00236
2958.71134,0.00233
2957.74696,0.00230
2956.78258,0.00229
2955.81820,0.00229
2954.85382,0.00228
2953.88945,0.00228
2952.92507,0.00230
2951.96069,0.00229
2950.99631,0.00230
2950.03194,0.00233
2949.06756,0.00236
2948.10318,0.00238
2947.13880,0.00240
2946.17442,0.00242
2945.21005,0.00245
2944.24567,0.00247
2943.28129,0.00247
2942.31691,0.00245
2941.35253,0.00243
2940.38816,0.00242
2939.42378,0.00242
2938.45940,0.00245
2937.49502,0.00249
2936.53065,0.00256
2935.56627,0.00265
2934.60189,0.00278
2933.63751,0.00293
2932.67313,0.00307
2931.70876,0.00320
2930.74438,0.00332
2929.78000,0.00345
2928.81562,0.00356
2927.85124,0.00363
2926.88687,0.00367
2925.92249,0.00368
2924.95811,0.00368
2923.99373,0.00367
2923.02935,0.00367
2922.06498,0.00366
2921.10060,0.00363
2920.13622,0.00358
2919.17184,0.00351
2918.20747,0.00342
2917.24309,0.00332
2916.27871,0.00320
2915.31433,0.00305
2914.34995,0.00292
2913.38558,0.00282
2912.42120,0.00275
2911.45682,0.00271
2910.49244,0.00267
2909.52806,0.00262
2908.56369,0.00258
2907.59931,0.00256
2906.63493,0.00254
2905.67055,0.00251
2904.70618,0.00245
2903.74180,0.00238
2902.77742,0.00232
2901.81304,0.00229
2900.84866,0.00224
2899.88429,0.00219
2898.91991,0.00214
2897.95553,0.00211
2896.99115,0.00213
2896.02677,0.00216
2895.06240,0.00220
2894.09802,0.00223
2893.13364,0.00224
2892.16926,0.00224
2891.20488,0.00225
2890.24051,0.00226
2889.27613,0.00225
2888.31175,0.00222
2887.34737,0.00218
2886.38300,0.00214
2885.41862,0.00208
2884.45424,0.00202
2883.48986,0.00199
2882.52548,0.00199
2881.56111,0.00199
2880.59673,0.00198
2879.63235,0.00200
2878.66797,0.00202
2877.70359,0.00204
2876.73922,0.00206
2875.77484,0.00205
2874.81046,0.00201
2873.84608,0.00198
2872.88171,0.00196
2871.91733,0.00198
2870.95295,0.00202
2869.98857,0.00206
2869.02419,0.00209
2868.05982,0.00210
2867.09544,0.00209
2866.13106,0.00209
2865.16668,0.00212
2864.20230,0.00215
2863.23793,0.00221
2862.27355,0.00229
2861.30917,0.00237
2860.34479,0.00247
2859.38041,0.00256
2858.41604,0.00265
2857.45166,0.00270
2856.48728,0.00269
2855.52290,0.00269
2854.55853,0.00272
2853.59415,0.00276
2852.62977,0.00277
2851.66539,0.00275
2850.70101,0.00271
2849.73664,0.00267
2848.77226,0.00261
2847.80788,0.00251
2846.84350,0.00237
2845.87912,0.00222
2844.91475,0.00210
2843.95037,0.00202
2842.98599,0.00198
2842.02161,0.00197
2841.05724,0.00195
2840.09286,0.00194
2839.12848,0.00196
2838.16410,0.00196
2837.19972,0.00194
2836.23535,0.00191
2835.27097,0.00187
2834.30659,0.00185
2833.34221,0.00181
2832.37783,0.00178
2831.41346,0.00176
2830.44908,0.00177
2829.48470,0.00177
2828.52032,0.00177
2827.55594,0.00177
2826.59157,0.00176
2825.62719,0.00175
2824.66281,0.00175
2823.69843,0.00174
2822.73406,0.00174
2821.76968,0.00171
2820.80530,0.00169
2819.84092,0.00168
2818.87654,0.00168
2817.91217,0.00169
2816.94779,0.00169
2815.98341,0.00169
2815.01903,0.00170
2814.05465,0.00168
2813.09028,0.00166
2812.12590,0.00165
2811.16152,0.00165
2810.19714,0.00164
2809.23276,0.00166
2808.26839,0.00169
2807.30401,0.00171
2806.33963,0.00173
2805.37525,0.00173
2804.41088,0.00171
2803.44650,0.00168
2802.48212,0.00165
2801.51774,0.00164
2800.55336,0.00162
2799.58899,0.00161
2798.62461,0.00161
2797.66023,0.00163
2796.69585,0.00164
2795.73147,0.00164
2794.76710,0.00164
2793.80272,0.00163
2792.83834,0.00162
2791.87396,0.00163
2790.90959,0.00163
2789.94521,0.00161
2788.98083,0.00158
2788.01645,0.00155
2787.05207,0.00154
2786.08770,0.00153
2785.12332,0.00152
2784.15894,0.00152
2783.19456,0.00154
2782.23018,0.00155
2781.26581,0.00156
2780.30143,0.00158
2779.33705,0.00158
2778.37267,0.00157
2777.40829,0.00156
2776.44392,0.00157
2775.47954,0.00159
2774.51516,0.00161
2773.55078,0.00165
2772.58641,0.00168
2771.62203,0.00169
2770.65765,0.00170
2769.69327,0.00170
2768.72889,0.00171
2767.76452,0.00169
2766.80014,0.00166
2765.83576,0.00162
2764.87138,0.00157
2763.90700,0.00153
2762.94263,0.00150
2761.97825,0.00149
2761.01387,0.00149
2760.04949,0.00148
2759.08512,0.00148
2758.12074,0.00150
2757.15636,0.00152
2756.19198,0.00155
2755.22760,0.00157
2754.26323,0.00159
2753.29885,0.00161
2752.33447,0.00163
2751.37009,0.00164
2750.40571,0.00166
2749.44134,0.00166
2748.47696,0.00162
2747.51258,0.00160
2746.54820,0.00159
2745.58382,0.00158
2744.61945,0.00158
2743.65507,0.00158
2742.69069,0.00159
2741.72631,0.00162
2740.76194,0.00165
2739.79756,0.00166
2738.83318,0.00163
2737.86880,0.00158
2736.90442,0.00154
2735.94005,0.00154
2734.97567,0.00156
2734.01129,0.00157
2733.04691,0.00159
2732.08253,0.00161
2731.11816,0.00163
2730.15378,0.00166
2729.18940,0.00167
2728.22502,0.00163
2727.26065,0.00157
2726.29627,0.00152
2725.33189,0.00150
2724.36751,0.00148
2723.40313,0.00147
2722.43876,0.00147
2721.47438,0.00149
2720.51000,0.00153
2719.54562,0.00156
2718.58124,0.00157
2717.61687,0.00155
2716.65249,0.00153
2715.68811,0.00151
2714.72373,0.00152
2713.75935,0.00151
2712.79498,0.00148
2711.83060,0.00145
2710.86622,0.00143
2709.90184,0.00145
2708.93747,0.00146
2707.97309,0.00147
2707.00871,0.00148
2706.04433,0.00147
2705.07995,0.00148
2704.11558,0.00151
2703.15120,0.00154
2702.18682,0.00153
2701.22244,0.00151
2700.25806,0.00150
2699.29369,0.00148
2698.32931,0.00147
2697.36493,0.00147
2696.40055,0.00149
2695.43618,0.00151
2694.47180,0.00151
2693.50742,0.00152
2692.54304,0.00154
2691.57866,0.00154
2690.61429,0.00153
2689.64991,0.00154
2688.68553,0.00155
2687.72115,0.00157
2686.75677,0.00159
2685.79240,0.00160
2684.82802,0.00163
2683.86364,0.00163
2682.89926,0.00162
2681.93488,0.00159
2680.97051,0.00155
2680.00613,0.00153
2679.04175,0.00151
2678.07737,0.00148
2677.11300,0.00146
2676.14862,0.00146
2675.18424,0.00147
2674.21986,0.00149
2673.25548,0.00150
2672.29111,0.00151
2671.32673,0.00149
2670.36235,0.00147
2669.39797,0.00147
2668.43359,0.00147
2667.46922,0.00144
2666.50484,0.00142
2665.54046,0.00140
2664.57608,0.00141
2663.61171,0.00144
2662.64733,0.00146
2661.68295,0.00147
2660.71857,0.00147
2659.75419,0.00149
2658.78982,0.00152
2657.82544,0.00153
2656.86106,0.00151
2655.89668,0.00148
2654.93230,0.00148
2653.96793,0.00150
2653.00355,0.00152
2652.03917,0.00154
2651.07479,0.00155
2650.11041,0.00156
2649.14604,0.00158
2648.18166,0.00163
2647.21728,0.00165
2646.25290,0.00163
2645.28853,0.00159
2644.32415,0.00158
2643.35977,0.00158
2642.39539,0.00157
2641.43101,0.00155
2640.46664,0.00154
2639.50226,0.00154
2638.53788,0.00152
2637.57350,0.00151
2636.60912,0.00150
2635.64475,0.00148
2634.68037,0.00144
2633.71599,0.00139
2632.75161,0.00133
2631.78724,0.00127
2630.82286,0.00125
2629.85848,0.00124
2628.89410,0.00124
2627.92972,0.00126
2626.96535,0.00129
2626.00097,0.00135
2625.03659,0.00143
2624.07221,0.00151
2623.10783,0.00152
2622.14346,0.00147
2621.17908,0.00141
2620.21470,0.00135
2619.25032,0.00130
2618.28594,0.00125
2617.32157,0.00121
2616.35719,0.00124
2615.39281,0.00133
2614.42843,0.00145
2613.46406,0.00156
2612.49968,0.00161
2611.53530,0.00158
2610.57092,0.00152
2609.60654,0.00150
2608.64217,0.00146
2607.67779,0.00142
2606.71341,0.00137
2605.74903,0.00134
2604.78465,0.00131
2603.82028,0.00127
2602.85590,0.00128
2601.89152,0.00132
2600.92714,0.00137
2599.96276,0.00140
2598.99839,0.00143
2598.03401,0.00148
2597.06963,0.00151
2596.10525,0.00152
2595.14088,0.00150
2594.17650,0.00146
2593.21212,0.00141
2592.24774,0.00136
2591.28336,0.00136
2590.31899,0.00137
2589.35461,0.00137
2588.39023,0.00136
2587.42585,0.00132
2586.46147,0.00132
2585.49710,0.00136
2584.53272,0.00139
2583.56834,0.00137
2582.60396,0.00136
2581.63959,0.00134
2580.67521,0.00134
2579.71083,0.00133
2578.74645,0.00131
2577.78207,0.00131
2576.81770,0.00130
2575.85332,0.00130
2574.88894,0.00134
2573.92456,0.00139
2572.96018,0.00138
2571.99581,0.00134
2571.03143,0.00134
2570.06705,0.00136
2569.10267,0.00140
2568.13829,0.00147
2567.17392,0.00152
2566.20954,0.00153
2565.24516,0.00151
2564.28078,0.00151
2563.31641,0.00150
2562.35203,0.00148
2561.38765,0.00145
2560.42327,0.00145
2559.45889,0.00147
2558.49452,0.00148
2557.53014,0.00148
2556.56576,0.00145
2555.60138,0.00138
2554.63700,0.00135
2553.67263,0.00134
2552.70825,0.00130
2551.74387,0.00124
2550.77949,0.00125
2549.81512,0.00129
2548.85074,0.00132
2547.88636,0.00135
2546.92198,0.00137
2545.95760,0.00135
2544.99323,0.00130
2544.02885,0.00127
2543.06447,0.00126
2542.10009,0.00122
2541.13571,0.00115
2540.17134,0.00113
2539.20696,0.00119
2538.24258,0.00123
2537.27820,0.00126
2536.31382,0.00133
2535.34945,0.00140
2534.38507,0.00147
2533.42069,0.00147
2532.45631,0.00144
2531.49194,0.00142
2530.52756,0.00140
2529.56318,0.00139
2528.59880,0.00140
2527.63442,0.00140
2526.67005,0.00135
2525.70567,0.00132
2524.74129,0.00134
2523.77691,0.00137
2522.81253,0.00138
2521.84816,0.00134
2520.88378,0.00135
2519.91940,0.00141
2518.95502,0.00143
2517.99065,0.00144
2517.02627,0.00144
2516.06189,0.00139
2515.09751,0.00134
2514.13313,0.00133
2513.16876,0.00132
2512.20438,0.00133
2511.24000,0.00136
2510.27562,0.00137
2509.31124,0.00144
2508.34687,0.00146
2507.38249,0.00138
2506.41811,0.00128
2505.45373,0.00123
2504.48935,0.00121
2503.52498,0.00122
2502.56060,0.00121
2501.59622,0.00120
2500.63184,0.00123
2499.66747,0.00127
2498.70309,0.00132
2497.73871,0.00137
2496.77433,0.00136
2495.80995,0.00134
2494.84558,0.00136
2493.88120,0.00141
2492.91682,0.00144
2491.95244,0.00140
2490.98806,0.00138
2490.02369,0.00136
2489.05931,0.00135
2488.09493,0.00134
2487.13055,0.00130
2486.16618,0.00126
2485.20180,0.00129
2484.23742,0.00134
2483.27304,0.00136
2482.30866,0.00134
2481.34429,0.00130
2480.37991,0.00127
2479.41553,0.00128
2478.45115,0.00131
2477.48677,0.00133
2476.52240,0.00133
2475.55802,0.00129
2474.59364,0.00135
2473.62926,0.00146
2472.66488,0.00150
2471.70051,0.00148
2470.73613,0.00142
2469.77175,0.00138
2468.80737,0.00134
2467.84300,0.00129
2466.87862,0.00127
2465.91424,0.00124
2464.94986,0.00122
2463.98548,0.00125
2463.02111,0.00136
2462.05673,0.00141
2461.09235,0.00137
2460.12797,0.00134
2459.16359,0.00136
2458.19922,0.00140
2457.23484,0.00140
2456.27046,0.00139
2455.30608,0.00138
2454.34171,0.00138
2453.37733,0.00139
2452.41295,0.00140
2451.44857,0.00141
2450.48419,0.00136
2449.51982,0.00134
2448.55544,0.00142
2447.59106,0.00149
2446.62668,0.00153
2445.66230,0.00155
2444.69793,0.00151
2443.73355,0.00142
2442.76917,0.00131
2441.80479,0.00120
2440.84041,0.00114
2439.87604,0.00113
2438.91166,0.00114
2437.94728,0.00123
2436.98290,0.00133
2436.01853,0.00135
2435.05415,0.00130
2434.08977,0.00123
2433.12539,0.00113
2432.16101,0.00100
2431.19664,0.00091
2430.23226,0.00087
2429.26788,0.00089
2428.30350,0.00098
2427.33912,0.00108
2426.37475,0.00119
2425.41037,0.00125
2424.44599,0.00122
2423.48161,0.00122
2422.51724,0.00126
2421.55286,0.00128
2420.58848,0.00128
2419.62410,0.00130
2418.65972,0.00130
2417.69535,0.00129
2416.73097,0.00128
2415.76659,0.00124
2414.80221,0.00120
2413.83783,0.00113
2412.87346,0.00107
2411.90908,0.00110
2410.94470,0.00116
2409.98032,0.00121
2409.01594,0.00126
2408.05157,0.00130
2407.08719,0.00130
2406.12281,0.00133
2405.15843,0.00138
2404.19406,0.00141
2403.22968,0.00140
2402.26530,0.00134
2401.30092,0.00133
2400.33654,0.00137
2399.37217,0.00141
2398.40779,0.00142
2397.44341,0.00139
2396.47903,0.00138
2395.51465,0.00140
2394.55028,0.00146
2393.58590,0.00149
2392.62152,0.00147
2391.65714,0.00141
2390.69276,0.00135
2389.72839,0.00131
2388.76401,0.00129
2387.79963,0.00126
2386.83525,0.00125
2385.87088,0.00125
2384.90650,0.00127
2383.94212,0.00132
2382.97774,0.00136
2382.01336,0.00136
2381.04899,0.00135
2380.08461,0.00136
2379.12023,0.00137
2378.15585,0.00139
2377.19147,0.00142
2376.22710,0.00146
2375.26272,0.00149
2374.29834,0.00150
2373.33396,0.00147
2372.36959,0.00144
2371.40521,0.00142
2370.44083,0.00140
2369.47645,0.00140
2368.51207,0.00144
2367.54770,0.00151
2366.58332,0.00157
2365.61894,0.00164
2364.65456,0.00168
2363.69018,0.00170
2362.72581,0.00173
2361.76143,0.00175
2360.79705,0.00174
2359.83267,0.00171
2358.86829,0.00167
2357.90392,0.00165
2356.93954,0.00163
2355.97516,0.00164
2355.01078,0.00164
2354.04641,0.00159
2353.08203,0.00151
2352.11765,0.00148
2351.15327,0.00151
2350.18889,0.00150
2349.22452,0.00147
2348.26014,0.00145
2347.29576,0.00144
2346.33138,0.00146
2345.36700,0.00149
2344.40263,0.00151
2343.43825,0.00152
2342.47387,0.00150
2341.50949,0.00152
2340.54512,0.00156
2339.58074,0.00159
2338.61636,0.00158
2337.65198,0.00156
2336.68760,0.00157
2335.72323,0.00156
2334.75885,0.00156
2333.79447,0.00155
2332.83009,0.00153
2331.86571,0.00151
2330.90134,0.00149
2329.93696,0.00149
2328.97258,0.00149
2328.00820,0.00149
2327.04382,0.00148
2326.07945,0.00144
2325.11507,0.00140
2324.15069,0.00134
2323.18631,0.00129
2322.22194,0.00127
2321.25756,0.00127
2320.29318,0.00129
2319.32880,0.00128
2318.36442,0.00126
2317.40005,0.00125
2316.43567,0.00128
2315.47129,0.00129
2314.50691,0.00128
2313.54253,0.00126
2312.57816,0.00128
2311.61378,0.00131
2310.64940,0.00133
2309.68502,0.00136
2308.72065,0.00137
2307.75627,0.00132
2306.79189,0.00125
2305.82751,0.00121
2304.86313,0.00118
2303.89876,0.00116
2302.93438,0.00114
2301.97000,0.00117
2301.00562,0.00119
2300.04124,0.00117
2299.07687,0.00115
2298.11249,0.00120
2297.14811,0.00121
2296.18373,0.00116
2295.21935,0.00110
2294.25498,0.00107
2293.29060,0.00107
2292.32622,0.00108
2291.36184,0.00112
2290.39747,0.00117
2289.43309,0.00117
2288.46871,0.00117
2287.50433,0.00116
2286.53995,0.00115
2285.57558,0.00111
2284.61120,0.00111
2283.64682,0.00115
2282.68244,0.00118
2281.71806,0.00126
2280.75369,0.00135
2279.78931,0.00142
2278.82493,0.00147
2277.86055,0.00145
2276.89618,0.00145
2275.93180,0.00144
2274.96742,0.00138
2274.00304,0.00141
2273.03866,0.00147
2272.07429,0.00143
2271.10991,0.00133
2270.14553,0.00125
2269.18115,0.00123
2268.21677,0.00125
2267.25240,0.00118
2266.28802,0.00105
2265.32364,0.00097
2264.35926,0.00093
2263.39488,0.00093
2262.43051,0.00096
2261.46613,0.00093
2260.50175,0.00078
2259.53737,0.00063
2258.57300,0.00054
2257.60862,0.00052
2256.64424,0.00050
2255.67986,0.00046
2254.71548,0.00047
2253.75111,0.00053
2252.78673,0.00058
2251.82235,0.00058
2250.85797,0.00049
2249.89359,0.00035
2248.92922,0.00029
2247.96484,0.00029
2247.00046,0.00038
2246.03608,0.00052
2245.07171,0.00077
2244.10733,0.00120
2243.14295,0.00163
2242.17857,0.00181
2241.21419,0.00166
2240.24982,0.00143
2239.28544,0.00131
2238.32106,0.00123
2237.35668,0.00110
2236.39230,0.00089
2235.42793,0.00075
2234.46355,0.00077
2233.49917,0.00096
2232.53479,0.00116
2231.57041,0.00106
2230.60604,0.00069
2229.64166,0.00033
2228.67728,0.00037
2227.71290,0.00070
2226.74853,0.00086
2225.78415,0.00082
2224.81977,0.00082
2223.85539,0.00094
2222.89101,0.00099
2221.92664,0.00098
2220.96226,0.00086
2219.99788,0.00065
2219.03350,0.00054
2218.06912,0.00057
2217.10475,0.00078
2216.14037,0.00092
2215.17599,0.00083
2214.21161,0.00093
2213.24724,0.00130
2212.28286,0.00155
2211.31848,0.00138
2210.35410,0.00112
2209.38972,0.00100
2208.42535,0.00094
2207.46097,0.00093
2206.49659,0.00088
2205.53221,0.00085
2204.56783,0.00081
2203.60346,0.00088
2202.63908,0.00123
2201.67470,0.00164
2200.71032,0.00182
2199.74594,0.00174
2198.78157,0.00168
2197.81719,0.00167
2196.85281,0.00165
2195.88843,0.00164
2194.92406,0.00164
2193.95968,0.00163
2192.99530,0.00163
2192.03092,0.00162
2191.06654,0.00162
2190.10217,0.00161
2189.13779,0.00161
2188.17341,0.00160
2187.20903,0.00160
2186.24465,0.00160
2185.28028,0.00159
2184.31590,0.00159
2183.35152,0.00158
2182.38714,0.00158
2181.42276,0.00157
2180.45839,0.00157
2179.49401,0.00156
2178.52963,0.00156
2177.56525,0.00155
2176.60088,0.00155
2175.63650,0.00155
2174.67212,0.00154
2173.70774,0.00154
2172.74336,0.00153
2171.77899,0.00153
2170.81461,0.00152
2169.85023,0.00152
2168.88585,0.00151
2167.92147,0.00151
2166.95710,0.00151
2165.99272,0.00150
2165.02834,0.00150
2164.06396,0.00149
2163.09959,0.00149
2162.13521,0.00148
2161.17083,0.00148
2160.20645,0.00147
2159.24207,0.00147
2158.27770,0.00146
2157.31332,0.00146
2156.34894,0.00146
2155.38456,0.00145
2154.42018,0.00145
2153.45581,0.00144
2152.49143,0.00144
2151.52705,0.00143
2150.56267,0.00143
2149.59829,0.00142
2148.63392,0.00142
2147.66954,0.00141
2146.70516,0.00141
2145.74078,0.00141
2144.77641,0.00140
2143.81203,0.00140
2142.84765,0.00139
2141.88327,0.00139
2140.91889,0.00138
2139.95452,0.00138
2138.99014,0.00137
2138.02576,0.00137
2137.06138,0.00137
2136.09700,0.00136
2135.13263,0.00136
2134.16825,0.00135
2133.20387,0.00135
2132.23949,0.00134
2131.27512,0.00134
2130.31074,0.00133
2129.34636,0.00133
2128.38198,0.00132
2127.41760,0.00132
2126.45323,0.00132
2125.48885,0.00131
2124.52447,0.00131
2123.56009,0.00130
2122.59571,0.00130
2121.63134,0.00129
2120.66696,0.00129
2119.70258,0.00128
2118.73820,0.00128
2117.77382,0.00127
2116.80945,0.00127
2115.84507,0.00127
2114.88069,0.00126
2113.91631,0.00126
2112.95194,0.00125
2111.98756,0.00125
2111.02318,0.00124
2110.05880,0.00124
2109.09442,0.00123
2108.13005,0.00123
2107.16567,0.00123
2106.20129,0.00122
2105.23691,0.00122
2104.27253,0.00121
2103.30816,0.00121
2102.34378,0.00120
2101.37940,0.00120
2100.41502,0.00119
2099.45065,0.00119
2098.48627,0.00118
2097.52189,0.00118
2096.55751,0.00118
2095.59313,0.00117
2094.62876,0.00117
2093.66438,0.00116
2092.70000,0.00116
2091.73562,0.00115
2090.77124,0.00115
2089.80687,0.00114
2088.84249,0.00114
2087.87811,0.00113
2086.91373,0.00113
2085.94935,0.00113
2084.98498,0.00112
2084.02060,0.00112
2083.05622,0.00111
2082.09184,0.00111
2081.12747,0.00110
2080.16309,0.00110
2079.19871,0.00109
2078.23433,0.00109
2077.26995,0.00109
2076.30558,0.00108
2075.34120,0.00108
2074.37682,0.00107
2073.41244,0.00107
2072.44806,0.00106
2071.48369,0.00106
2070.51931,0.00105
2069.55493,0.00105
2068.59055,0.00104
2067.62618,0.00104
2066.66180,0.00104
2065.69742,0.00103
2064.73304,0.00103
2063.76866,0.00102
2062.80429,0.00102
2061.83991,0.00101
2060.87553,0.00101
2059.91115,0.00100
2058.94677,0.00100
2057.98240,0.00099
2057.01802,0.00099
2056.05364,0.00099
2055.08926,0.00098
2054.12488,0.00098
2053.16051,0.00097
2052.19613,0.00097
2051.23175,0.00096
2050.26737,0.00096
2049.30300,0.00095
2048.33862,0.00095
2047.37424,0.00095
2046.40986,0.00094
2045.44548,0.00094
2044.48111,0.00093
2043.51673,0.00093
2042.55235,0.00092
2041.58797,0.00092
2040.62359,0.00091
2039.65922,0.00091
2038.69484,0.00090
2037.73046,0.00090
2036.76608,0.00090
2035.80171,0.00089
2034.83733,0.00089
2033.87295,0.00088
2032.90857,0.00088
2031.94419,0.00087
2030.97982,0.00087
2030.01544,0.00086
2029.05106,0.00086
2028.08668,0.00085
2027.12230,0.00085
2026.15793,0.00085
2025.19355,0.00084
2024.22917,0.00084
2023.26479,0.00083
2022.30041,0.00083
2021.33604,0.00082
2020.37166,0.00082
2019.40728,0.00081
2018.44290,0.00081
2017.47853,0.00081
2016.51415,0.00080
2015.54977,0.00080
2014.58539,0.00079
2013.62101,0.00079
2012.65664,0.00078
2011.69226,0.00078
2010.72788,0.00077
2009.76350,0.00077
2008.79912,0.00076
2007.83475,0.00076
2006.87037,0.00076
2005.90599,0.00075
2004.94161,0.00075
2003.97724,0.00074
2003.01286,0.00074
2002.04848,0.00073
2001.08410,0.00073
2000.11972,0.00072
1999.15535,0.00072
1998.19097,0.00071
1997.22659,0.00071
1996.26221,0.00071
1995.29783,0.00070
1994.33346,0.00070
1993.36908,0.00069
1992.40470,0.00069
1991.44032,0.00068
1990.47594,0.00068
1989.51157,0.00067
1988.54719,0.00067
1987.58281,0.00067
1986.61843,0.00066
1985.65406,0.00066
1984.68968,0.00065
1983.72530,0.00065
1982.76092,0.00064
1981.79654,0.00064
1980.83217,0.00063
1979.86779,0.00063
1978.90341,0.00062
1977.93903,0.00062
1976.97465,0.00062
1976.01028,0.00061
1975.04590,0.00061
1974.08152,0.00060
1973.11714,0.00060
1972.15276,0.00059
1971.18839,0.00059
1970.22401,0.00058
1969.25963,0.00058
1968.29525,0.00058
1967.33088,0.00057
1966.36650,0.00057
1965.40212,0.00056
1964.43774,0.00056
1963.47336,0.00055
1962.50899,0.00054
1961.54461,0.00045
1960.58023,0.00048
1959.61585,0.00056
1958.65147,0.00057
1957.68710,0.00073
1956.72272,0.00108
1955.75834,0.00134
1954.79396,0.00139
1953.82959,0.00140
1952.86521,0.00147
1951.90083,0.00156
1950.93645,0.00160
1949.97207,0.00149
1949.00770,0.00137
1948.04332,0.00122
1947.07894,0.00111
1946.11456,0.00115
1945.15018,0.00111
1944.18581,0.00084
1943.22143,0.00057
1942.25705,0.00042
1941.29267,0.00044
1940.32829,0.00056
1939.36392,0.00066
1938.39954,0.00065
1937.43516,0.00063
1936.47078,0.00075
1935.50641,0.00091
1934.54203,0.00094
1933.57765,0.00087
1932.61327,0.00097
1931.64889,0.00119
1930.68452,0.00131
1929.72014,0.00143
1928.75576,0.00160
1927.79138,0.00173
1926.82700,0.00171
1925.86263,0.00167
1924.89825,0.00162
1923.93387,0.00137
1922.96949,0.00108
1922.00512,0.00093
1921.04074,0.00090
1920.07636,0.00089
1919.11198,0.00083
1918.14760,0.00083
1917.18323,0.00093
1916.21885,0.00107
1915.25447,0.00116
1914.29009,0.00121
1913.32571,0.00120
1912.36134,0.00105
1911.39696,0.00092
1910.43258,0.00093
1909.46820,0.00097
1908.50382,0.00099
1907.53945,0.00099
1906.57507,0.00101
1905.61069,0.00105
1904.64631,0.00111
1903.68194,0.00114
1902.71756,0.00114
1901.75318,0.00114
1900.78880,0.00114
1899.82442,0.00119
1898.86005,0.00127
1897.89567,0.00130
1896.93129,0.00127
1895.96691,0.00126
1895.00253,0.00127
1894.03816,0.00134
1893.07378,0.00144
1892.10940,0.00149
1891.14502,0.00154
1890.18065,0.00154
1889.21627,0.00153
1888.25189,0.00148
1887.28751,0.00134
1886.32313,0.00120
1885.35876,0.00114
1884.39438,0.00114
1883.43000,0.00120
1882.46562,0.00135
1881.50124,0.00147
1880.53687,0.00151
1879.57249,0.00146
1878.60811,0.00131
1877.64373,0.00114
1876.67935,0.00102
1875.71498,0.00089
1874.75060,0.00084
1873.78622,0.00084
1872.82184,0.00087
1871.85747,0.00097
1870.89309,0.00109
1869.92871,0.00121
1868.96433,0.00130
1867.99995,0.00134
1867.03558,0.00140
1866.07120,0.00145
1865.10682,0.00144
1864.14244,0.00137
1863.17806,0.00131
1862.21369,0.00130
1861.24931,0.00131
1860.28493,0.00130
1859.32055,0.00127
1858.35618,0.00122
1857.39180,0.00118
1856.42742,0.00117
1855.46304,0.00118
1854.49866,0.00114
1853.53429,0.00109
1852.56991,0.00103
1851.60553,0.00102
1850.64115,0.00108
1849.67677,0.00113
1848.71240,0.00116
1847.74802,0.00117
1846.78364,0.00118
1845.81926,0.00119
1844.85488,0.00121
1843.89051,0.00121
1842.92613,0.00120
1841.96175,0.00122
1840.99737,0.00127
1840.03300,0.00130
1839.06862,0.00133
1838.10424,0.00135
1837.13986,0.00138
1836.17548,0.00136
1835.21111,0.00131
1834.24673,0.00128
1833.28235,0.00124
1832.31797,0.00118
1831.35359,0.00112
1830.38922,0.00111
1829.42484,0.00113
1828.46046,0.00113
1827.49608,0.00113
1826.53171,0.00115
1825.56733,0.00116
1824.60295,0.00115
1823.63857,0.00116
1822.67419,0.00119
1821.70982,0.00120
1820.74544,0.00120
1819.78106,0.00122
1818.81668,0.00124
1817.85230,0.00125
1816.88793,0.00126
1815.92355,0.00127
1814.95917,0.00125
1813.99479,0.00123
1813.03041,0.00122
1812.06604,0.00121
1811.10166,0.00121
1810.13728,0.00120
1809.17290,0.00119
1808.20853,0.00120
1807.24415,0.00120
1806.27977,0.00119
1805.31539,0.00118
1804.35101,0.00119
1803.38664,0.00120
1802.42226,0.00120
1801.45788,0.00122
1800.49350,0.00125
1799.52912,0.00129
1798.56475,0.00132
1797.60037,0.00133
1796.63599,0.00136
1795.67161,0.00138
1794.70724,0.00138
1793.74286,0.00139
1792.77848,0.00139
1791.81410,0.00136
1790.84972,0.00129
1789.88535,0.00122
1788.92097,0.00118
1787.95659,0.00117
1786.99221,0.00116
1786.02783,0.00117
1785.06346,0.00121
1784.09908,0.00126
1783.13470,0.00132
1782.17032,0.00139
1781.20594,0.00141
1780.24157,0.00140
1779.27719,0.00136
1778.31281,0.00133
1777.34843,0.00134
1776.38406,0.00136
1775.41968,0.00137
1774.45530,0.00137
1773.49092,0.00139
1772.52654,0.00142
1771.56217,0.00145
1770.59779,0.00147
1769.63341,0.00146
1768.66903,0.00144
1767.70465,0.00142
1766.74028,0.00142
1765.77590,0.00144
1764.81152,0.00147
1763.84714,0.00149
1762.88276,0.00151
1761.91839,0.00153
1760.95401,0.00153
1759.98963,0.00153
1759.02525,0.00153
1758.06088,0.00154
1757.09650,0.00156
1756.13212,0.00159
1755.16774,0.00162
1754.20336,0.00165
1753.23899,0.00169
1752.27461,0.00174
1751.31023,0.00179
1750.34585,0.00182
1749.38147,0.00183
1748.41710,0.00185
1747.45272,0.00186
1746.48834,0.00188
1745.52396,0.00193
1744.55959,0.00197
1743.59521,0.00199
1742.63083,0.00199
1741.66645,0.00200
1740.70207,0.00202
1739.73770,0.00203
1738.77332,0.00204
1737.80894,0.00207
1736.84456,0.00210
1735.88018,0.00213
1734.91581,0.00215
1733.95143,0.00216
1732.98705,0.00214
1732.02267,0.00211
1731.05829,0.00208
1730.09392,0.00205
1729.12954,0.00202
1728.16516,0.00201
1727.20078,0.00201
1726.23641,0.00204
1725.27203,0.00207
1724.30765,0.00208
1723.34327,0.00207
1722.37889,0.00205
1721.41452,0.00205
1720.45014,0.00206
1719.48576,0.00207
1718.52138,0.00211
1717.55700,0.00214
1716.59263,0.00216
1715.62825,0.00217
1714.66387,0.00218
1713.69949,0.00215
1712.73512,0.00211
1711.77074,0.00209
1710.80636,0.00208
1709.84198,0.00206
1708.87760,0.00206
1707.91323,0.00208
1706.94885,0.00209
1705.98447,0.00211
1705.02009,0.00214
1704.05571,0.00218
1703.09134,0.00222
1702.12696,0.00223
1701.16258,0.00226
1700.19820,0.00231
1699.23382,0.00233
1698.26945,0.00235
1697.30507,0.00236
1696.34069,0.00237
1695.37631,0.00237
1694.41194,0.00238
1693.44756,0.00239
1692.48318,0.00239
1691.51880,0.00237
1690.55442,0.00235
1689.59005,0.00237
1688.62567,0.00244
1687.66129,0.00250
1686.69691,0.00255
1685.73253,0.00259
1684.76816,0.00264
1683.80378,0.00268
1682.83940,0.00272
1681.87502,0.00274
1680.91065,0.00276
1679.94627,0.00279
1678.98189,0.00283
1678.01751,0.00289
1677.05313,0.00295
1676.08876,0.00299
1675.12438,0.00302
1674.16000,0.00304
1673.19562,0.00308
1672.23124,0.00312
1671.26687,0.00316
1670.30249,0.00319
1669.33811,0.00324
1668.37373,0.00329
1667.40935,0.00332
1666.44498,0.00334
1665.48060,0.00335
1664.51622,0.00335
1663.55184,0.00335
1662.58747,0.00337
1661.62309,0.00338
1660.65871,0.00340
1659.69433,0.00342
1658.72995,0.00345
1657.76558,0.00352
1656.80120,0.00362
1655.83682,0.00371
1654.87244,0.00378
1653.90806,0.00381
1652.94369,0.00381
1651.97931,0.00379
1651.01493,0.00375
1650.05055,0.00371
1649.08618,0.00366
1648.12180,0.00360
1647.15742,0.00355
1646.19304,0.00354
1645.22866,0.00353
1644.26429,0.00350
1643.29991,0.00348
1642.33553,0.00344
1641.37115,0.00341
1640.40677,0.00340
1639.44240,0.00341
1638.47802,0.00344
1637.51364,0.00346
1636.54926,0.00347
1635.58488,0.00349
1634.62051,0.00349
1633.65613,0.00348
1632.69175,0.00348
1631.72737,0.00347
1630.76300,0.00346
1629.79862,0.00345
1628.83424,0.00346
1627.86986,0.00346
1626.90548,0.00346
1625.94111,0.00347
1624.97673,0.00347
1624.01235,0.00347
1623.04797,0.00346
1622.08359,0.00346
1621.11922,0.00348
1620.15484,0.00351
1619.19046,0.00353
1618.22608,0.00355
1617.26171,0.00356
1616.29733,0.00357
1615.33295,0.00358
1614.36857,0.00360
1613.40419,0.00361
1612.43982,0.00361
1611.47544,0.00361
1610.51106,0.00361
1609.54668,0.00361
1608.58230,0.00360
1607.61793,0.00360
1606.65355,0.00359
1605.68917,0.00357
1604.72479,0.00357
1603.76041,0.00357
1602.79604,0.00358
1601.83166,0.00358
1600.86728,0.00360
1599.90290,0.00362
1598.93853,0.00364
1597.97415,0.00365
1597.00977,0.00365
1596.04539,0.00365
1595.08101,0.00365
1594.11664,0.00363
1593.15226,0.00361
1592.18788,0.00359
1591.22350,0.00357
1590.25912,0.00357
1589.29475,0.00359
1588.33037,0.00361
1587.36599,0.00361
1586.40161,0.00361
1585.43724,0.00359
1584.47286,0.00357
1583.50848,0.00354
1582.54410,0.00351
1581.57972,0.00349
1580.61535,0.00352
1579.65097,0.00354
1578.68659,0.00355
1577.72221,0.00355
1576.75783,0.00354
1575.79346,0.00352
1574.82908,0.00349
1573.86470,0.00346
1572.90032,0.00341
1571.93594,0.00336
1570.97157,0.00332
1570.00719,0.00331
1569.04281,0.00331
1568.07843,0.00329
1567.11406,0.00326
1566.14968,0.00323
1565.18530,0.00323
1564.22092,0.00323
1563.25654,0.00325
1562.29217,0.00329
1561.32779,0.00332
1560.36341,0.00333
1559.39903,0.00332
1558.43465,0.00332
1557.47028,0.00330
1556.50590,0.00327
1555.54152,0.00322
1554.57714,0.00316
1553.61276,0.00312
1552.64839,0.00308
1551.68401,0.00305
1550.71963,0.00304
1549.75525,0.00302
1548.79088,0.00299
1547.82650,0.00297
1546.86212,0.00298
1545.89774,0.00299
1544.93336,0.00301
1543.96899,0.00305
1543.00461,0.00309
1542.04023,0.00312
1541.07585,0.00314
1540.11147,0.00314
1539.14710,0.00312
1538.18272,0.00310
1537.21834,0.00306
1536.25396,0.00302
1535.28959,0.00299
1534.32521,0.00295
1533.36083,0.00291
1532.39645,0.00289
1531.43207,0.00287
1530.46770,0.00286
1529.50332,0.00285
1528.53894,0.00283
1527.57456,0.00282
1526.61018,0.00283
1525.64581,0.00286
1524.68143,0.00290
1523.71705,0.00292
1522.75267,0.00292
1521.78829,0.00292
1520.82392,0.00291
1519.85954,0.00290
1518.89516,0.00290
1517.93078,0.00290
1516.96641,0.00288
1516.00203,0.00286
1515.03765,0.00285
1514.07327,0.00286
1513.10889,0.00286
1512.14452,0.00287
1511.18014,0.00290
1510.21576,0.00294
1509.25138,0.00297
1508.28700,0.00298
1507.32263,0.00297
1506.35825,0.00295
1505.39387,0.00293
1504.42949,0.00290
1503.46512,0.00287
1502.50074,0.00283
1501.53636,0.00281
1500.57198,0.00281
1499.60760,0.00282
1498.64323,0.00283
1497.67885,0.00282
1496.71447,0.00280
1495.75009,0.00279
1494.78571,0.00278
1493.82134,0.00277
1492.85696,0.00278
1491.89258,0.00280
1490.92820,0.00280
1489.96382,0.00280
1488.99945,0.00280
1488.03507,0.00278
1487.07069,0.00276
1486.10631,0.00274
1485.14194,0.00273
1484.17756,0.00273
1483.21318,0.00273
1482.24880,0.00274
1481.28442,0.00277
1480.32005,0.00280
1479.35567,0.00282
1478.39129,0.00284
1477.42691,0.00288
1476.46253,0.00291
1475.49816,0.00295
1474.53378,0.00298
1473.56940,0.00301
1472.60502,0.00304
1471.64065,0.00307
1470.67627,0.00310
1469.71189,0.00313
1468.74751,0.00316
1467.78313,0.00317
1466.81876,0.00319
1465.85438,0.00321
1464.89000,0.00322
1463.92562,0.00322
1462.96124,0.00322
1461.99687,0.00322
1461.03249,0.00324
1460.06811,0.00326
1459.10373,0.00328
1458.13935,0.00330
1457.17498,0.00332
1456.21060,0.00332
1455.24622,0.00333
1454.28184,0.00333
1453.31747,0.00333
1452.35309,0.00331
1451.38871,0.00329
1450.42433,0.00328
1449.45995,0.00328
1448.49558,0.00328
1447.53120,0.00329
1446.56682,0.00330
1445.60244,0.00331
1444.63806,0.00331
1443.67369,0.00332
1442.70931,0.00333
1441.74493,0.00336
1440.78055,0.00339
1439.81618,0.00342
1438.85180,0.00345
1437.88742,0.00347
1436.92304,0.00351
1435.95866,0.00354
1434.99429,0.00356
1434.02991,0.00358
1433.06553,0.00359
1432.10115,0.00360
1431.13677,0.00361
1430.17240,0.00365
1429.20802,0.00369
1428.24364,0.00371
1427.27926,0.00372
1426.31488,0.00373
1425.35051,0.00374
1424.38613,0.00378
1423.42175,0.00383
1422.45737,0.00388
1421.49300,0.00394
1420.52862,0.00398
1419.56424,0.00401
1418.59986,0.00404
1417.63548,0.00406
1416.67111,0.00406
1415.70673,0.00405
1414.74235,0.00402
1413.77797,0.00401
1412.81359,0.00403
1411.84922,0.00406
1410.88484,0.00408
1409.92046,0.00410
1408.95608,0.00412
1407.99171,0.00413
1407.02733,0.00413
1406.06295,0.00414
1405.09857,0.00413
1404.13419,0.00411
1403.16982,0.00409
1402.20544,0.00407
1401.24106,0.00405
1400.27668,0.00405
1399.31230,0.00404
1398.34793,0.00405
1397.38355,0.00406
1396.41917,0.00406
1395.45479,0.00405
1394.49041,0.00402
1393.52604,0.00399
1392.56166,0.00398
1391.59728,0.00397
1390.63290,0.00396
1389.66853,0.00395
1388.70415,0.00393
1387.73977,0.00393
1386.77539,0.00392
1385.81101,0.00391
1384.84664,0.00390
1383.88226,0.00387
1382.91788,0.00384
1381.95350,0.00383
1380.98912,0.00385
1380.02475,0.00387
1379.06037,0.00389
1378.09599,0.00389
1377.13161,0.00389
1376.16724,0.00388
1375.20286,0.00386
1374.23848,0.00384
1373.27410,0.00382
1372.30972,0.00381
1371.34535,0.00382
1370.38097,0.00382
1369.41659,0.00382
1368.45221,0.00381
1367.48783,0.00380
1366.52346,0.00379
1365.55908,0.00378
1364.59470,0.00376
1363.63032,0.00372
1362.66594,0.00368
1361.70157,0.00365
1360.73719,0.00363
1359.77281,0.00361
1358.80843,0.00359
1357.84406,0.00357
1356.87968,0.00356
1355.91530,0.00354
1354.95092,0.00352
1353.98654,0.00351
1353.02217,0.00349
1352.05779,0.00348
1351.09341,0.00347
1350.12903,0.00346
1349.16465,0.00345
1348.20028,0.00343
1347.23590,0.00343
1346.27152,0.00343
1345.30714,0.00342
1344.34276,0.00342
1343.37839,0.00340
1342.41401,0.00337
1341.44963,0.00336
1340.48525,0.00335
1339.52088,0.00333
1338.55650,0.00329
1337.59212,0.00325
1336.62774,0.00322
1335.66336,0.00320
1334.69899,0.00319
1333.73461,0.00319
1332.77023,0.00319
1331.80585,0.00318
1330.84147,0.00317
1329.87710,0.00315
1328.91272,0.00312
1327.94834,0.00309
1326.98396,0.00308
1326.01959,0.00306
1325.05521,0.00304
1324.09083,0.00303
1323.12645,0.00303
1322.16207,0.00303
1321.19770,0.00303
1320.23332,0.00304
1319.26894,0.00304
1318.30456,0.00304
1317.34018,0.00305
1316.37581,0.00305
1315.41143,0.00305
1314.44705,0.00303
1313.48267,0.00300
1312.51829,0.00298
1311.55392,0.00297
1310.58954,0.00296
1309.62516,0.00296
1308.66078,0.00296
1307.69641,0.00297
1306.73203,0.00298
1305.76765,0.00300
1304.80327,0.00302
1303.83889,0.00304
1302.87452,0.00303
1301.91014,0.00303
1300.94576,0.00302
1299.98138,0.00302
1299.01700,0.00301
1298.05263,0.00301
1297.08825,0.00301
1296.12387,0.00301
1295.15949,0.00302
1294.19512,0.00303
1293.23074,0.00305
1292.26636,0.00305
1291.30198,0.00305
1290.33760,0.00305
1289.37323,0.00305
1288.40885,0.00304
1287.44447,0.00305
1286.48009,0.00305
1285.51571,0.00306
1284.55134,0.00306
1283.58696,0.00305
1282.62258,0.00303
1281.65820,0.00302
1280.69382,0.00302
1279.72945,0.00301
1278.76507,0.00301
1277.80069,0.00302
1276.83631,0.00304
1275.87194,0.00307
1274.90756,0.00308
1273.94318,0.00309
1272.97880,0.00310
1272.01442,0.00310
1271.05005,0.00311
1270.08567,0.00314
1269.12129,0.00316
1268.15691,0.00317
1267.19253,0.00319
1266.22816,0.00323
1265.26378,0.00325
1264.29940,0.00326
1263.33502,0.00326
1262.37065,0.00327
1261.40627,0.00327
1260.44189,0.00326
1259.47751,0.00325
1258.51313,0.00325
1257.54876,0.00323
1256.58438,0.00322
1255.62000,0.00321
1254.65562,0.00320
1253.69124,0.00320
1252.72687,0.00321
1251.76249,0.00323
1250.79811,0.00324
1249.83373,0.00325
1248.86935,0.00326
1247.90498,0.00328
1246.94060,0.00328
1245.97622,0.00328
1245.01184,0.00328
1244.04747,0.00327
1243.08309,0.00327
1242.11871,0.00327
1241.15433,0.00327
1240.18995,0.00326
1239.22558,0.00324
1238.26120,0.00323
1237.29682,0.00324
1236.33244,0.00324
1235.36806,0.00324
1234.40369,0.00324
1233.43931,0.00325
1232.47493,0.00326
1231.51055,0.00326
1230.54618,0.00326
1229.58180,0.00326
1228.61742,0.00327
1227.65304,0.00327
1226.68866,0.00326
1225.72429,0.00326
1224.75991,0.00326
1223.79553,0.00324
1222.83115,0.00323
1221.86677,0.00322
1220.90240,0.00321
1219.93802,0.00321
1218.97364,0.00322
1218.00926,0.00325
1217.04488,0.00328
1216.08051,0.00331
1215.11613,0.00335
1214.15175,0.00338
1213.18737,0.00341
1212.22300,0.00343
1211.25862,0.00346
1210.29424,0.00348
1209.32986,0.00349
1208.36548,0.00351
1207.40111,0.00352
1206.43673,0.00353
1205.47235,0.00354
1204.50797,0.00355
1203.54359,0.00357
1202.57922,0.00359
1201.61484,0.00362
1200.65046,0.00365
1199.68608,0.00370
1198.72171,0.00374
1197.75733,0.00380
1196.79295,0.00383
1195.82857,0.00386
1194.86419,0.00389
1193.89982,0.00392
1192.93544,0.00395
1191.97106,0.00397
1191.00668,0.00400
1190.04230,0.00402
1189.07793,0.00405
1188.11355,0.00410
1187.14917,0.00413
1186.18479,0.00415
1185.22041,0.00417
1184.25604,0.00420
1183.29166,0.00426
1182.32728,0.00431
1181.36290,0.00436
1180.39853,0.00442
1179.43415,0.00447
1178.46977,0.00452
1177.50539,0.00458
1176.54101,0.00463
1175.57664,0.00467
1174.61226,0.00471
1173.64788,0.00475
1172.68350,0.00479
1171.71912,0.00485
1170.75475,0.00490
1169.79037,0.00495
1168.82599,0.00501
1167.86161,0.00506
1166.89724,0.00510
1165.93286,0.00515
1164.96848,0.00520
1164.00410,0.00527
1163.03972,0.00535
1162.07535,0.00542
1161.11097,0.00549
1160.14659,0.00558
1159.18221,0.00567
1158.21783,0.00575
1157.25346,0.00582
1156.28908,0.00589
1155.32470,0.00594
1154.36032,0.00599
1153.39594,0.00605
1152.43157,0.00613
1151.46719,0.00621
1150.50281,0.00629
1149.53843,0.00637
1148.57406,0.00645
1147.60968,0.00651
1146.64530,0.00657
1145.68092,0.00664
1144.71654,0.00671
1143.75217,0.00676
1142.78779,0.00679
1141.82341,0.00683
1140.85903,0.00687
1139.89465,0.00692
1138.93028,0.00697
1137.96590,0.00702
1137.00152,0.00708
1136.03714,0.00716
1135.07276,0.00724
1134.10839,0.00732
1133.14401,0.00741
1132.17963,0.00749
1131.21525,0.00754
1130.25088,0.00758
1129.28650,0.00762
1128.32212,0.00767
1127.35774,0.00771
1126.39336,0.00775
1125.42899,0.00780
1124.46461,0.00786
1123.50023,0.00790
1122.53585,0.00792
1121.57147,0.00793
1120.60710,0.00793
1119.64272,0.00793
1118.67834,0.00793
1117.71396,0.00793
1116.74959,0.00794
1115.78521,0.00796
1114.82083,0.00796
1113.85645,0.00796
1112.89207,0.00793
1111.92770,0.00790
1110.96332,0.00785
1109.99894,0.00779
1109.03456,0.00772
1108.07018,0.00765
1107.10581,0.00761
1106.14143,0.00755
1105.17705,0.00747
1104.21267,0.00736
1103.24829,0.00724
1102.28392,0.00713
1101.31954,0.00700
1100.35516,0.00686
1099.39078,0.00673
1098.42641,0.00660
1097.46203,0.00646
1096.49765,0.00635
1095.53327,0.00626
1094.56889,0.00613
1093.60452,0.00599
1092.64014,0.00585
1091.67576,0.00575
1090.71138,0.00565
1089.74700,0.00555
1088.78263,0.00546
1087.81825,0.00537
1086.85387,0.00526
1085.88949,0.00517
1084.92512,0.00509
1083.96074,0.00502
1082.99636,0.00496
1082.03198,0.00488
1081.06760,0.00479
1080.10323,0.00472
1079.13885,0.00465
1078.17447,0.00461
1077.21009,0.00456
1076.24571,0.00449
1075.28134,0.00443
1074.31696,0.00440
1073.35258,0.00439
1072.38820,0.00438
1071.42382,0.00433
1070.45945,0.00426
1069.49507,0.00418
1068.53069,0.00410
1067.56631,0.00403
1066.60194,0.00397
1065.63756,0.00390
1064.67318,0.00384
1063.70880,0.00380
1062.74442,0.00377
1061.78005,0.00376
1060.81567,0.00378
1059.85129,0.00381
1058.88691,0.00382
1057.92253,0.00381
1056.95816,0.00380
1055.99378,0.00381
1055.02940,0.00381
1054.06502,0.00379
1053.10065,0.00377
1052.13627,0.00374
1051.17189,0.00371
1050.20751,0.00371
1049.24313,0.00373
1048.27876,0.00373
1047.31438,0.00369
1046.35000,0.00365
1045.38562,0.00361
1044.42124,0.00358
1043.45687,0.00356
1042.49249,0.00354
1041.52811,0.00353
1040.56373,0.00352
1039.59935,0.00354
1038.63498,0.00356
1037.67060,0.00358
1036.70622,0.00360
1035.74184,0.00360
1034.77747,0.00360
1033.81309,0.00360
1032.84871,0.00361
1031.88433,0.00360
1030.91995,0.00358
1029.95558,0.00357
1028.99120,0.00356
1028.02682,0.00354
1027.06244,0.00353
1026.09806,0.00352
1025.13369,0.00351
1024.16931,0.00349
1023.20493,0.00346
1022.24055,0.00345
1021.27618,0.00345
1020.31180,0.00343
1019.34742,0.00343
1018.38304,0.00345
1017.41866,0.00345
1016.45429,0.00344
1015.48991,0.00343
1014.52553,0.00341
1013.56115,0.00339
1012.59677,0.00336
1011.63240,0.00334
1010.66802,0.00333
1009.70364,0.00333
1008.73926,0.00331
1007.77488,0.00330
1006.81051,0.00328
1005.84613,0.00326
1004.88175,0.00325
1003.91737,0.00321
1002.95300,0.00315
1001.98862,0.00310
1001.02424,0.00304
1000.05986,0.00299
999.09548,0.00296
998.13111,0.00298
997.16673,0.00302
996.20235,0.00305
995.23797,0.00307
994.27359,0.00309
993.30922,0.00311
992.34484,0.00310
991.38046,0.00308
990.41608,0.00306
989.45171,0.00303
988.48733,0.00299
987.52295,0.00296
986.55857,0.00294
985.59419,0.00291
984.62982,0.00289
983.66544,0.00289
982.70106,0.00289
981.73668,0.00290
980.77230,0.00291
979.80793,0.00292
978.84355,0.00294
977.87917,0.00294
976.91479,0.00293
975.95041,0.00289
974.98604,0.00286
974.02166,0.00284
973.05728,0.00282
972.09290,0.00280
971.12853,0.00276
970.16415,0.00274
969.19977,0.00271
968.23539,0.00269
967.27101,0.00268
966.30664,0.00268
965.34226,0.00268
964.37788,0.00268
963.41350,0.00268
962.44912,0.00268
961.48475,0.00269
960.52037,0.00267
959.55599,0.00264
958.59161,0.00263
957.62724,0.00261
956.66286,0.00258
955.69848,0.00257
954.73410,0.00257
953.76972,0.00256
952.80535,0.00254
951.84097,0.00253
950.87659,0.00255
949.91221,0.00259
948.94783,0.00259
947.98346,0.00258
947.01908,0.00260
946.05470,0.00262
945.09032,0.00264
944.12594,0.00267
943.16157,0.00267
942.19719,0.00261
941.23281,0.00256
940.26843,0.00254
939.30406,0.00253
938.33968,0.00251
937.37530,0.00249
936.41092,0.00250
935.44654,0.00253
934.48217,0.00257
933.51779,0.00259
932.55341,0.00261
931.58903,0.00261
930.62465,0.00259
929.66028,0.00259
928.69590,0.00260
927.73152,0.00259
926.76714,0.00256
925.80276,0.00255
924.83839,0.00254
923.87401,0.00255
922.90963,0.00256
921.94525,0.00256
920.98088,0.00253
920.01650,0.00250
919.05212,0.00246
918.08774,0.00242
917.12336,0.00237
916.15899,0.00233
915.19461,0.00232
914.23023,0.00233
913.26585,0.00233
912.30147,0.00235
911.33710,0.00241
910.37272,0.00246
909.40834,0.00248
908.44396,0.00250
907.47959,0.00252
906.51521,0.00253
905.55083,0.00249
904.58645,0.00245
903.62207,0.00245
902.65770,0.00243
901.69332,0.00239
900.72894,0.00238
899.76456,0.00240
898.80018,0.00240
897.83581,0.00238
896.87143,0.00238
895.90705,0.00240
894.94267,0.00239
893.97829,0.00237
893.01392,0.00239
892.04954,0.00245
891.08516,0.00249
890.12078,0.00254
889.15641,0.00261
888.19203,0.00265
887.22765,0.00269
886.26327,0.00271
885.29889,0.00272
884.33452,0.00271
883.37014,0.00264
882.40576,0.00257
881.44138,0.00253
880.47700,0.00251
879.51263,0.00250
878.54825,0.00249
877.58387,0.00246
876.61949,0.00245
875.65512,0.00250
874.69074,0.00256
873.72636,0.00259
872.76198,0.00258
871.79760,0.00251
870.83323,0.00246
869.86885,0.00245
868.90447,0.00248
867.94009,0.00252
866.97571,0.00250
866.01134,0.00246
865.04696,0.00249
864.08258,0.00256
863.11820,0.00260
862.15382,0.00258
861.18945,0.00253
860.22507,0.00247
859.26069,0.00242
858.29631,0.00241
857.33194,0.00244
856.36756,0.00247
855.40318,0.00246
854.43880,0.00247
853.47442,0.00252
852.51005,0.00257
851.54567,0.00261
850.58129,0.00262
849.61691,0.00261
848.65253,0.00259
847.68816,0.00257
846.72378,0.00255
845.75940,0.00252
844.79502,0.00250
843.83065,0.00246
842.86627,0.00242
841.90189,0.00242
840.93751,0.00245
839.97313,0.00249
839.00876,0.00253
838.04438,0.00254
837.08000,0.00255
836.11562,0.00255
835.15124,0.00254
834.18687,0.00252
833.22249,0.00250
832.25811,0.00247
831.29373,0.00245
830.32935,0.00244
829.36498,0.00249
828.40060,0.00258
827.43622,0.00266
826.47184,0.00271
825.50747,0.00273
824.54309,0.00273
823.57871,0.00271
822.61433,0.00268
821.64995,0.00265
820.68558,0.00263
819.72120,0.00260
818.75682,0.00258
817.79244,0.00260
816.82806,0.00263
815.86369,0.00261
814.89931,0.00256
813.93493,0.00252
812.97055,0.00250
812.00618,0.00247
811.04180,0.00252
810.07742,0.00261
809.11304,0.00266
808.14866,0.00269
807.18429,0.00273
806.21991,0.00278
805.25553,0.00282
804.29115,0.00283
803.32677,0.00279
802.36240,0.00274
801.39802,0.00270
800.43364,0.00267
799.46926,0.00271
798.50488,0.00277
797.54051,0.00276
796.57613,0.00273
795.61175,0.00271
794.64737,0.00271
793.68300,0.00269
792.71862,0.00266
791.75424,0.00263
790.78986,0.00259
789.82548,0.00254
788.86111,0.00252
787.89673,0.00252
786.93235,0.00250
785.96797,0.00243
785.00359,0.00237
784.03922,0.00232
783.07484,0.00227
782.11046,0.00226
781.14608,0.00232
780.18171,0.00240
779.21733,0.00247
778.25295,0.00255
777.28857,0.00265
776.32419,0.00273
775.35982,0.00276
774.39544,0.00274
773.43106,0.00267
772.46668,0.00258
771.50230,0.00248
770.53793,0.00241
769.57355,0.00236
768.60917,0.00231
767.64479,0.00231
766.68041,0.00234
765.71604,0.00241
764.75166,0.00250
763.78728,0.00257
762.82290,0.00260
761.85853,0.00257
760.89415,0.00255
759.92977,0.00254
758.96539,0.00252
758.00101,0.00249
757.03664,0.00244
756.07226,0.00242
755.10788,0.00242
754.14350,0.00243
753.17912,0.00245
752.21475,0.00246
751.25037,0.00247
750.28599,0.00248
749.32161,0.00254
748.35724,0.00265
747.39286,0.00273
746.42848,0.00276
745.46410,0.00280
744.49972,0.00287
743.53535,0.00288
742.57097,0.00287
741.60659,0.00282
740.64221,0.00275
739.67783,0.00269
738.71346,0.00258
737.74908,0.00249
736.78470,0.00243
735.82032,0.00235
734.85594,0.00229
733.89157,0.00231
732.92719,0.00236
731.96281,0.00236
730.99843,0.00241
730.03406,0.00247
729.06968,0.00250
728.10530,0.00252
727.14092,0.00247
726.17654,0.00243
725.21217,0.00241
724.24779,0.00240
723.28341,0.00243
722.31903,0.00248
721.35465,0.00253
720.39028,0.00258
719.42590,0.00265
718.46152,0.00271
717.49714,0.00271
716.53276,0.00270
715.56839,0.00266
714.60401,0.00261
713.63963,0.00258
712.67525,0.00257
711.71088,0.00254
710.74650,0.00253
709.78212,0.00256
708.81774,0.00259
707.85336,0.00260
706.88899,0.00261
705.92461,0.00264
704.96023,0.00268
703.99585,0.00269
703.03147,0.00271
702.06710,0.00278
701.10272,0.00281
700.13834,0.00281
699.17396,0.00281
698.20959,0.00280
697.24521,0.00277
696.28083,0.00273
695.31645,0.00267
694.35207,0.00263
693.38770,0.00261
692.42332,0.00261
691.45894,0.00265
690.49456,0.00271
689.53018,0.00273
688.56581,0.00274
687.60143,0.00275
686.63705,0.00275
685.67267,0.00273
684.70829,0.00269
683.74392,0.00266
682.77954,0.00262
681.81516,0.00260
680.85078,0.00259
679.88641,0.00259
678.92203,0.00261
677.95765,0.00266
676.99327,0.00270
676.02889,0.00270
675.06452,0.00270
674.10014,0.00269
673.13576,0.00271
672.17138,0.00278
671.20700,0.00280
670.24263,0.00279
669.27825,0.00279
668.31387,0.00278
667.34949,0.00280
666.38512,0.00285
665.42074,0.00285
664.45636,0.00281
663.49198,0.00276
662.52760,0.00272
661.56323,0.00272
660.59885,0.00276
659.63447,0.00276
658.67009,0.00276
657.70571,0.00278
656.74134,0.00279
655.77696,0.00282
654.81258,0.00287
653.84820,0.00290
652.88382,0.00290
651.91945,0.00287
650.95507,0.00283
649.99069,0.00282
649.02631,0.00286
648.06194,0.00294
647.09756,0.00305
646.13318,0.00314
645.16880,0.00323
644.20442,0.00335
643.24005,0.00350
642.27567,0.00363
641.31129,0.00370
640.34691,0.00373
639.38253,0.00373
638.41816,0.00368
637.45378,0.00367
636.48940,0.00370
635.52502,0.00370
634.56065,0.00367
633.59627,0.00370
632.63189,0.00375
631.66751,0.00373
630.70313,0.00360
629.73876,0.00348
628.77438,0.00352
627.81000,0.00379
626.84562,0.00397
625.88124,0.00387
624.91687,0.00380
623.95249,0.00399
622.98811,0.00455
622.02373,0.00524
621.05935,0.00563
620.09498,0.00544
619.13060,0.00525
618.16622,0.00542
617.20184,0.00543
616.23747,0.00507
615.27309,0.00376
614.30871,0.00237
613.34433,0.00178
612.37995,0.00176
611.41558,0.00230
610.45120,0.00273
609.48682,0.00304
608.52244,0.00354
607.55806,0.00448
606.59369,0.00531
605.62931,0.00536
604.66493,0.00495
603.70055,0.00411
602.73618,0.00377
601.77180,0.00372
600.80742,0.00335
599.84304,0.00301
598.87866,0.00266
597.91429,0.00261
596.94991,0.00275
595.98553,0.00276
595.02115,0.00266
594.05677,0.00259
593.09240,0.00276
592.12802,0.00308
591.16364,0.00347
590.19926,0.00368
589.23488,0.00367
588.27051,0.00367
587.30613,0.00365
586.34175,0.00354
585.37737,0.00337
584.41300,0.00317
583.44862,0.00303
582.48424,0.00295
581.51986,0.00304
580.55548,0.00326
579.59111,0.00346
578.62673,0.00355
577.66235,0.00353
576.69797,0.00344
575.73359,0.00332
574.76922,0.00328
573.80484,0.00337
572.84046,0.00349
571.87608,0.00356
570.91171,0.00357
569.94733,0.00355
568.98295,0.00350
568.01857,0.00341
567.05419,0.00324
566.08982,0.00302
565.12544,0.00292
564.16106,0.00297
563.19668,0.00307
562.23230,0.00320
561.26793,0.00332
560.30355,0.00339
559.33917,0.00339
558.37479,0.00332
557.41041,0.00323
556.44604,0.00310
555.48166,0.00296
554.51728,0.00289
553.55290,0.00289
552.58853,0.00294
551.62415,0.00300
550.65977,0.00305
549.69539,0.00308
548.73101,0.00306
547.76664,0.00303
546.80226,0.00299
545.83788,0.00292
544.87350,0.00285
543.90912,0.00290
542.94475,0.00304
541.98037,0.00314
541.01599,0.00327
540.05161,0.00346
539.08724,0.00356
538.12286,0.00346
537.15848,0.00326
536.19410,0.00310
535.22972,0.00297
534.26535,0.00284
533.30097,0.00277
532.33659,0.00276
531.37221,0.00271
530.40783,0.00264
529.44346,0.00261
528.47908,0.00264
527.51470,0.00263
526.55032,0.00259
525.58594,0.00263
524.62157,0.00272
523.65719,0.00283
522.69281,0.00291
521.72843,0.00290
520.76406,0.00288
519.79968,0.00290
518.83530,0.00294
517.87092,0.00294
516.90654,0.00299
515.94217,0.00303
514.97779,0.00293
514.01341,0.00285
513.04903,0.00292
512.08465,0.00308
511.12028,0.00315
510.15590,0.00309
509.19152,0.00301
508.22714,0.00297
507.26276,0.00291
506.29839,0.00282
505.33401,0.00275
504.36963,0.00267
503.40525,0.00262
502.44088,0.00272
501.47650,0.00296
500.51212,0.00315
499.54774,0.00320
498.58336,0.00316
497.61899,0.00309
496.65461,0.00302
495.69023,0.00294
494.72585,0.00282
493.76147,0.00273
492.79710,0.00272
491.83272,0.00273
490.86834,0.00274
489.90396,0.00277
488.93959,0.00279
487.97521,0.00276
487.01083,0.00268
486.04645,0.00256
485.08207,0.00251
484.11770,0.00246
483.15332,0.00239
482.18894,0.00234
481.22456,0.00227
480.26018,0.00218
479.29581,0.00217
478.33143,0.00222
477.36705,0.00231
476.40267,0.00237
475.43829,0.00245
474.47392,0.00261
473.50954,0.00278
472.54516,0.00291
471.58078,0.00302
470.61641,0.00308
469.65203,0.00300
468.68765,0.00286
467.72327,0.00280
466.75889,0.00280
465.79452,0.00283
464.83014,0.00283
463.86576,0.00290
462.90138,0.00312
461.93700,0.00327
460.97263,0.00337
460.00825,0.00346
459.04387,0.00341
458.07949,0.00325
457.11512,0.00304
456.15074,0.00288
455.18636,0.00276
454.22198,0.00268
453.25760,0.00260
452.29323,0.00261
451.32885,0.00278
450.36447,0.00290
449.40009,0.00290
448.43571,0.00287
447.47134,0.00283
446.50696,0.00278
445.54258,0.00268
444.57820,0.00261
443.61382,0.00259
442.64945,0.00253
441.68507,0.00245
440.72069,0.00241
439.75631,0.00243
438.79194,0.00244
437.82756,0.00242
436.86318,0.00242
435.89880,0.00244
434.93442,0.00250
433.97005,0.00255
433.00567,0.00256
432.04129,0.00251
431.07691,0.00244
430.11253,0.00238
429.14816,0.00236
428.18378,0.00233
427.21940,0.00230
426.25502,0.00223
425.29065,0.00218
424.32627,0.00221
423.36189,0.00229
422.39751,0.00238
421.43313,0.00246
420.46876,0.00254
419.50438,0.00258
418.54000,0.00258
417.57562,0.00255
416.61124,0.00244
415.64687,0.00228
414.68249,0.00215
413.71811,0.00213
412.75373,0.00214
411.78935,0.00215
410.82498,0.00220
409.86060,0.00227
408.89622,0.00234
407.93184,0.00236
406.96747,0.00236
406.00309,0.00235
405.03871,0.00232
404.07433,0.00232
403.10995,0.00232
402.14558,0.00232
401.18120,0.00232
400.21682,0.00232
399.25244,0.00232
