3998.31069,0.00061
3997.34631,0.00061
3996.38194,0.00061
3995.41756,0.00061
3994.45318,0.00061
3993.48880,0.00061
3992.52442,0.00061
3991.56005,0.00056
3990.59567,0.00055
3989.63129,0.00055
3988.66691,0.00054
3987.70253,0.00051
3986.73816,0.00047
3985.77378,0.00047
3984.80940,0.00049
3983.84502,0.00055
3982.88065,0.00061
3981.91627,0.00058
3980.95189,0.00051
3979.98751,0.00048
3979.02313,0.00045
3978.05876,0.00036
3977.09438,0.00024
3976.13000,0.00019
3975.16562,0.00024
3974.20124,0.00030
3973.23687,0.00036
3972.27249,0.00043
3971.30811,0.00054
3970.34373,0.00063
3969.37935,0.00065
3968.41498,0.00060
3967.45060,0.00049
3966.48622,0.00032
3965.52184,0.00017
3964.55747,0.00010
3963.59309,0.00003
3962.62871,-0.00003
3961.66433,-0.00004
3960.69995,0.00000
3959.73558,0.00015
3958.77120,0.00035
3957.80682,0.00046
3956.84244,0.00053
3955.87806,0.00062
3954.91369,0.00073
3953.94931,0.00079
3952.98493,0.00074
3952.02055,0.00065
3951.05618,0.00057
3950.09180,0.00044
3949.12742,0.00028
3948.16304,0.00019
3947.19866,0.00017
3946.23429,0.00014
3945.26991,0.00013
3944.30553,0.00018
3943.34115,0.00025
3942.37677,0.00027
3941.41240,0.00024
3940.44802,0.00028
3939.48364,0.00032
3938.51926,0.00031
3937.55488,0.00032
3936.59051,0.00038
3935.62613,0.00048
3934.66175,0.00052
3933.69737,0.00049
3932.73300,0.00045
3931.76862,0.00037
3930.80424,0.00023
3929.83986,0.00012
3928.87548,0.00010
3927.91111,0.00011
3926.94673,0.00014
3925.98235,0.00019
3925.01797,0.00029
3924.05359,0.00037
3923.08922,0.00041
3922.12484,0.00043
3921.16046,0.00043
3920.19608,0.00038
3919.23171,0.00028
3918.26733,0.00022
3917.30295,0.00020
3916.33857,0.00018
3915.37419,0.00015
3914.40982,0.00014
3913.44544,0.00017
3912.48106,0.00021
3911.51668,0.00027
3910.55230,0.00032
3909.58793,0.00036
3908.62355,0.00040
3907.65917,0.00046
3906.69479,0.00061
3905.73041,0.00075
3904.76604,0.00084
3903.80166,0.00087
3902.83728,0.00085
3901.87290,0.00081
3900.90853,0.00072
3899.94415,0.00057
3898.97977,0.00041
3898.01539,0.00025
3897.05101,0.00014
3896.08664,0.00011
3895.12226,0.00017
3894.15788,0.00023
3893.19350,0.00031
3892.22912,0.00037
3891.26475,0.00042
3890.30037,0.00047
3889.33599,0.00048
3888.37161,0.00048
3887.40724,0.00047
3886.44286,0.00042
3885.47848,0.00037
3884.51410,0.00031
3883.54972,0.00029
3882.58535,0.00033
3881.62097,0.00038
3880.65659,0.00042
3879.69221,0.00046
3878.72783,0.00049
3877.76346,0.00050
3876.79908,0.00048
3875.83470,0.00045
3874.87032,0.00039
3873.90594,0.00033
3872.94157,0.00029
3871.97719,0.00031
3871.01281,0.00040
3870.04843,0.00049
3869.08406,0.00056
3868.11968,0.00061
3867.15530,0.00062
3866.19092,0.00059
3865.22654,0.00055
3864.26217,0.00050
3863.29779,0.00045
3862.33341,0.00041
3861.36903,0.00043
3860.40465,0.00051
3859.44028,0.00061
3858.47590,0.00066
3857.51152,0.00061
3856.54714,0.00051
3855.58276,0.00042
3854.61839,0.00037
3853.65401,0.00034
3852.68963,0.00031
3851.72525,0.00031
3850.76088,0.00035
3849.79650,0.00044
3848.83212,0.00055
3847.86774,0.00058
3846.90336,0.00055
3845.93899,0.00049
3844.97461,0.00046
3844.01023,0.00046
3843.04585,0.00045
3842.08147,0.00044
3841.11710,0.00048
3840.15272,0.00055
3839.18834,0.00062
3838.22396,0.00065
3837.25959,0.00058
3836.29521,0.00046
3835.33083,0.00040
3834.36645,0.00040
3833.40207,0.00042
3832.43770,0.00037
3831.47332,0.00032
3830.50894,0.00036
3829.54456,0.00047
3828.58018,0.00059
3827.61581,0.00069
3826.65143,0.00073
3825.68705,0.00072
3824.72267,0.00072
3823.75829,0.00074
3822.79392,0.00075
3821.82954,0.00072
3820.86516,0.00062
3819.90078,0.00049
3818.93641,0.00040
3817.97203,0.00031
3817.00765,0.00028
3816.04327,0.00035
3815.07889,0.00046
3814.11452,0.00056
3813.15014,0.00064
3812.18576,0.00070
3811.22138,0.00071
3810.25700,0.00065
3809.29263,0.00054
3808.32825,0.00038
3807.36387,0.00028
3806.39949,0.00024
3805.43512,0.00027
3804.47074,0.00035
3803.50636,0.00044
3802.54198,0.00052
3801.57760,0.00057
3800.61323,0.00058
3799.64885,0.00054
3798.68447,0.00046
3797.72009,0.00037
3796.75571,0.00030
3795.79134,0.00032
3794.82696,0.00036
3793.86258,0.00037
3792.89820,0.00040
3791.93382,0.00046
3790.96945,0.00054
3790.00507,0.00059
3789.04069,0.00063
3788.07631,0.00068
3787.11194,0.00071
3786.14756,0.00072
3785.18318,0.00067
3784.21880,0.00062
3783.25442,0.00059
3782.29005,0.00055
3781.32567,0.00056
3780.36129,0.00054
3779.39691,0.00046
3778.43253,0.00041
3777.46816,0.00039
3776.50378,0.00041
3775.53940,0.00041
3774.57502,0.00037
3773.61065,0.00031
3772.64627,0.00026
3771.68189,0.00028
3770.71751,0.00035
3769.75313,0.00040
3768.78876,0.00037
3767.82438,0.00033
3766.86000,0.00036
3765.89562,0.00042
3764.93124,0.00051
3763.96687,0.00058
3763.00249,0.00064
3762.03811,0.00068
3761.07373,0.00070
3760.10935,0.00075
3759.14498,0.00078
3758.18060,0.00075
3757.21622,0.00063
3756.25184,0.00048
3755.28747,0.00036
3754.32309,0.00028
3753.35871,0.00030
3752.39433,0.00032
3751.42995,0.00028
3750.46558,0.00024
3749.50120,0.00025
3748.53682,0.00031
3747.57244,0.00034
3746.60806,0.00036
3745.64369,0.00035
3744.67931,0.00030
3743.71493,0.00026
3742.75055,0.00029
3741.78618,0.00038
3740.82180,0.00044
3739.85742,0.00048
3738.89304,0.00052
3737.92866,0.00060
3736.96429,0.00063
3735.99991,0.00061
3735.03553,0.00064
3734.07115,0.00068
3733.10677,0.00066
3732.14240,0.00057
3731.17802,0.00051
3730.21364,0.00048
3729.24926,0.00047
3728.28488,0.00048
3727.32051,0.00044
3726.35613,0.00040
3725.39175,0.00040
3724.42737,0.00046
3723.46300,0.00057
3722.49862,0.00064
3721.53424,0.00064
3720.56986,0.00061
3719.60548,0.00059
3718.64111,0.00056
3717.67673,0.00054
3716.71235,0.00053
3715.74797,0.00051
3714.78359,0.00053
3713.81922,0.00059
3712.85484,0.00067
3711.89046,0.00070
3710.92608,0.00072
3709.96171,0.00070
3708.99733,0.00063
3708.03295,0.00053
3707.06857,0.00046
3706.10419,0.00047
3705.13982,0.00046
3704.17544,0.00040
3703.21106,0.00032
3702.24668,0.00029
3701.28230,0.00034
3700.31793,0.00041
3699.35355,0.00048
3698.38917,0.00044
3697.42479,0.00035
3696.46041,0.00034
3695.49604,0.00036
3694.53166,0.00041
3693.56728,0.00042
3692.60290,0.00038
3691.63853,0.00032
3690.67415,0.00028
3689.70977,0.00030
3688.74539,0.00032
3687.78101,0.00034
3686.81664,0.00037
3685.85226,0.00046
3684.88788,0.00056
3683.92350,0.00059
3682.95912,0.00060
3681.99475,0.00064
3681.03037,0.00062
3680.06599,0.00053
3679.10161,0.00047
3678.13724,0.00046
3677.17286,0.00044
3676.20848,0.00043
3675.24410,0.00051
3674.27972,0.00062
3673.31535,0.00066
3672.35097,0.00068
3671.38659,0.00072
3670.42221,0.00074
3669.45783,0.00071
3668.49346,0.00066
3667.52908,0.00061
3666.56470,0.00056
3665.60032,0.00050
3664.63594,0.00047
3663.67157,0.00051
3662.70719,0.00055
3661.74281,0.00052
3660.77843,0.00049
3659.81406,0.00049
3658.84968,0.00051
3657.88530,0.00051
3656.92092,0.00045
3655.95654,0.00038
3654.99217,0.00039
3654.02779,0.00045
3653.06341,0.00048
3652.09903,0.00048
3651.13465,0.00044
3650.17028,0.00039
3649.20590,0.00040
3648.24152,0.00048
3647.27714,0.00056
3646.31276,0.00058
3645.34839,0.00053
3644.38401,0.00050
3643.41963,0.00051
3642.45525,0.00049
3641.49088,0.00046
3640.52650,0.00039
3639.56212,0.00034
3638.59774,0.00033
3637.63336,0.00041
3636.66899,0.00048
3635.70461,0.00048
3634.74023,0.00044
3633.77585,0.00040
3632.81147,0.00041
3631.84710,0.00043
3630.88272,0.00049
3629.91834,0.00058
3628.95396,0.00067
3627.98959,0.00073
3627.02521,0.00077
3626.06083,0.00079
3625.09645,0.00073
3624.13207,0.00061
3623.16770,0.00048
3622.20332,0.00038
3621.23894,0.00032
3620.27456,0.00027
3619.31018,0.00031
3618.34581,0.00038
3617.38143,0.00045
3616.41705,0.00052
3615.45267,0.00056
3614.48829,0.00057
3613.52392,0.00055
3612.55954,0.00055
3611.59516,0.00054
3610.63078,0.00050
3609.66641,0.00046
3608.70203,0.00044
3607.73765,0.00052
3606.77327,0.00059
3605.80889,0.00058
3604.84452,0.00056
3603.88014,0.00054
3602.91576,0.00054
3601.95138,0.00056
3600.98700,0.00061
3600.02263,0.00061
3599.05825,0.00055
3598.09387,0.00052
3597.12949,0.00057
3596.16512,0.00068
3595.20074,0.00074
3594.23636,0.00073
3593.27198,0.00070
3592.30760,0.00065
3591.34323,0.00065
3590.37885,0.00064
3589.41447,0.00057
3588.45009,0.00047
3587.48571,0.00038
3586.52134,0.00034
3585.55696,0.00035
3584.59258,0.00040
3583.62820,0.00049
3582.66382,0.00058
3581.69945,0.00066
3580.73507,0.00075
3579.77069,0.00080
3578.80631,0.00079
3577.84194,0.00072
3576.87756,0.00066
3575.91318,0.00065
3574.94880,0.00063
3573.98442,0.00060
3573.02005,0.00057
3572.05567,0.00057
3571.09129,0.00062
3570.12691,0.00069
3569.16253,0.00075
3568.19816,0.00080
3567.23378,0.00091
3566.26940,0.00105
3565.30502,0.00119
3564.34065,0.00133
3563.37627,0.00141
3562.41189,0.00140
3561.44751,0.00131
3560.48313,0.00119
3559.51876,0.00108
3558.55438,0.00090
3557.59000,0.00072
3556.62562,0.00064
3555.66124,0.00061
3554.69687,0.00055
3553.73249,0.00053
3552.76811,0.00057
3551.80373,0.00062
3550.83935,0.00064
3549.87498,0.00060
3548.91060,0.00059
3547.94622,0.00060
3546.98184,0.00058
3546.01747,0.00058
3545.05309,0.00061
3544.08871,0.00058
3543.12433,0.00055
3542.15995,0.00063
3541.19558,0.00077
3540.23120,0.00089
3539.26682,0.00094
3538.30244,0.00095
3537.33806,0.00101
3536.37369,0.00108
3535.40931,0.00108
3534.44493,0.00103
3533.48055,0.00095
3532.51618,0.00085
3531.55180,0.00080
3530.58742,0.00082
3529.62304,0.00083
3528.65866,0.00079
3527.69429,0.00076
3526.72991,0.00076
3525.76553,0.00078
3524.80115,0.00078
3523.83677,0.00075
3522.87240,0.00072
3521.90802,0.00070
3520.94364,0.00071
3519.97926,0.00070
3519.01488,0.00068
3518.05051,0.00069
3517.08613,0.00072
3516.12175,0.00077
3515.15737,0.00085
3514.19300,0.00094
3513.22862,0.00104
3512.26424,0.00114
3511.29986,0.00121
3510.33548,0.00121
3509.37111,0.00115
3508.40673,0.00108
3507.44235,0.00096
3506.47797,0.00084
3505.51359,0.00072
3504.54922,0.00063
3503.58484,0.00063
3502.62046,0.00071
3501.65608,0.00080
3500.69171,0.00086
3499.72733,0.00088
3498.76295,0.00087
3497.79857,0.00087
3496.83419,0.00088
3495.86982,0.00088
3494.90544,0.00085
3493.94106,0.00083
3492.97668,0.00084
3492.01230,0.00086
3491.04793,0.00088
3490.08355,0.00088
3489.11917,0.00090
3488.15479,0.00090
3487.19041,0.00089
3486.22604,0.00092
3485.26166,0.00094
3484.29728,0.00093
3483.33290,0.00089
3482.36853,0.00085
3481.40415,0.00080
3480.43977,0.00076
3479.47539,0.00076
3478.51101,0.00079
3477.54664,0.00088
3476.58226,0.00096
3475.61788,0.00102
3474.65350,0.00107
3473.68912,0.00105
3472.72475,0.00101
3471.76037,0.00097
3470.79599,0.00096
3469.83161,0.00094
3468.86724,0.00092
3467.90286,0.00092
3466.93848,0.00093
3465.97410,0.00097
3465.00972,0.00097
3464.04535,0.00096
3463.08097,0.00100
3462.11659,0.00104
3461.15221,0.00111
3460.18783,0.00122
3459.22346,0.00129
3458.25908,0.00128
3457.29470,0.00122
3456.33032,0.00116
3455.36594,0.00113
3454.40157,0.00105
3453.43719,0.00096
3452.47281,0.00092
3451.50843,0.00093
3450.54406,0.00098
3449.57968,0.00106
3448.61530,0.00112
3447.65092,0.00111
3446.68654,0.00106
3445.72217,0.00104
3444.75779,0.00106
3443.79341,0.00108
3442.82903,0.00106
3441.86465,0.00104
3440.90028,0.00105
3439.93590,0.00107
3438.97152,0.00111
3438.00714,0.00110
3437.04276,0.00108
3436.07839,0.00107
3435.11401,0.00104
3434.14963,0.00103
3433.18525,0.00103
3432.22088,0.00100
3431.25650,0.00098
3430.29212,0.00098
3429.32774,0.00101
3428.36336,0.00107
3427.39899,0.00116
3426.43461,0.00124
3425.47023,0.00133
3424.50585,0.00138
3423.54147,0.00131
3422.57710,0.00123
3421.61272,0.00115
3420.64834,0.00102
3419.68396,0.00090
3418.71959,0.00081
3417.75521,0.00077
3416.79083,0.00081
3415.82645,0.00084
3414.86207,0.00087
3413.89770,0.00096
3412.93332,0.00102
3411.96894,0.00104
3411.00456,0.00104
3410.04018,0.00103
3409.07581,0.00098
3408.11143,0.00092
3407.14705,0.00089
3406.18267,0.00088
3405.21829,0.00087
3404.25392,0.00085
3403.28954,0.00089
3402.32516,0.00102
3401.36078,0.00112
3400.39641,0.00120
3399.43203,0.00128
3398.46765,0.00135
3397.50327,0.00136
3396.53889,0.00133
3395.57452,0.00130
3394.61014,0.00125
3393.64576,0.00121
3392.68138,0.00122
3391.71700,0.00126
3390.75263,0.00133
3389.78825,0.00140
3388.82387,0.00144
3387.85949,0.00146
3386.89512,0.00143
3385.93074,0.00134
3384.96636,0.00121
3384.00198,0.00109
3383.03760,0.00102
3382.07323,0.00096
3381.10885,0.00096
3380.14447,0.00102
3379.18009,0.00110
3378.21571,0.00116
3377.25134,0.00115
3376.28696,0.00114
3375.32258,0.00116
3374.35820,0.00116
3373.39382,0.00119
3372.42945,0.00122
3371.46507,0.00124
3370.50069,0.00123
3369.53631,0.00126
3368.57194,0.00130
3367.60756,0.00127
3366.64318,0.00120
3365.67880,0.00113
3364.71442,0.00108
3363.75005,0.00108
3362.78567,0.00111
3361.82129,0.00116
3360.85691,0.00115
3359.89253,0.00112
3358.92816,0.00113
3357.96378,0.00113
3356.99940,0.00109
3356.03502,0.00101
3355.07065,0.00095
3354.10627,0.00095
3353.14189,0.00094
3352.17751,0.00095
3351.21313,0.00098
3350.24876,0.00103
3349.28438,0.00108
3348.32000,0.00111
3347.35562,0.00115
3346.39124,0.00120
3345.42687,0.00122
3344.46249,0.00123
3343.49811,0.00125
3342.53373,0.00126
3341.56935,0.00125
3340.60498,0.00121
3339.64060,0.00119
3338.67622,0.00118
3337.71184,0.00114
3336.74747,0.00109
3335.78309,0.00104
3334.81871,0.00098
3333.85433,0.00092
3332.88995,0.00088
3331.92558,0.00087
3330.96120,0.00088
3329.99682,0.00091
3329.03244,0.00095
3328.06806,0.00103
3327.10369,0.00110
3326.13931,0.00115
3325.17493,0.00115
3324.21055,0.00112
3323.24618,0.00108
3322.28180,0.00107
3321.31742,0.00107
3320.35304,0.00104
3319.38866,0.00103
3318.42429,0.00105
3317.45991,0.00109
3316.49553,0.00114
3315.53115,0.00118
3314.56677,0.00119
3313.60240,0.00118
3312.63802,0.00119
3311.67364,0.00122
3310.70926,0.00127
3309.74488,0.00129
3308.78051,0.00129
3307.81613,0.00132
3306.85175,0.00136
3305.88737,0.00137
3304.92300,0.00136
3303.95862,0.00130
3302.99424,0.00123
3302.02986,0.00115
3301.06548,0.00106
3300.10111,0.00099
3299.13673,0.00093
3298.17235,0.00086
3297.20797,0.00080
3296.24359,0.00080
3295.27922,0.00085
3294.31484,0.00094
3293.35046,0.00100
3292.38608,0.00103
3291.42171,0.00109
3290.45733,0.00113
3289.49295,0.00114
3288.52857,0.00118
3287.56419,0.00119
3286.59982,0.00114
3285.63544,0.00110
3284.67106,0.00109
3283.70668,0.00108
3282.74230,0.00105
3281.77793,0.00101
3280.81355,0.00100
3279.84917,0.00104
3278.88479,0.00107
3277.92041,0.00105
3276.95604,0.00104
3275.99166,0.00102
3275.02728,0.00101
3274.06290,0.00101
3273.09853,0.00098
3272.13415,0.00090
3271.16977,0.00083
3270.20539,0.00082
3269.24101,0.00086
3268.27664,0.00093
3267.31226,0.00096
3266.34788,0.00098
3265.38350,0.00104
3264.41912,0.00110
3263.45475,0.00115
3262.49037,0.00119
3261.52599,0.00117
3260.56161,0.00112
3259.59724,0.00106
3258.63286,0.00100
3257.66848,0.00097
3256.70410,0.00095
3255.73972,0.00092
3254.77535,0.00092
3253.81097,0.00094
3252.84659,0.00097
3251.88221,0.00103
3250.91783,0.00110
3249.95346,0.00116
3248.98908,0.00118
3248.02470,0.00119
3247.06032,0.00118
3246.09594,0.00115
3245.13157,0.00109
3244.16719,0.00102
3243.20281,0.00093
3242.23843,0.00083
3241.27406,0.00078
3240.30968,0.00081
3239.34530,0.00085
3238.38092,0.00088
3237.41654,0.00088
3236.45217,0.00089
3235.48779,0.00092
3234.52341,0.00095
3233.55903,0.00097
3232.59465,0.00097
3231.63028,0.00093
3230.66590,0.00087
3229.70152,0.00088
3228.73714,0.00096
3227.77276,0.00103
3226.80839,0.00108
3225.84401,0.00112
3224.87963,0.00114
3223.91525,0.00116
3222.95088,0.00117
3221.98650,0.00112
3221.02212,0.00105
3220.05774,0.00102
3219.09336,0.00104
3218.12899,0.00108
3217.16461,0.00110
3216.20023,0.00110
3215.23585,0.00108
3214.27147,0.00102
3213.30710,0.00095
3212.34272,0.00090
3211.37834,0.00087
3210.41396,0.00085
3209.44959,0.00084
3208.48521,0.00087
3207.52083,0.00091
3206.55645,0.00095
3205.59207,0.00097
3204.62770,0.00099
3203.66332,0.00098
3202.69894,0.00095
3201.73456,0.00093
3200.77018,0.00094
3199.80581,0.00100
3198.84143,0.00104
3197.87705,0.00100
3196.91267,0.00097
3195.94829,0.00097
3194.98392,0.00102
3194.01954,0.00107
3193.05516,0.00110
3192.09078,0.00109
3191.12641,0.00104
3190.16203,0.00101
3189.19765,0.00102
3188.23327,0.00102
3187.26889,0.00098
3186.30452,0.00094
3185.34014,0.00091
3184.37576,0.00090
3183.41138,0.00090
3182.44700,0.00090
3181.48263,0.00090
3180.51825,0.00088
3179.55387,0.00089
3178.58949,0.00097
3177.62512,0.00104
3176.66074,0.00108
3175.69636,0.00111
3174.73198,0.00116
3173.76760,0.00116
3172.80323,0.00112
3171.83885,0.00106
3170.87447,0.00099
3169.91009,0.00095
3168.94571,0.00091
3167.98134,0.00088
3167.01696,0.00084
3166.05258,0.00081
3165.08820,0.00079
3164.12382,0.00075
3163.15945,0.00074
3162.19507,0.00074
3161.23069,0.00072
3160.26631,0.00070
3159.30194,0.00069
3158.33756,0.00072
3157.37318,0.00078
3156.40880,0.00082
3155.44442,0.00083
3154.48005,0.00081
3153.51567,0.00077
3152.55129,0.00072
3151.58691,0.00073
3150.62253,0.00078
3149.65816,0.00080
3148.69378,0.00081
3147.72940,0.00083
3146.76502,0.00086
3145.80065,0.00093
3144.83627,0.00095
3143.87189,0.00091
3142.90751,0.00081
3141.94313,0.00071
3140.97876,0.00068
3140.01438,0.00070
3139.05000,0.00075
3138.08562,0.00077
3137.12124,0.00076
3136.15687,0.00076
3135.19249,0.00078
3134.22811,0.00081
3133.26373,0.00087
3132.29935,0.00095
3131.33498,0.00100
3130.37060,0.00103
3129.40622,0.00105
3128.44184,0.00104
3127.47747,0.00101
3126.51309,0.00093
3125.54871,0.00083
3124.58433,0.00073
3123.61995,0.00067
3122.65558,0.00068
3121.69120,0.00075
3120.72682,0.00085
3119.76244,0.00089
3118.79806,0.00086
3117.83369,0.00080
3116.86931,0.00074
3115.90493,0.00072
3114.94055,0.00072
3113.97618,0.00069
3113.01180,0.00065
3112.04742,0.00066
3111.08304,0.00073
3110.11866,0.00080
3109.15429,0.00085
3108.18991,0.00084
3107.22553,0.00079
3106.26115,0.00075
3105.29677,0.00072
3104.33240,0.00070
3103.36802,0.00071
3102.40364,0.00071
3101.43926,0.00068
3100.47488,0.00067
3099.51051,0.00067
3098.54613,0.00069
3097.58175,0.00072
3096.61737,0.00076
3095.65300,0.00080
3094.68862,0.00081
3093.72424,0.00078
3092.75986,0.00073
3091.79548,0.00070
3090.83111,0.00067
3089.86673,0.00064
3088.90235,0.00061
3087.93797,0.00058
3086.97359,0.00061
3086.00922,0.00072
3085.04484,0.00084
3084.08046,0.00091
3083.11608,0.00095
3082.15171,0.00095
3081.18733,0.00090
3080.22295,0.00085
3079.25857,0.00081
3078.29419,0.00077
3077.32982,0.00073
3076.36544,0.00069
3075.40106,0.00067
3074.43668,0.00069
3073.47230,0.00070
3072.50793,0.00070
3071.54355,0.00071
3070.57917,0.00072
3069.61479,0.00073
3068.65041,0.00075
3067.68604,0.00079
3066.72166,0.00085
3065.75728,0.00089
3064.79290,0.00090
3063.82853,0.00088
3062.86415,0.00086
3061.89977,0.00085
3060.93539,0.00083
3059.97101,0.00079
3059.00664,0.00076
3058.04226,0.00074
3057.07788,0.00072
3056.11350,0.00071
3055.14912,0.00071
3054.18475,0.00070
3053.22037,0.00069
3052.25599,0.00069
3051.29161,0.00072
3050.32724,0.00079
3049.36286,0.00085
3048.39848,0.00089
3047.43410,0.00090
3046.46972,0.00088
3045.50535,0.00084
3044.54097,0.00078
3043.57659,0.00072
3042.61221,0.00070
3041.64783,0.00071
3040.68346,0.00073
3039.71908,0.00077
3038.75470,0.00085
3037.79032,0.00094
3036.82594,0.00096
3035.86157,0.00094
3034.89719,0.00091
3033.93281,0.00088
3032.96843,0.00086
3032.00406,0.00085
3031.03968,0.00087
3030.07530,0.00091
3029.11092,0.00091
3028.14654,0.00091
3027.18217,0.00094
3026.21779,0.00097
3025.25341,0.00097
3024.28903,0.00096
3023.32465,0.00093
3022.36028,0.00091
3021.39590,0.00090
3020.43152,0.00087
3019.46714,0.00086
3018.50276,0.00083
3017.53839,0.00078
3016.57401,0.00077
3015.60963,0.00076
3014.64525,0.00075
3013.68088,0.00078
3012.71650,0.00079
3011.75212,0.00080
3010.78774,0.00079
3009.82336,0.00080
3008.85899,0.00085
3007.89461,0.00089
3006.93023,0.00090
3005.96585,0.00088
3005.00147,0.00086
3004.03710,0.00085
3003.07272,0.00083
3002.10834,0.00083
3001.14396,0.00082
3000.17959,0.00081
2999.21521,0.00081
2998.25083,0.00083
2997.28645,0.00087
2996.32207,0.00088
2995.35770,0.00087
2994.39332,0.00084
2993.42894,0.00082
2992.46456,0.00083
2991.50018,0.00082
2990.53581,0.00080
2989.57143,0.00078
2988.60705,0.00078
2987.64267,0.00078
2986.67829,0.00078
2985.71392,0.00081
2984.74954,0.00087
2983.78516,0.00096
2982.82078,0.00102
2981.85641,0.00106
2980.89203,0.00108
2979.92765,0.00106
2978.96327,0.00105
2977.99889,0.00102
2977.03452,0.00098
2976.07014,0.00094
2975.10576,0.00090
2974.14138,0.00090
2973.17700,0.00094
2972.21263,0.00101
2971.24825,0.00106
2970.28387,0.00108
2969.31949,0.00114
2968.35512,0.00120
2967.39074,0.00126
2966.42636,0.00128
2965.46198,0.00130
2964.49760,0.00131
2963.53323,0.00130
2962.56885,0.00130
2961.60447,0.00133
2960.64009,0.00134
2959.67571,0.00135
2958.71134,0.00133
2957.74696,0.00132
2956.78258,0.00131
2955.81820,0.00130
2954.85382,0.00128
2953.88945,0.00125
2952.92507,0.00124
2951.96069,0.00126
2950.99631,0.00131
2950.03194,0.00139
2949.06756,0.00145
2948.10318,0.00147
2947.13880,0.00146
2946.17442,0.00144
2945.21005,0.00144
2944.24567,0.00143
2943.28129,0.00140
2942.31691,0.00136
2941.35253,0.00138
2940.38816,0.00144
2939.42378,0.00153
2938.45940,0.00164
2937.49502,0.00174
2936.53065,0.00184
2935.56627,0.00196
2934.60189,0.00210
2933.63751,0.00221
2932.67313,0.00232
2931.70876,0.00240
2930.74438,0.00246
2929.78000,0.00252
2928.81562,0.00259
2927.85124,0.00267
2926.88687,0.00272
2925.92249,0.00275
2924.95811,0.00278
2923.99373,0.00282
2923.02935,0.00285
2922.06498,0.00283
2921.10060,0.00280
2920.13622,0.00273
2919.17184,0.00262
2918.20747,0.00251
2917.24309,0.00242
2916.27871,0.00232
2915.31433,0.00219
2914.34995,0.00206
2913.38558,0.00199
2912.42120,0.00193
2911.45682,0.00187
2910.49244,0.00182
2909.52806,0.00179
2908.56369,0.00176
2907.59931,0.00173
2906.63493,0.00170
2905.67055,0.00166
2904.70618,0.00160
2903.74180,0.00153
2902.77742,0.00146
2901.81304,0.00138
2900.84866,0.00131
2899.88429,0.00124
2898.91991,0.00118
2897.95553,0.00117
2896.99115,0.00122
2896.02677,0.00127
2895.06240,0.00132
2894.09802,0.00137
2893.13364,0.00140
2892.16926,0.00140
2891.20488,0.00137
2890.24051,0.00133
2889.27613,0.00131
2888.31175,0.00128
2887.34737,0.00124
2886.38300,0.00121
2885.41862,0.00119
2884.45424,0.00115
2883.48986,0.00113
2882.52548,0.00113
2881.56111,0.00110
2880.59673,0.00106
2879.63235,0.00105
2878.66797,0.00104
2877.70359,0.00107
2876.73922,0.00109
2875.77484,0.00108
2874.81046,0.00105
2873.84608,0.00100
2872.88171,0.00100
2871.91733,0.00102
2870.95295,0.00102
2869.98857,0.00104
2869.02419,0.00107
2868.05982,0.00111
2867.09544,0.00114
2866.13106,0.00120
2865.16668,0.00127
2864.20230,0.00134
2863.23793,0.00139
2862.27355,0.00146
2861.30917,0.00155
2860.34479,0.00161
2859.38041,0.00166
2858.41604,0.00172
2857.45166,0.00176
2856.48728,0.00177
2855.52290,0.00179
2854.55853,0.00183
2853.59415,0.00187
2852.62977,0.00187
2851.66539,0.00183
2850.70101,0.00177
2849.73664,0.00170
2848.77226,0.00159
2847.80788,0.00147
2846.84350,0.00136
2845.87912,0.00127
2844.91475,0.00120
2843.95037,0.00116
2842.98599,0.00114
2842.02161,0.00110
2841.05724,0.00106
2840.09286,0.00103
2839.12848,0.00102
2838.16410,0.00101
2837.19972,0.00099
2836.23535,0.00098
2835.27097,0.00098
2834.30659,0.00097
2833.34221,0.00095
2832.37783,0.00091
2831.41346,0.00087
2830.44908,0.00085
2829.48470,0.00084
2828.52032,0.00082
2827.55594,0.00081
2826.59157,0.00081
2825.62719,0.00081
2824.66281,0.00080
2823.69843,0.00079
2822.73406,0.00078
2821.76968,0.00075
2820.80530,0.00072
2819.84092,0.00072
2818.87654,0.00073
2817.91217,0.00074
2816.94779,0.00075
2815.98341,0.00077
2815.01903,0.00078
2814.05465,0.00079
2813.09028,0.00080
2812.12590,0.00081
2811.16152,0.00079
2810.19714,0.00073
2809.23276,0.00070
2808.26839,0.00068
2807.30401,0.00067
2806.33963,0.00068
2805.37525,0.00069
2804.41088,0.00070
2803.44650,0.00071
2802.48212,0.00074
2801.51774,0.00076
2800.55336,0.00078
2799.58899,0.00077
2798.62461,0.00076
2797.66023,0.00077
2796.69585,0.00078
2795.73147,0.00078
2794.76710,0.00076
2793.80272,0.00075
2792.83834,0.00075
2791.87396,0.00077
2790.90959,0.00077
2789.94521,0.00075
2788.98083,0.00075
2788.01645,0.00074
2787.05207,0.00073
2786.08770,0.00073
2785.12332,0.00073
2784.15894,0.00073
2783.19456,0.00074
2782.23018,0.00076
2781.26581,0.00078
2780.30143,0.00081
2779.33705,0.00081
2778.37267,0.00080
2777.40829,0.00081
2776.44392,0.00082
2775.47954,0.00083
2774.51516,0.00084
2773.55078,0.00083
2772.58641,0.00082
2771.62203,0.00079
2770.65765,0.00075
2769.69327,0.00070
2768.72889,0.00066
2767.76452,0.00062
2766.80014,0.00059
2765.83576,0.00058
2764.87138,0.00060
2763.90700,0.00062
2762.94263,0.00064
2761.97825,0.00066
2761.01387,0.00068
2760.04949,0.00070
2759.08512,0.00069
2758.12074,0.00067
2757.15636,0.00064
2756.19198,0.00063
2755.22760,0.00064
2754.26323,0.00064
2753.29885,0.00065
2752.33447,0.00067
2751.37009,0.00069
2750.40571,0.00072
2749.44134,0.00072
2748.47696,0.00070
2747.51258,0.00067
2746.54820,0.00066
2745.58382,0.00065
2744.61945,0.00065
2743.65507,0.00067
2742.69069,0.00069
2741.72631,0.00072
2740.76194,0.00076
2739.79756,0.00077
2738.83318,0.00075
2737.86880,0.00071
2736.90442,0.00067
2735.94005,0.00066
2734.97567,0.00066
2734.01129,0.00067
2733.04691,0.00070
2732.08253,0.00074
2731.11816,0.00076
2730.15378,0.00079
2729.18940,0.00080
2728.22502,0.00077
2727.26065,0.00071
2726.29627,0.00068
2725.33189,0.00066
2724.36751,0.00065
2723.40313,0.00064
2722.43876,0.00065
2721.47438,0.00068
2720.51000,0.00070
2719.54562,0.00069
2718.58124,0.00067
2717.61687,0.00065
2716.65249,0.00061
2715.68811,0.00058
2714.72373,0.00058
2713.75935,0.00058
2712.79498,0.00058
2711.83060,0.00058
2710.86622,0.00058
2709.90184,0.00059
2708.93747,0.00060
2707.97309,0.00061
2707.00871,0.00063
2706.04433,0.00064
2705.07995,0.00065
2704.11558,0.00068
2703.15120,0.00069
2702.18682,0.00068
2701.22244,0.00068
2700.25806,0.00066
2699.29369,0.00063
2698.32931,0.00061
2697.36493,0.00059
2696.40055,0.00058
2695.43618,0.00059
2694.47180,0.00060
2693.50742,0.00063
2692.54304,0.00065
2691.57866,0.00065
2690.61429,0.00064
2689.64991,0.00064
2688.68553,0.00064
2687.72115,0.00065
2686.75677,0.00067
2685.79240,0.00068
2684.82802,0.00068
2683.86364,0.00068
2682.89926,0.00069
2681.93488,0.00069
2680.97051,0.00069
2680.00613,0.00068
2679.04175,0.00064
2678.07737,0.00060
2677.11300,0.00060
2676.14862,0.00060
2675.18424,0.00061
2674.21986,0.00060
2673.25548,0.00059
2672.29111,0.00059
2671.32673,0.00059
2670.36235,0.00058
2669.39797,0.00058
2668.43359,0.00057
2667.46922,0.00054
2666.50484,0.00052
2665.54046,0.00052
2664.57608,0.00051
2663.61171,0.00050
2662.64733,0.00050
2661.68295,0.00050
2660.71857,0.00051
2659.75419,0.00054
2658.78982,0.00058
2657.82544,0.00061
2656.86106,0.00063
2655.89668,0.00064
2654.93230,0.00066
2653.96793,0.00069
2653.00355,0.00071
2652.03917,0.00072
2651.07479,0.00074
2650.11041,0.00074
2649.14604,0.00074
2648.18166,0.00073
2647.21728,0.00070
2646.25290,0.00066
2645.28853,0.00063
2644.32415,0.00060
2643.35977,0.00060
2642.39539,0.00061
2641.43101,0.00062
2640.46664,0.00065
2639.50226,0.00069
2638.53788,0.00070
2637.57350,0.00069
2636.60912,0.00065
2635.64475,0.00058
2634.68037,0.00052
2633.71599,0.00049
2632.75161,0.00046
2631.78724,0.00042
2630.82286,0.00039
2629.85848,0.00041
2628.89410,0.00048
2627.92972,0.00055
2626.96535,0.00060
2626.00097,0.00064
2625.03659,0.00069
2624.07221,0.00073
2623.10783,0.00074
2622.14346,0.00072
2621.17908,0.00069
2620.21470,0.00062
2619.25032,0.00058
2618.28594,0.00056
2617.32157,0.00053
2616.35719,0.00049
2615.39281,0.00047
2614.42843,0.00050
2613.46406,0.00056
2612.49968,0.00061
2611.53530,0.00061
2610.57092,0.00057
2609.60654,0.00057
2608.64217,0.00061
2607.67779,0.00062
2606.71341,0.00061
2605.74903,0.00057
2604.78465,0.00054
2603.82028,0.00053
2602.85590,0.00055
2601.89152,0.00056
2600.92714,0.00058
2599.96276,0.00059
2598.99839,0.00060
2598.03401,0.00068
2597.06963,0.00077
2596.10525,0.00078
2595.14088,0.00076
2594.17650,0.00072
2593.21212,0.00065
2592.24774,0.00057
2591.28336,0.00051
2590.31899,0.00045
2589.35461,0.00041
2588.39023,0.00037
2587.42585,0.00036
2586.46147,0.00043
2585.49710,0.00050
2584.53272,0.00054
2583.56834,0.00055
2582.60396,0.00055
2581.63959,0.00055
2580.67521,0.00053
2579.71083,0.00054
2578.74645,0.00053
2577.78207,0.00049
2576.81770,0.00046
2575.85332,0.00048
2574.88894,0.00054
2573.92456,0.00059
2572.96018,0.00064
2571.99581,0.00066
2571.03143,0.00068
2570.06705,0.00069
2569.10267,0.00070
2568.13829,0.00075
2567.17392,0.00078
2566.20954,0.00074
2565.24516,0.00068
2564.28078,0.00063
2563.31641,0.00062
2562.35203,0.00061
2561.38765,0.00059
2560.42327,0.00055
2559.45889,0.00053
2558.49452,0.00054
2557.53014,0.00055
2556.56576,0.00059
2555.60138,0.00062
2554.63700,0.00062
2553.67263,0.00064
2552.70825,0.00066
2551.74387,0.00068
2550.77949,0.00068
2549.81512,0.00066
2548.85074,0.00067
2547.88636,0.00066
2546.92198,0.00060
2545.95760,0.00049
2544.99323,0.00044
2544.02885,0.00051
2543.06447,0.00060
2542.10009,0.00067
2541.13571,0.00066
2540.17134,0.00061
2539.20696,0.00061
2538.24258,0.00065
2537.27820,0.00066
2536.31382,0.00062
2535.34945,0.00056
2534.38507,0.00054
2533.42069,0.00058
2532.45631,0.00061
2531.49194,0.00063
2530.52756,0.00061
2529.56318,0.00055
2528.59880,0.00048
2527.63442,0.00050
2526.67005,0.00052
2525.70567,0.00053
2524.74129,0.00058
2523.77691,0.00064
2522.81253,0.00062
2521.84816,0.00050
2520.88378,0.00042
2519.91940,0.00041
2518.95502,0.00042
2517.99065,0.00039
2517.02627,0.00036
2516.06189,0.00037
2515.09751,0.00041
2514.13313,0.00046
2513.16876,0.00055
2512.20438,0.00061
2511.24000,0.00060
2510.27562,0.00060
2509.31124,0.00066
2508.34687,0.00069
2507.38249,0.00065
2506.41811,0.00062
2505.45373,0.00058
2504.48935,0.00055
2503.52498,0.00051
2502.56060,0.00043
2501.59622,0.00038
2500.63184,0.00035
2499.66747,0.00032
2498.70309,0.00034
2497.73871,0.00035
2496.77433,0.00034
2495.80995,0.00039
2494.84558,0.00046
2493.88120,0.00050
2492.91682,0.00050
2491.95244,0.00047
2490.98806,0.00045
2490.02369,0.00041
2489.05931,0.00037
2488.09493,0.00036
2487.13055,0.00037
2486.16618,0.00037
2485.20180,0.00040
2484.23742,0.00045
2483.27304,0.00049
2482.30866,0.00050
2481.34429,0.00052
2480.37991,0.00053
2479.41553,0.00055
2478.45115,0.00057
2477.48677,0.00057
2476.52240,0.00057
2475.55802,0.00057
2474.59364,0.00059
2473.62926,0.00065
2472.66488,0.00069
2471.70051,0.00071
2470.73613,0.00067
2469.77175,0.00065
2468.80737,0.00061
2467.84300,0.00055
2466.87862,0.00053
2465.91424,0.00050
2464.94986,0.00050
2463.98548,0.00055
2463.02111,0.00063
2462.05673,0.00068
2461.09235,0.00068
2460.12797,0.00068
2459.16359,0.00069
2458.19922,0.00067
2457.23484,0.00063
2456.27046,0.00060
2455.30608,0.00062
2454.34171,0.00062
2453.37733,0.00058
2452.41295,0.00055
2451.44857,0.00051
2450.48419,0.00046
2449.51982,0.00047
2448.55544,0.00055
2447.59106,0.00062
2446.62668,0.00061
2445.66230,0.00060
2444.69793,0.00059
2443.73355,0.00055
2442.76917,0.00046
2441.80479,0.00033
2440.84041,0.00023
2439.87604,0.00021
2438.91166,0.00024
2437.94728,0.00033
2436.98290,0.00043
2436.01853,0.00047
2435.05415,0.00047
2434.08977,0.00048
2433.12539,0.00046
2432.16101,0.00041
2431.19664,0.00035
2430.23226,0.00034
2429.26788,0.00039
2428.30350,0.00046
2427.33912,0.00049
2426.37475,0.00050
2425.41037,0.00051
2424.44599,0.00049
2423.48161,0.00049
2422.51724,0.00049
2421.55286,0.00044
2420.58848,0.00043
2419.62410,0.00050
2418.65972,0.00059
2417.69535,0.00066
2416.73097,0.00068
2415.76659,0.00070
2414.80221,0.00073
2413.83783,0.00074
2412.87346,0.00073
2411.90908,0.00065
2410.94470,0.00053
2409.98032,0.00042
2409.01594,0.00039
2408.05157,0.00039
2407.08719,0.00039
2406.12281,0.00042
2405.15843,0.00049
2404.19406,0.00059
2403.22968,0.00068
2402.26530,0.00075
2401.30092,0.00079
2400.33654,0.00079
2399.37217,0.00077
2398.40779,0.00075
2397.44341,0.00072
2396.47903,0.00071
2395.51465,0.00069
2394.55028,0.00067
2393.58590,0.00065
2392.62152,0.00061
2391.65714,0.00058
2390.69276,0.00054
2389.72839,0.00050
2388.76401,0.00047
2387.79963,0.00045
2386.83525,0.00045
2385.87088,0.00046
2384.90650,0.00048
2383.94212,0.00052
2382.97774,0.00057
2382.01336,0.00060
2381.04899,0.00061
2380.08461,0.00063
2379.12023,0.00063
2378.15585,0.00060
2377.19147,0.00054
2376.22710,0.00046
2375.26272,0.00039
2374.29834,0.00032
2373.33396,0.00024
2372.36959,0.00018
2371.40521,0.00011
2370.44083,0.00004
2369.47645,-0.00000
2368.51207,0.00001
2367.54770,0.00004
2366.58332,0.00006
2365.61894,0.00008
2364.65456,0.00009
2363.69018,0.00012
2362.72581,0.00019
2361.76143,0.00024
2360.79705,0.00026
2359.83267,0.00026
2358.86829,0.00027
2357.90392,0.00028
2356.93954,0.00029
2355.97516,0.00033
2355.01078,0.00038
2354.04641,0.00041
2353.08203,0.00041
2352.11765,0.00044
2351.15327,0.00049
2350.18889,0.00050
2349.22452,0.00047
2348.26014,0.00044
2347.29576,0.00040
2346.33138,0.00038
2345.36700,0.00037
2344.40263,0.00036
2343.43825,0.00037
2342.47387,0.00037
2341.50949,0.00037
2340.54512,0.00037
2339.58074,0.00038
2338.61636,0.00034
2337.65198,0.00030
2336.68760,0.00030
2335.72323,0.00031
2334.75885,0.00032
2333.79447,0.00030
2332.83009,0.00029
2331.86571,0.00029
2330.90134,0.00028
2329.93696,0.00029
2328.97258,0.00032
2328.00820,0.00034
2327.04382,0.00034
2326.07945,0.00034
2325.11507,0.00035
2324.15069,0.00033
2323.18631,0.00029
2322.22194,0.00024
2321.25756,0.00021
2320.29318,0.00017
2319.32880,0.00014
2318.36442,0.00014
2317.40005,0.00019
2316.43567,0.00024
2315.47129,0.00030
2314.50691,0.00035
2313.54253,0.00039
2312.57816,0.00043
2311.61378,0.00047
2310.64940,0.00046
2309.68502,0.00045
2308.72065,0.00042
2307.75627,0.00035
2306.79189,0.00030
2305.82751,0.00030
2304.86313,0.00032
2303.89876,0.00030
2302.93438,0.00028
2301.97000,0.00028
2301.00562,0.00031
2300.04124,0.00033
2299.07687,0.00030
2298.11249,0.00033
2297.14811,0.00037
2296.18373,0.00037
2295.21935,0.00043
2294.25498,0.00051
2293.29060,0.00054
2292.32622,0.00051
2291.36184,0.00053
2290.39747,0.00058
2289.43309,0.00062
2288.46871,0.00068
2287.50433,0.00067
2286.53995,0.00062
2285.57558,0.00055
2284.61120,0.00049
2283.64682,0.00047
2282.68244,0.00041
2281.71806,0.00031
2280.75369,0.00024
2279.78931,0.00024
2278.82493,0.00027
2277.86055,0.00030
2276.89618,0.00039
2275.93180,0.00045
2274.96742,0.00050
2274.00304,0.00062
2273.03866,0.00074
2272.07429,0.00079
2271.10991,0.00078
2270.14553,0.00078
2269.18115,0.00082
2268.21677,0.00086
2267.25240,0.00083
2266.28802,0.00073
2265.32364,0.00073
2264.35926,0.00085
2263.39488,0.00096
2262.43051,0.00091
2261.46613,0.00071
2260.50175,0.00049
2259.53737,0.00029
2258.57300,0.00014
2257.60862,0.00002
2256.64424,-0.00006
2255.67986,-0.00014
2254.71548,-0.00015
2253.75111,0.00002
2252.78673,0.00026
2251.82235,0.00047
2250.85797,0.00051
2249.89359,0.00053
2248.92922,0.00054
2247.96484,0.00048
2247.00046,0.00034
2246.03608,0.00020
2245.07171,0.00016
2244.10733,0.00012
2243.14295,0.00012
2242.17857,0.00021
2241.21419,0.00033
2240.24982,0.00061
2239.28544,0.00093
2238.32106,0.00118
2237.35668,0.00117
2236.39230,0.00082
2235.42793,0.00033
2234.46355,0.00000
2233.49917,-0.00001
2232.53479,-0.00005
2231.57041,-0.00020
2230.60604,-0.00034
2229.64166,-0.00038
2228.67728,-0.00022
2227.71290,-0.00000
2226.74853,0.00015
2225.78415,0.00016
2224.81977,0.00001
2223.85539,-0.00011
2222.89101,-0.00003
2221.92664,0.00013
2220.96226,0.00009
2219.99788,-0.00004
2219.03350,-0.00006
2218.06912,-0.00012
2217.10475,-0.00019
2216.14037,-0.00028
2215.17599,-0.00029
2214.21161,-0.00014
2213.24724,-0.00001
2212.28286,0.00001
2211.31848,-0.00011
2210.35410,-0.00031
2209.38972,-0.00039
2208.42535,-0.00019
2207.46097,0.00005
2206.49659,0.00020
2205.53221,0.00033
2204.56783,0.00046
2203.60346,0.00068
2202.63908,0.00097
2201.67470,0.00116
2200.71032,0.00119
2199.74594,0.00107
2198.78157,0.00094
2197.81719,0.00090
2196.85281,0.00094
2195.88843,0.00093
2194.92406,0.00093
2193.95968,0.00092
2192.99530,0.00091
2192.03092,0.00090
2191.06654,0.00090
2190.10217,0.00089
2189.13779,0.00088
2188.17341,0.00088
2187.20903,0.00087
2186.24465,0.00086
2185.28028,0.00086
2184.31590,0.00085
2183.35152,0.00084
2182.38714,0.00083
2181.42276,0.00083
2180.45839,0.00082
2179.49401,0.00081
2178.52963,0.00081
2177.56525,0.00080
2176.60088,0.00079
2175.63650,0.00079
2174.67212,0.00078
2173.70774,0.00077
2172.74336,0.00076
2171.77899,0.00076
2170.81461,0.00075
2169.85023,0.00074
2168.88585,0.00074
2167.92147,0.00073
2166.95710,0.00072
2165.99272,0.00072
2165.02834,0.00071
2164.06396,0.00070
2163.09959,0.00069
2162.13521,0.00069
2161.17083,0.00068
2160.20645,0.00067
2159.24207,0.00067
2158.27770,0.00066
2157.31332,0.00065
2156.34894,0.00064
2155.38456,0.00064
2154.42018,0.00063
2153.45581,0.00062
2152.49143,0.00062
2151.52705,0.00061
2150.56267,0.00060
2149.59829,0.00060
2148.63392,0.00059
2147.66954,0.00058
2146.70516,0.00057
2145.74078,0.00057
2144.77641,0.00056
2143.81203,0.00055
2142.84765,0.00055
2141.88327,0.00054
2140.91889,0.00053
2139.95452,0.00053
2138.99014,0.00052
2138.02576,0.00051
2137.06138,0.00050
2136.09700,0.00050
2135.13263,0.00049
2134.16825,0.00048
2133.20387,0.00048
2132.23949,0.00047
2131.27512,0.00046
2130.31074,0.00046
2129.34636,0.00045
2128.38198,0.00044
2127.41760,0.00043
2126.45323,0.00043
2125.48885,0.00042
2124.52447,0.00041
2123.56009,0.00041
2122.59571,0.00040
2121.63134,0.00039
2120.66696,0.00039
2119.70258,0.00038
2118.73820,0.00037
2117.77382,0.00036
2116.80945,0.00036
2115.84507,0.00035
2114.88069,0.00034
2113.91631,0.00034
2112.95194,0.00033
2111.98756,0.00032
2111.02318,0.00031
2110.05880,0.00031
2109.09442,0.00030
2108.13005,0.00029
2107.16567,0.00029
2106.20129,0.00028
2105.23691,0.00027
2104.27253,0.00027
2103.30816,0.00026
2102.34378,0.00025
2101.37940,0.00024
2100.41502,0.00024
2099.45065,0.00023
2098.48627,0.00022
2097.52189,0.00022
2096.55751,0.00021
2095.59313,0.00020
2094.62876,0.00020
2093.66438,0.00019
2092.70000,0.00018
2091.73562,0.00017
2090.77124,0.00017
2089.80687,0.00016
2088.84249,0.00015
2087.87811,0.00015
2086.91373,0.00014
2085.94935,0.00013
2084.98498,0.00013
2084.02060,0.00012
2083.05622,0.00011
2082.09184,0.00010
2081.12747,0.00010
2080.16309,0.00009
2079.19871,0.00008
2078.23433,0.00008
2077.26995,0.00007
2076.30558,0.00006
2075.34120,0.00006
2074.37682,0.00005
2073.41244,0.00004
2072.44806,0.00003
2071.48369,0.00003
2070.51931,0.00002
2069.55493,0.00001
2068.59055,0.00001
2067.62618,-0.00000
2066.66180,-0.00001
2065.69742,-0.00002
2064.73304,-0.00002
2063.76866,-0.00003
2062.80429,-0.00004
2061.83991,-0.00004
2060.87553,-0.00005
2059.91115,-0.00006
2058.94677,-0.00006
2057.98240,-0.00007
2057.01802,-0.00008
2056.05364,-0.00009
2055.08926,-0.00009
2054.12488,-0.00010
2053.16051,-0.00011
2052.19613,-0.00011
2051.23175,-0.00012
2050.26737,-0.00013
2049.30300,-0.00013
2048.33862,-0.00014
2047.37424,-0.00015
2046.40986,-0.00016
2045.44548,-0.00016
2044.48111,-0.00017
2043.51673,-0.00018
2042.55235,-0.00018
2041.58797,-0.00019
2040.62359,-0.00020
2039.65922,-0.00020
2038.69484,-0.00021
2037.73046,-0.00022
2036.76608,-0.00023
2035.80171,-0.00023
2034.83733,-0.00024
2033.87295,-0.00025
2032.90857,-0.00025
2031.94419,-0.00026
2030.97982,-0.00027
2030.01544,-0.00027
2029.05106,-0.00028
2028.08668,-0.00029
2027.12230,-0.00030
2026.15793,-0.00030
2025.19355,-0.00031
2024.22917,-0.00032
2023.26479,-0.00032
2022.30041,-0.00033
2021.33604,-0.00034
2020.37166,-0.00035
2019.40728,-0.00035
2018.44290,-0.00036
2017.47853,-0.00037
2016.51415,-0.00037
2015.54977,-0.00038
2014.58539,-0.00039
2013.62101,-0.00039
2012.65664,-0.00040
2011.69226,-0.00041
2010.72788,-0.00042
2009.76350,-0.00042
2008.79912,-0.00043
2007.83475,-0.00044
2006.87037,-0.00044
2005.90599,-0.00045
2004.94161,-0.00046
2003.97724,-0.00046
2003.01286,-0.00047
2002.04848,-0.00048
2001.08410,-0.00049
2000.11972,-0.00049
1999.15535,-0.00050
1998.19097,-0.00051
1997.22659,-0.00051
1996.26221,-0.00052
1995.29783,-0.00053
1994.33346,-0.00053
1993.36908,-0.00054
1992.40470,-0.00055
1991.44032,-0.00056
1990.47594,-0.00056
1989.51157,-0.00057
1988.54719,-0.00058
1987.58281,-0.00058
1986.61843,-0.00059
1985.65406,-0.00060
1984.68968,-0.00060
1983.72530,-0.00061
1982.76092,-0.00062
1981.79654,-0.00063
1980.83217,-0.00063
1979.86779,-0.00064
1978.90341,-0.00065
1977.93903,-0.00065
1976.97465,-0.00066
1976.01028,-0.00067
1975.04590,-0.00068
1974.08152,-0.00068
1973.11714,-0.00069
1972.15276,-0.00070
1971.18839,-0.00070
1970.22401,-0.00071
1969.25963,-0.00072
1968.29525,-0.00072
1967.33088,-0.00073
1966.36650,-0.00074
1965.40212,-0.00075
1964.43774,-0.00075
1963.47336,-0.00076
1962.50899,-0.00076
1961.54461,-0.00084
1960.58023,-0.00084
1959.61585,-0.00082
1958.65147,-0.00080
1957.68710,-0.00068
1956.72272,-0.00042
1955.75834,-0.00020
1954.79396,-0.00003
1953.82959,0.00020
1952.86521,0.00052
1951.90083,0.00088
1950.93645,0.00110
1949.97207,0.00109
1949.00770,0.00117
1948.04332,0.00125
1947.07894,0.00123
1946.11456,0.00111
1945.15018,0.00082
1944.18581,0.00043
1943.22143,0.00008
1942.25705,-0.00017
1941.29267,-0.00032
1940.32829,-0.00037
1939.36392,-0.00041
1938.39954,-0.00039
1937.43516,-0.00020
1936.47078,0.00006
1935.50641,0.00028
1934.54203,0.00036
1933.57765,0.00039
1932.61327,0.00053
1931.64889,0.00067
1930.68452,0.00076
1929.72014,0.00084
1928.75576,0.00094
1927.79138,0.00098
1926.82700,0.00084
1925.86263,0.00070
1924.89825,0.00059
1923.93387,0.00043
1922.96949,0.00023
1922.00512,0.00005
1921.04074,-0.00002
1920.07636,-0.00004
1919.11198,-0.00004
1918.14760,-0.00000
1917.18323,0.00013
1916.21885,0.00026
1915.25447,0.00031
1914.29009,0.00038
1913.32571,0.00043
1912.36134,0.00036
1911.39696,0.00024
1910.43258,0.00018
1909.46820,0.00020
1908.50382,0.00024
1907.53945,0.00029
1906.57507,0.00035
1905.61069,0.00046
1904.64631,0.00059
1903.68194,0.00064
1902.71756,0.00064
1901.75318,0.00065
1900.78880,0.00057
1899.82442,0.00042
1898.86005,0.00034
1897.89567,0.00032
1896.93129,0.00035
1895.96691,0.00041
1895.00253,0.00041
1894.03816,0.00048
1893.07378,0.00063
1892.10940,0.00077
1891.14502,0.00088
1890.18065,0.00096
1889.21627,0.00097
1888.25189,0.00088
1887.28751,0.00073
1886.32313,0.00056
1885.35876,0.00045
1884.39438,0.00036
1883.43000,0.00029
1882.46562,0.00026
1881.50124,0.00027
1880.53687,0.00027
1879.57249,0.00028
1878.60811,0.00032
1877.64373,0.00037
1876.67935,0.00038
1875.71498,0.00033
1874.75060,0.00026
1873.78622,0.00022
1872.82184,0.00022
1871.85747,0.00027
1870.89309,0.00034
1869.92871,0.00044
1868.96433,0.00055
1867.99995,0.00064
1867.03558,0.00071
1866.07120,0.00074
1865.10682,0.00069
1864.14244,0.00056
1863.17806,0.00042
1862.21369,0.00034
1861.24931,0.00031
1860.28493,0.00031
1859.32055,0.00031
1858.35618,0.00031
1857.39180,0.00037
1856.42742,0.00043
1855.46304,0.00047
1854.49866,0.00046
1853.53429,0.00040
1852.56991,0.00037
1851.60553,0.00040
1850.64115,0.00044
1849.67677,0.00043
1848.71240,0.00038
1847.74802,0.00034
1846.78364,0.00034
1845.81926,0.00037
1844.85488,0.00040
1843.89051,0.00041
1842.92613,0.00040
1841.96175,0.00039
1840.99737,0.00047
1840.03300,0.00058
1839.06862,0.00063
1838.10424,0.00064
1837.13986,0.00065
1836.17548,0.00065
1835.21111,0.00061
1834.24673,0.00057
1833.28235,0.00052
1832.31797,0.00046
1831.35359,0.00036
1830.38922,0.00029
1829.42484,0.00029
1828.46046,0.00033
1827.49608,0.00037
1826.53171,0.00041
1825.56733,0.00045
1824.60295,0.00045
1823.63857,0.00046
1822.67419,0.00048
1821.70982,0.00048
1820.74544,0.00045
1819.78106,0.00041
1818.81668,0.00039
1817.85230,0.00038
1816.88793,0.00039
1815.92355,0.00042
1814.95917,0.00045
1813.99479,0.00044
1813.03041,0.00042
1812.06604,0.00038
1811.10166,0.00035
1810.13728,0.00034
1809.17290,0.00034
1808.20853,0.00035
1807.24415,0.00036
1806.27977,0.00037
1805.31539,0.00039
1804.35101,0.00044
1803.38664,0.00048
1802.42226,0.00050
1801.45788,0.00048
1800.49350,0.00046
1799.52912,0.00047
1798.56475,0.00048
1797.60037,0.00045
1796.63599,0.00045
1795.67161,0.00044
1794.70724,0.00042
1793.74286,0.00042
1792.77848,0.00044
1791.81410,0.00045
1790.84972,0.00042
1789.88535,0.00039
1788.92097,0.00038
1787.95659,0.00038
1786.99221,0.00040
1786.02783,0.00042
1785.06346,0.00047
1784.09908,0.00051
1783.13470,0.00056
1782.17032,0.00062
1781.20594,0.00065
1780.24157,0.00064
1779.27719,0.00059
1778.31281,0.00056
1777.34843,0.00052
1776.38406,0.00050
1775.41968,0.00051
1774.45530,0.00051
1773.49092,0.00050
1772.52654,0.00050
1771.56217,0.00052
1770.59779,0.00054
1769.63341,0.00054
1768.66903,0.00053
1767.70465,0.00053
1766.74028,0.00054
1765.77590,0.00055
1764.81152,0.00057
1763.84714,0.00058
1762.88276,0.00058
1761.91839,0.00057
1760.95401,0.00057
1759.98963,0.00057
1759.02525,0.00057
1758.06088,0.00059
1757.09650,0.00061
1756.13212,0.00063
1755.16774,0.00065
1754.20336,0.00067
1753.23899,0.00071
1752.27461,0.00075
1751.31023,0.00079
1750.34585,0.00081
1749.38147,0.00082
1748.41710,0.00083
1747.45272,0.00085
1746.48834,0.00087
1745.52396,0.00089
1744.55959,0.00091
1743.59521,0.00091
1742.63083,0.00090
1741.66645,0.00091
1740.70207,0.00093
1739.73770,0.00093
1738.77332,0.00094
1737.80894,0.00094
1736.84456,0.00095
1735.88018,0.00095
1734.91581,0.00095
1733.95143,0.00094
1732.98705,0.00093
1732.02267,0.00090
1731.05829,0.00087
1730.09392,0.00084
1729.12954,0.00082
1728.16516,0.00080
1727.20078,0.00079
1726.23641,0.00078
1725.27203,0.00076
1724.30765,0.00075
1723.34327,0.00074
1722.37889,0.00073
1721.41452,0.00072
1720.45014,0.00073
1719.48576,0.00073
1718.52138,0.00075
1717.55700,0.00076
1716.59263,0.00076
1715.62825,0.00075
1714.66387,0.00075
1713.69949,0.00074
1712.73512,0.00072
1711.77074,0.00071
1710.80636,0.00070
1709.84198,0.00069
1708.87760,0.00070
1707.91323,0.00070
1706.94885,0.00070
1705.98447,0.00069
1705.02009,0.00070
1704.05571,0.00071
1703.09134,0.00073
1702.12696,0.00074
1701.16258,0.00075
1700.19820,0.00077
1699.23382,0.00078
1698.26945,0.00078
1697.30507,0.00078
1696.34069,0.00077
1695.37631,0.00077
1694.41194,0.00079
1693.44756,0.00079
1692.48318,0.00080
1691.51880,0.00081
1690.55442,0.00083
1689.59005,0.00085
1688.62567,0.00088
1687.66129,0.00090
1686.69691,0.00090
1685.73253,0.00090
1684.76816,0.00093
1683.80378,0.00096
1682.83940,0.00099
1681.87502,0.00101
1680.91065,0.00104
1679.94627,0.00107
1678.98189,0.00111
1678.01751,0.00114
1677.05313,0.00117
1676.08876,0.00119
1675.12438,0.00119
1674.16000,0.00119
1673.19562,0.00120
1672.23124,0.00121
1671.26687,0.00121
1670.30249,0.00121
1669.33811,0.00122
1668.37373,0.00123
1667.40935,0.00124
1666.44498,0.00124
1665.48060,0.00124
1664.51622,0.00125
1663.55184,0.00125
1662.58747,0.00124
1661.62309,0.00122
1660.65871,0.00122
1659.69433,0.00122
1658.72995,0.00122
1657.76558,0.00124
1656.80120,0.00126
1655.83682,0.00126
1654.87244,0.00127
1653.90806,0.00126
1652.94369,0.00125
1651.97931,0.00123
1651.01493,0.00120
1650.05055,0.00116
1649.08618,0.00113
1648.12180,0.00111
1647.15742,0.00109
1646.19304,0.00109
1645.22866,0.00108
1644.26429,0.00107
1643.29991,0.00105
1642.33553,0.00104
1641.37115,0.00102
1640.40677,0.00102
1639.44240,0.00102
1638.47802,0.00102
1637.51364,0.00104
1636.54926,0.00108
1635.58488,0.00111
1634.62051,0.00113
1633.65613,0.00113
1632.69175,0.00113
1631.72737,0.00112
1630.76300,0.00111
1629.79862,0.00110
1628.83424,0.00108
1627.86986,0.00106
1626.90548,0.00105
1625.94111,0.00107
1624.97673,0.00110
1624.01235,0.00112
1623.04797,0.00113
1622.08359,0.00114
1621.11922,0.00116
1620.15484,0.00117
1619.19046,0.00120
1618.22608,0.00122
1617.26171,0.00123
1616.29733,0.00123
1615.33295,0.00125
1614.36857,0.00128
1613.40419,0.00129
1612.43982,0.00129
1611.47544,0.00129
1610.51106,0.00128
1609.54668,0.00128
1608.58230,0.00128
1607.61793,0.00129
1606.65355,0.00129
1605.68917,0.00129
1604.72479,0.00130
1603.76041,0.00131
1602.79604,0.00132
1601.83166,0.00132
1600.86728,0.00132
1599.90290,0.00133
1598.93853,0.00133
1597.97415,0.00131
1597.00977,0.00130
1596.04539,0.00128
1595.08101,0.00129
1594.11664,0.00129
1593.15226,0.00128
1592.18788,0.00127
1591.22350,0.00128
1590.25912,0.00129
1589.29475,0.00131
1588.33037,0.00132
1587.36599,0.00132
1586.40161,0.00131
1585.43724,0.00131
1584.47286,0.00130
1583.50848,0.00129
1582.54410,0.00128
1581.57972,0.00127
1580.61535,0.00129
1579.65097,0.00130
1578.68659,0.00130
1577.72221,0.00130
1576.75783,0.00131
1575.79346,0.00131
1574.82908,0.00130
1573.86470,0.00128
1572.90032,0.00125
1571.93594,0.00122
1570.97157,0.00119
1570.00719,0.00118
1569.04281,0.00118
1568.07843,0.00116
1567.11406,0.00115
1566.14968,0.00117
1565.18530,0.00119
1564.22092,0.00120
1563.25654,0.00120
1562.29217,0.00121
1561.32779,0.00121
1560.36341,0.00120
1559.39903,0.00119
1558.43465,0.00118
1557.47028,0.00117
1556.50590,0.00116
1555.54152,0.00115
1554.57714,0.00113
1553.61276,0.00110
1552.64839,0.00107
1551.68401,0.00105
1550.71963,0.00103
1549.75525,0.00101
1548.79088,0.00098
1547.82650,0.00095
1546.86212,0.00094
1545.89774,0.00094
1544.93336,0.00095
1543.96899,0.00095
1543.00461,0.00096
1542.04023,0.00099
1541.07585,0.00101
1540.11147,0.00102
1539.14710,0.00103
1538.18272,0.00103
1537.21834,0.00102
1536.25396,0.00099
1535.28959,0.00097
1534.32521,0.00095
1533.36083,0.00093
1532.39645,0.00090
1531.43207,0.00089
1530.46770,0.00090
1529.50332,0.00090
1528.53894,0.00090
1527.57456,0.00090
1526.61018,0.00092
1525.64581,0.00093
1524.68143,0.00094
1523.71705,0.00094
1522.75267,0.00093
1521.78829,0.00092
1520.82392,0.00090
1519.85954,0.00089
1518.89516,0.00089
1517.93078,0.00089
1516.96641,0.00088
1516.00203,0.00088
1515.03765,0.00089
1514.07327,0.00091
1513.10889,0.00092
1512.14452,0.00093
1511.18014,0.00093
1510.21576,0.00094
1509.25138,0.00094
1508.28700,0.00094
1507.32263,0.00095
1506.35825,0.00096
1505.39387,0.00096
1504.42949,0.00097
1503.46512,0.00099
1502.50074,0.00100
1501.53636,0.00100
1500.57198,0.00100
1499.60760,0.00099
1498.64323,0.00097
1497.67885,0.00095
1496.71447,0.00093
1495.75009,0.00093
1494.78571,0.00092
1493.82134,0.00092
1492.85696,0.00093
1491.89258,0.00095
1490.92820,0.00096
1489.96382,0.00096
1488.99945,0.00097
1488.03507,0.00097
1487.07069,0.00095
1486.10631,0.00094
1485.14194,0.00092
1484.17756,0.00092
1483.21318,0.00091
1482.24880,0.00091
1481.28442,0.00092
1480.32005,0.00094
1479.35567,0.00096
1478.39129,0.00100
1477.42691,0.00104
1476.46253,0.00107
1475.49816,0.00111
1474.53378,0.00115
1473.56940,0.00118
1472.60502,0.00121
1471.64065,0.00126
1470.67627,0.00130
1469.71189,0.00132
1468.74751,0.00134
1467.78313,0.00137
1466.81876,0.00140
1465.85438,0.00143
1464.89000,0.00144
1463.92562,0.00146
1462.96124,0.00146
1461.99687,0.00146
1461.03249,0.00148
1460.06811,0.00150
1459.10373,0.00150
1458.13935,0.00148
1457.17498,0.00148
1456.21060,0.00148
1455.24622,0.00149
1454.28184,0.00149
1453.31747,0.00149
1452.35309,0.00149
1451.38871,0.00147
1450.42433,0.00145
1449.45995,0.00142
1448.49558,0.00141
1447.53120,0.00140
1446.56682,0.00140
1445.60244,0.00141
1444.63806,0.00142
1443.67369,0.00144
1442.70931,0.00144
1441.74493,0.00145
1440.78055,0.00147
1439.81618,0.00148
1438.85180,0.00147
1437.88742,0.00146
1436.92304,0.00148
1435.95866,0.00151
1434.99429,0.00152
1434.02991,0.00152
1433.06553,0.00152
1432.10115,0.00152
1431.13677,0.00153
1430.17240,0.00155
1429.20802,0.00156
1428.24364,0.00157
1427.27926,0.00157
1426.31488,0.00157
1425.35051,0.00157
1424.38613,0.00157
1423.42175,0.00157
1422.45737,0.00158
1421.49300,0.00159
1420.52862,0.00161
1419.56424,0.00161
1418.59986,0.00161
1417.63548,0.00162
1416.67111,0.00162
1415.70673,0.00160
1414.74235,0.00158
1413.77797,0.00158
1412.81359,0.00160
1411.84922,0.00162
1410.88484,0.00163
1409.92046,0.00164
1408.95608,0.00165
1407.99171,0.00165
1407.02733,0.00165
1406.06295,0.00165
1405.09857,0.00164
1404.13419,0.00162
1403.16982,0.00160
1402.20544,0.00159
1401.24106,0.00157
1400.27668,0.00154
1399.31230,0.00152
1398.34793,0.00152
1397.38355,0.00153
1396.41917,0.00153
1395.45479,0.00154
1394.49041,0.00153
1393.52604,0.00152
1392.56166,0.00151
1391.59728,0.00150
1390.63290,0.00149
1389.66853,0.00147
1388.70415,0.00143
1387.73977,0.00141
1386.77539,0.00140
1385.81101,0.00140
1384.84664,0.00139
1383.88226,0.00137
1382.91788,0.00135
1381.95350,0.00136
1380.98912,0.00137
1380.02475,0.00139
1379.06037,0.00140
1378.09599,0.00139
1377.13161,0.00139
1376.16724,0.00139
1375.20286,0.00138
1374.23848,0.00137
1373.27410,0.00136
1372.30972,0.00136
1371.34535,0.00138
1370.38097,0.00140
1369.41659,0.00141
1368.45221,0.00140
1367.48783,0.00137
1366.52346,0.00135
1365.55908,0.00134
1364.59470,0.00131
1363.63032,0.00127
1362.66594,0.00124
1361.70157,0.00123
1360.73719,0.00124
1359.77281,0.00125
1358.80843,0.00125
1357.84406,0.00125
1356.87968,0.00123
1355.91530,0.00122
1354.95092,0.00121
1353.98654,0.00119
1353.02217,0.00117
1352.05779,0.00115
1351.09341,0.00114
1350.12903,0.00114
1349.16465,0.00115
1348.20028,0.00116
1347.23590,0.00116
1346.27152,0.00116
1345.30714,0.00118
1344.34276,0.00119
1343.37839,0.00120
1342.41401,0.00118
1341.44963,0.00117
1340.48525,0.00115
1339.52088,0.00113
1338.55650,0.00111
1337.59212,0.00108
1336.62774,0.00105
1335.66336,0.00103
1334.69899,0.00103
1333.73461,0.00104
1332.77023,0.00104
1331.80585,0.00104
1330.84147,0.00104
1329.87710,0.00104
1328.91272,0.00102
1327.94834,0.00100
1326.98396,0.00098
1326.01959,0.00096
1325.05521,0.00094
1324.09083,0.00093
1323.12645,0.00093
1322.16207,0.00094
1321.19770,0.00095
1320.23332,0.00095
1319.26894,0.00096
1318.30456,0.00095
1317.34018,0.00094
1316.37581,0.00094
1315.41143,0.00094
1314.44705,0.00093
1313.48267,0.00091
1312.51829,0.00090
1311.55392,0.00091
1310.58954,0.00093
1309.62516,0.00094
1308.66078,0.00094
1307.69641,0.00095
1306.73203,0.00096
1305.76765,0.00099
1304.80327,0.00102
1303.83889,0.00105
1302.87452,0.00106
1301.91014,0.00105
1300.94576,0.00103
1299.98138,0.00102
1299.01700,0.00099
1298.05263,0.00097
1297.08825,0.00094
1296.12387,0.00091
1295.15949,0.00090
1294.19512,0.00090
1293.23074,0.00092
1292.26636,0.00094
1291.30198,0.00096
1290.33760,0.00096
1289.37323,0.00096
1288.40885,0.00097
1287.44447,0.00098
1286.48009,0.00098
1285.51571,0.00098
1284.55134,0.00098
1283.58696,0.00098
1282.62258,0.00097
1281.65820,0.00096
1280.69382,0.00095
1279.72945,0.00094
1278.76507,0.00093
1277.80069,0.00093
1276.83631,0.00094
1275.87194,0.00094
1274.90756,0.00094
1273.94318,0.00095
1272.97880,0.00096
1272.01442,0.00097
1271.05005,0.00097
1270.08567,0.00099
1269.12129,0.00100
1268.15691,0.00100
1267.19253,0.00102
1266.22816,0.00105
1265.26378,0.00108
1264.29940,0.00109
1263.33502,0.00110
1262.37065,0.00111
1261.40627,0.00111
1260.44189,0.00110
1259.47751,0.00110
1258.51313,0.00109
1257.54876,0.00109
1256.58438,0.00108
1255.62000,0.00109
1254.65562,0.00108
1253.69124,0.00107
1252.72687,0.00107
1251.76249,0.00107
1250.79811,0.00107
1249.83373,0.00107
1248.86935,0.00106
1247.90498,0.00105
1246.94060,0.00104
1245.97622,0.00104
1245.01184,0.00104
1244.04747,0.00104
1243.08309,0.00104
1242.11871,0.00105
1241.15433,0.00106
1240.18995,0.00107
1239.22558,0.00106
1238.26120,0.00107
1237.29682,0.00107
1236.33244,0.00106
1235.36806,0.00107
1234.40369,0.00107
1233.43931,0.00107
1232.47493,0.00108
1231.51055,0.00107
1230.54618,0.00108
1229.58180,0.00109
1228.61742,0.00109
1227.65304,0.00108
1226.68866,0.00108
1225.72429,0.00108
1224.75991,0.00107
1223.79553,0.00107
1222.83115,0.00107
1221.86677,0.00107
1220.90240,0.00108
1219.93802,0.00109
1218.97364,0.00111
1218.00926,0.00114
1217.04488,0.00117
1216.08051,0.00120
1215.11613,0.00124
1214.15175,0.00128
1213.18737,0.00131
1212.22300,0.00135
1211.25862,0.00138
1210.29424,0.00140
1209.32986,0.00141
1208.36548,0.00141
1207.40111,0.00141
1206.43673,0.00142
1205.47235,0.00144
1204.50797,0.00147
1203.54359,0.00151
1202.57922,0.00155
1201.61484,0.00159
1200.65046,0.00164
1199.68608,0.00170
1198.72171,0.00175
1197.75733,0.00180
1196.79295,0.00184
1195.82857,0.00187
1194.86419,0.00191
1193.89982,0.00195
1192.93544,0.00200
1191.97106,0.00204
1191.00668,0.00206
1190.04230,0.00208
1189.07793,0.00211
1188.11355,0.00214
1187.14917,0.00217
1186.18479,0.00219
1185.22041,0.00220
1184.25604,0.00221
1183.29166,0.00224
1182.32728,0.00226
1181.36290,0.00229
1180.39853,0.00230
1179.43415,0.00233
1178.46977,0.00235
1177.50539,0.00235
1176.54101,0.00236
1175.57664,0.00239
1174.61226,0.00240
1173.64788,0.00241
1172.68350,0.00242
1171.71912,0.00245
1170.75475,0.00248
1169.79037,0.00251
1168.82599,0.00255
1167.86161,0.00258
1166.89724,0.00260
1165.93286,0.00261
1164.96848,0.00263
1164.00410,0.00268
1163.03972,0.00273
1162.07535,0.00278
1161.11097,0.00283
1160.14659,0.00289
1159.18221,0.00296
1158.21783,0.00305
1157.25346,0.00314
1156.28908,0.00321
1155.32470,0.00326
1154.36032,0.00330
1153.39594,0.00334
1152.43157,0.00339
1151.46719,0.00345
1150.50281,0.00350
1149.53843,0.00354
1148.57406,0.00359
1147.60968,0.00363
1146.64530,0.00368
1145.68092,0.00373
1144.71654,0.00380
1143.75217,0.00388
1142.78779,0.00395
1141.82341,0.00401
1140.85903,0.00408
1139.89465,0.00415
1138.93028,0.00422
1137.96590,0.00428
1137.00152,0.00434
1136.03714,0.00441
1135.07276,0.00449
1134.10839,0.00459
1133.14401,0.00469
1132.17963,0.00477
1131.21525,0.00484
1130.25088,0.00488
1129.28650,0.00492
1128.32212,0.00496
1127.35774,0.00502
1126.39336,0.00508
1125.42899,0.00516
1124.46461,0.00526
1123.50023,0.00537
1122.53585,0.00547
1121.57147,0.00553
1120.60710,0.00556
1119.64272,0.00559
1118.67834,0.00559
1117.71396,0.00557
1116.74959,0.00557
1115.78521,0.00558
1114.82083,0.00558
1113.85645,0.00558
1112.89207,0.00558
1111.92770,0.00561
1110.96332,0.00561
1109.99894,0.00558
1109.03456,0.00553
1108.07018,0.00548
1107.10581,0.00539
1106.14143,0.00529
1105.17705,0.00516
1104.21267,0.00501
1103.24829,0.00483
1102.28392,0.00465
1101.31954,0.00448
1100.35516,0.00432
1099.39078,0.00416
1098.42641,0.00400
1097.46203,0.00386
1096.49765,0.00373
1095.53327,0.00361
1094.56889,0.00348
1093.60452,0.00331
1092.64014,0.00317
1091.67576,0.00305
1090.71138,0.00295
1089.74700,0.00283
1088.78263,0.00269
1087.81825,0.00255
1086.85387,0.00243
1085.88949,0.00232
1084.92512,0.00222
1083.96074,0.00214
1082.99636,0.00206
1082.03198,0.00197
1081.06760,0.00191
1080.10323,0.00187
1079.13885,0.00183
1078.17447,0.00177
1077.21009,0.00170
1076.24571,0.00164
1075.28134,0.00159
1074.31696,0.00157
1073.35258,0.00157
1072.38820,0.00157
1071.42382,0.00154
1070.45945,0.00152
1069.49507,0.00150
1068.53069,0.00150
1067.56631,0.00149
1066.60194,0.00147
1065.63756,0.00144
1064.67318,0.00140
1063.70880,0.00138
1062.74442,0.00139
1061.78005,0.00140
1060.81567,0.00141
1059.85129,0.00143
1058.88691,0.00144
1057.92253,0.00144
1056.95816,0.00145
1055.99378,0.00148
1055.02940,0.00148
1054.06502,0.00145
1053.10065,0.00143
1052.13627,0.00142
1051.17189,0.00140
1050.20751,0.00139
1049.24313,0.00139
1048.27876,0.00138
1047.31438,0.00134
1046.35000,0.00130
1045.38562,0.00130
1044.42124,0.00128
1043.45687,0.00127
1042.49249,0.00127
1041.52811,0.00130
1040.56373,0.00133
1039.59935,0.00134
1038.63498,0.00136
1037.67060,0.00138
1036.70622,0.00140
1035.74184,0.00141
1034.77747,0.00139
1033.81309,0.00137
1032.84871,0.00135
1031.88433,0.00136
1030.91995,0.00136
1029.95558,0.00137
1028.99120,0.00139
1028.02682,0.00139
1027.06244,0.00139
1026.09806,0.00138
1025.13369,0.00139
1024.16931,0.00136
1023.20493,0.00130
1022.24055,0.00125
1021.27618,0.00124
1020.31180,0.00123
1019.34742,0.00122
1018.38304,0.00123
1017.41866,0.00124
1016.45429,0.00123
1015.48991,0.00121
1014.52553,0.00120
1013.56115,0.00119
1012.59677,0.00119
1011.63240,0.00117
1010.66802,0.00118
1009.70364,0.00120
1008.73926,0.00121
1007.77488,0.00123
1006.81051,0.00124
1005.84613,0.00124
1004.88175,0.00124
1003.91737,0.00121
1002.95300,0.00115
1001.98862,0.00110
1001.02424,0.00104
1000.05986,0.00097
999.09548,0.00091
998.13111,0.00090
997.16673,0.00094
996.20235,0.00099
995.23797,0.00103
994.27359,0.00108
993.30922,0.00113
992.34484,0.00115
991.38046,0.00117
990.41608,0.00117
989.45171,0.00116
988.48733,0.00115
987.52295,0.00114
986.55857,0.00115
985.59419,0.00116
984.62982,0.00115
983.66544,0.00111
982.70106,0.00107
981.73668,0.00104
980.77230,0.00100
979.80793,0.00097
978.84355,0.00093
977.87917,0.00088
976.91479,0.00084
975.95041,0.00081
974.98604,0.00081
974.02166,0.00084
973.05728,0.00087
972.09290,0.00088
971.12853,0.00092
970.16415,0.00098
969.19977,0.00101
968.23539,0.00103
967.27101,0.00101
966.30664,0.00098
965.34226,0.00094
964.37788,0.00089
963.41350,0.00084
962.44912,0.00081
961.48475,0.00079
960.52037,0.00075
959.55599,0.00073
958.59161,0.00076
957.62724,0.00078
956.66286,0.00080
955.69848,0.00084
954.73410,0.00086
953.76972,0.00084
952.80535,0.00080
951.84097,0.00076
950.87659,0.00076
949.91221,0.00077
948.94783,0.00077
947.98346,0.00080
947.01908,0.00088
946.05470,0.00094
945.09032,0.00097
944.12594,0.00100
943.16157,0.00099
942.19719,0.00091
941.23281,0.00081
940.26843,0.00073
939.30406,0.00068
938.33968,0.00062
937.37530,0.00059
936.41092,0.00059
935.44654,0.00062
934.48217,0.00064
933.51779,0.00066
932.55341,0.00070
931.58903,0.00073
930.62465,0.00075
929.66028,0.00077
928.69590,0.00080
927.73152,0.00083
926.76714,0.00085
925.80276,0.00087
924.83839,0.00086
923.87401,0.00084
922.90963,0.00081
921.94525,0.00078
920.98088,0.00077
920.01650,0.00073
919.05212,0.00070
918.08774,0.00067
917.12336,0.00066
916.15899,0.00069
915.19461,0.00071
914.23023,0.00074
913.26585,0.00078
912.30147,0.00084
911.33710,0.00090
910.37272,0.00093
909.40834,0.00095
908.44396,0.00096
907.47959,0.00095
906.51521,0.00092
905.55083,0.00085
904.58645,0.00075
903.62207,0.00067
902.65770,0.00064
901.69332,0.00065
900.72894,0.00069
899.76456,0.00071
898.80018,0.00072
897.83581,0.00073
896.87143,0.00075
895.90705,0.00079
894.94267,0.00079
893.97829,0.00077
893.01392,0.00076
892.04954,0.00081
891.08516,0.00087
890.12078,0.00091
889.15641,0.00097
888.19203,0.00099
887.22765,0.00097
886.26327,0.00093
885.29889,0.00089
884.33452,0.00089
883.37014,0.00086
882.40576,0.00083
881.44138,0.00083
880.47700,0.00085
879.51263,0.00085
878.54825,0.00084
877.58387,0.00083
876.61949,0.00081
875.65512,0.00083
874.69074,0.00086
873.72636,0.00086
872.76198,0.00083
871.79760,0.00076
870.83323,0.00066
869.86885,0.00060
868.90447,0.00060
867.94009,0.00058
866.97571,0.00052
866.01134,0.00051
865.04696,0.00058
864.08258,0.00067
863.11820,0.00073
862.15382,0.00075
861.18945,0.00078
860.22507,0.00078
859.26069,0.00078
858.29631,0.00080
857.33194,0.00084
856.36756,0.00085
855.40318,0.00084
854.43880,0.00083
853.47442,0.00081
852.51005,0.00079
851.54567,0.00076
850.58129,0.00076
849.61691,0.00077
848.65253,0.00077
847.68816,0.00077
846.72378,0.00077
845.75940,0.00077
844.79502,0.00077
843.83065,0.00075
842.86627,0.00073
841.90189,0.00072
840.93751,0.00072
839.97313,0.00073
839.00876,0.00076
838.04438,0.00079
837.08000,0.00082
836.11562,0.00084
835.15124,0.00084
834.18687,0.00081
833.22249,0.00078
832.25811,0.00079
831.29373,0.00079
830.32935,0.00074
829.36498,0.00071
828.40060,0.00072
827.43622,0.00076
826.47184,0.00082
825.50747,0.00088
824.54309,0.00092
823.57871,0.00093
822.61433,0.00091
821.64995,0.00093
820.68558,0.00096
819.72120,0.00092
818.75682,0.00085
817.79244,0.00083
816.82806,0.00084
815.86369,0.00088
814.89931,0.00091
813.93493,0.00091
812.97055,0.00086
812.00618,0.00080
811.04180,0.00079
810.07742,0.00081
809.11304,0.00082
808.14866,0.00079
807.18429,0.00080
806.21991,0.00087
805.25553,0.00094
804.29115,0.00097
803.32677,0.00095
802.36240,0.00091
801.39802,0.00086
800.43364,0.00082
799.46926,0.00083
798.50488,0.00084
797.54051,0.00083
796.57613,0.00081
795.61175,0.00081
794.64737,0.00084
793.68300,0.00081
792.71862,0.00074
791.75424,0.00068
790.78986,0.00066
789.82548,0.00066
788.86111,0.00066
787.89673,0.00068
786.93235,0.00068
785.96797,0.00066
785.00359,0.00062
784.03922,0.00060
783.07484,0.00062
782.11046,0.00064
781.14608,0.00066
780.18171,0.00068
779.21733,0.00074
778.25295,0.00081
777.28857,0.00088
776.32419,0.00094
775.35982,0.00094
774.39544,0.00090
773.43106,0.00082
772.46668,0.00078
771.50230,0.00076
770.53793,0.00072
769.57355,0.00067
768.60917,0.00062
767.64479,0.00062
766.68041,0.00064
765.71604,0.00068
764.75166,0.00073
763.78728,0.00075
762.82290,0.00074
761.85853,0.00070
760.89415,0.00068
759.92977,0.00066
758.96539,0.00062
758.00101,0.00061
757.03664,0.00061
756.07226,0.00061
755.10788,0.00066
754.14350,0.00072
753.17912,0.00076
752.21475,0.00078
751.25037,0.00079
750.28599,0.00078
749.32161,0.00079
748.35724,0.00083
747.39286,0.00085
746.42848,0.00087
745.46410,0.00088
744.49972,0.00089
743.53535,0.00089
742.57097,0.00087
741.60659,0.00084
740.64221,0.00079
739.67783,0.00077
738.71346,0.00076
737.74908,0.00079
736.78470,0.00080
735.82032,0.00079
734.85594,0.00073
733.89157,0.00068
732.92719,0.00064
731.96281,0.00058
730.99843,0.00060
730.03406,0.00065
729.06968,0.00068
728.10530,0.00073
727.14092,0.00077
726.17654,0.00079
725.21217,0.00078
724.24779,0.00073
723.28341,0.00068
722.31903,0.00066
721.35465,0.00065
720.39028,0.00068
719.42590,0.00080
718.46152,0.00091
717.49714,0.00097
716.53276,0.00102
715.56839,0.00099
714.60401,0.00094
713.63963,0.00089
712.67525,0.00086
711.71088,0.00084
710.74650,0.00082
709.78212,0.00083
708.81774,0.00089
707.85336,0.00095
706.88899,0.00100
705.92461,0.00103
704.96023,0.00103
703.99585,0.00099
703.03147,0.00094
702.06710,0.00092
701.10272,0.00091
700.13834,0.00089
699.17396,0.00087
698.20959,0.00086
697.24521,0.00087
696.28083,0.00087
695.31645,0.00085
694.35207,0.00085
693.38770,0.00085
692.42332,0.00084
691.45894,0.00081
690.49456,0.00080
689.53018,0.00079
688.56581,0.00078
687.60143,0.00079
686.63705,0.00079
685.67267,0.00081
684.70829,0.00081
683.74392,0.00082
682.77954,0.00083
681.81516,0.00085
680.85078,0.00083
679.88641,0.00079
678.92203,0.00080
677.95765,0.00080
676.99327,0.00077
676.02889,0.00077
675.06452,0.00080
674.10014,0.00085
673.13576,0.00088
672.17138,0.00086
671.20700,0.00083
670.24263,0.00079
669.27825,0.00077
668.31387,0.00075
667.34949,0.00076
666.38512,0.00076
665.42074,0.00073
664.45636,0.00074
663.49198,0.00077
662.52760,0.00082
661.56323,0.00083
660.59885,0.00079
659.63447,0.00076
658.67009,0.00074
657.70571,0.00075
656.74134,0.00077
655.77696,0.00079
654.81258,0.00079
653.84820,0.00078
652.88382,0.00077
651.91945,0.00077
650.95507,0.00080
649.99069,0.00082
649.02631,0.00084
648.06194,0.00091
647.09756,0.00099
646.13318,0.00105
645.16880,0.00110
644.20442,0.00123
643.24005,0.00150
642.27567,0.00183
641.31129,0.00211
640.34691,0.00230
639.38253,0.00238
638.41816,0.00238
637.45378,0.00233
636.48940,0.00224
635.52502,0.00208
634.56065,0.00187
633.59627,0.00170
632.63189,0.00166
631.66751,0.00181
630.70313,0.00199
629.73876,0.00211
628.77438,0.00230
627.81000,0.00244
626.84562,0.00211
625.88124,0.00136
624.91687,0.00084
623.95249,0.00094
622.98811,0.00134
622.02373,0.00140
621.05935,0.00105
620.09498,0.00074
619.13060,0.00082
618.16622,0.00125
617.20184,0.00151
616.23747,0.00086
615.27309,-0.00066
614.30871,-0.00177
613.34433,-0.00205
612.37995,-0.00170
611.41558,-0.00107
610.45120,-0.00082
609.48682,-0.00071
608.52244,-0.00011
607.55806,0.00122
606.59369,0.00261
605.62931,0.00325
604.66493,0.00309
603.70055,0.00279
602.73618,0.00279
601.77180,0.00257
600.80742,0.00212
599.84304,0.00174
598.87866,0.00128
597.91429,0.00082
596.94991,0.00052
595.98553,0.00047
595.02115,0.00049
594.05677,0.00053
593.09240,0.00072
592.12802,0.00099
591.16364,0.00124
590.19926,0.00132
589.23488,0.00119
588.27051,0.00110
587.30613,0.00109
586.34175,0.00096
585.37737,0.00072
584.41300,0.00057
583.44862,0.00061
582.48424,0.00080
581.51986,0.00107
580.55548,0.00129
579.59111,0.00144
578.62673,0.00149
577.66235,0.00139
576.69797,0.00130
575.73359,0.00128
574.76922,0.00121
573.80484,0.00112
572.84046,0.00106
571.87608,0.00108
570.91171,0.00108
569.94733,0.00098
568.98295,0.00082
568.01857,0.00067
567.05419,0.00055
566.08982,0.00051
565.12544,0.00070
564.16106,0.00099
563.19668,0.00114
562.23230,0.00122
561.26793,0.00134
560.30355,0.00148
559.33917,0.00148
558.37479,0.00130
557.41041,0.00107
556.44604,0.00086
555.48166,0.00072
554.51728,0.00067
553.55290,0.00071
552.58853,0.00074
551.62415,0.00076
550.65977,0.00083
549.69539,0.00093
548.73101,0.00103
547.76664,0.00104
546.80226,0.00097
545.83788,0.00090
544.87350,0.00090
543.90912,0.00093
542.94475,0.00093
541.98037,0.00091
541.01599,0.00090
540.05161,0.00094
539.08724,0.00090
538.12286,0.00081
537.15848,0.00076
536.19410,0.00071
535.22972,0.00068
534.26535,0.00072
533.30097,0.00085
532.33659,0.00101
531.37221,0.00110
530.40783,0.00113
529.44346,0.00110
528.47908,0.00108
527.51470,0.00103
526.55032,0.00092
525.58594,0.00085
524.62157,0.00082
523.65719,0.00081
522.69281,0.00078
521.72843,0.00077
520.76406,0.00081
519.79968,0.00082
518.83530,0.00082
517.87092,0.00081
516.90654,0.00084
515.94217,0.00089
514.97779,0.00087
514.01341,0.00087
513.04903,0.00097
512.08465,0.00103
511.12028,0.00102
510.15590,0.00099
509.19152,0.00098
508.22714,0.00095
507.26276,0.00092
506.29839,0.00087
505.33401,0.00078
504.36963,0.00078
503.40525,0.00079
502.44088,0.00082
501.47650,0.00088
500.51212,0.00090
499.54774,0.00090
498.58336,0.00089
497.61899,0.00087
496.65461,0.00083
495.69023,0.00073
494.72585,0.00064
493.76147,0.00062
492.79710,0.00072
491.83272,0.00077
490.86834,0.00077
489.90396,0.00078
488.93959,0.00075
487.97521,0.00076
487.01083,0.00075
486.04645,0.00072
485.08207,0.00072
484.11770,0.00074
483.15332,0.00075
482.18894,0.00076
481.22456,0.00074
480.26018,0.00070
479.29581,0.00072
478.33143,0.00077
477.36705,0.00077
476.40267,0.00075
475.43829,0.00074
474.47392,0.00080
473.50954,0.00088
472.54516,0.00092
471.58078,0.00095
470.61641,0.00093
469.65203,0.00088
468.68765,0.00084
467.72327,0.00092
466.75889,0.00103
465.79452,0.00109
464.83014,0.00109
463.86576,0.00112
462.90138,0.00124
461.93700,0.00131
460.97263,0.00135
460.00825,0.00134
459.04387,0.00119
458.07949,0.00097
457.11512,0.00072
456.15074,0.00053
455.18636,0.00038
454.22198,0.00027
453.25760,0.00022
452.29323,0.00029
451.32885,0.00050
450.36447,0.00069
449.40009,0.00083
448.43571,0.00092
447.47134,0.00098
446.50696,0.00099
445.54258,0.00087
444.57820,0.00070
443.61382,0.00058
442.64945,0.00050
441.68507,0.00047
440.72069,0.00048
439.75631,0.00050
438.79194,0.00055
437.82756,0.00058
436.86318,0.00062
435.89880,0.00069
434.93442,0.00077
433.97005,0.00080
433.00567,0.00079
432.04129,0.00077
431.07691,0.00073
430.11253,0.00071
429.14816,0.00070
428.18378,0.00064
427.21940,0.00054
426.25502,0.00042
425.29065,0.00036
424.32627,0.00041
423.36189,0.00054
422.39751,0.00068
421.43313,0.00079
420.46876,0.00088
419.50438,0.00093
418.54000,0.00095
417.57562,0.00089
416.61124,0.00074
415.64687,0.00055
414.68249,0.00038
413.71811,0.00030
412.75373,0.00028
411.78935,0.00033
410.82498,0.00041
409.86060,0.00049
408.89622,0.00058
407.93184,0.00066
406.96747,0.00074
406.00309,0.00077
405.03871,0.00078
404.07433,0.00078
403.10995,0.00078
402.14558,0.00078
401.18120,0.00078
400.21682,0.00078
399.25244,0.00078
