4498.82281,0.00397
4497.85843,0.00397
4496.89406,0.00397
4495.92968,0.00397
4494.96530,0.00397
4494.00092,0.00397
4493.03654,0.00397
4492.07217,0.00392
4491.10779,0.00385
4490.14341,0.00382
4489.17903,0.00388
4488.21465,0.00398
4487.25028,0.00403
4486.28590,0.00404
4485.32152,0.00407
4484.35714,0.00415
4483.39276,0.00420
4482.42839,0.00417
4481.46401,0.00412
4480.49963,0.00404
4479.53525,0.00394
4478.57088,0.00383
4477.60650,0.00373
4476.64212,0.00361
4475.67774,0.00351
4474.71336,0.00350
4473.74899,0.00359
4472.78461,0.00373
4471.82023,0.00389
4470.85585,0.00406
4469.89147,0.00418
4468.92710,0.00418
4467.96272,0.00410
4466.99834,0.00397
4466.03396,0.00379
4465.06959,0.00361
4464.10521,0.00346
4463.14083,0.00339
4462.17645,0.00341
4461.21207,0.00347
4460.24770,0.00347
4459.28332,0.00339
4458.31894,0.00321
4457.35456,0.00297
4456.39018,0.00275
4455.42581,0.00260
4454.46143,0.00251
4453.49705,0.00249
4452.53267,0.00252
4451.56829,0.00263
4450.60392,0.00279
4449.63954,0.00296
4448.67516,0.00313
4447.71078,0.00330
4446.74641,0.00345
4445.78203,0.00359
4444.81765,0.00376
4443.85327,0.00393
4442.88889,0.00402
4441.92452,0.00397
4440.96014,0.00380
4439.99576,0.00360
4439.03138,0.00342
4438.06700,0.00331
4437.10263,0.00325
4436.13825,0.00323
4435.17387,0.00324
4434.20949,0.00329
4433.24512,0.00337
4432.28074,0.00343
4431.31636,0.00346
4430.35198,0.00345
4429.38760,0.00343
4428.42323,0.00346
4427.45885,0.00354
4426.49447,0.00364
4425.53009,0.00372
4424.56571,0.00372
4423.60134,0.00366
4422.63696,0.00359
4421.67258,0.00353
4420.70820,0.00347
4419.74382,0.00343
4418.77945,0.00348
4417.81507,0.00356
4416.85069,0.00361
4415.88631,0.00361
4414.92194,0.00357
4413.95756,0.00352
4412.99318,0.00346
4412.02880,0.00340
4411.06442,0.00338
4410.10005,0.00336
4409.13567,0.00338
4408.17129,0.00347
4407.20691,0.00363
4406.24253,0.00375
4405.27816,0.00381
4404.31378,0.00386
4403.34940,0.00394
4402.38502,0.00404
4401.42065,0.00412
4400.45627,0.00418
4399.49189,0.00423
4398.52751,0.00427
4397.56313,0.00429
4396.59876,0.00427
4395.63438,0.00418
4394.67000,0.00408
4393.70562,0.00400
4392.74124,0.00395
4391.77687,0.00390
4390.81249,0.00380
4389.84811,0.00366
4388.88373,0.00353
4387.91935,0.00346
4386.95498,0.00342
4385.99060,0.00341
4385.02622,0.00341
4384.06184,0.00342
4383.09747,0.00346
4382.13309,0.00352
4381.16871,0.00359
4380.20433,0.00367
4379.23995,0.00371
4378.27558,0.00368
4377.31120,0.00366
4376.34682,0.00371
4375.38244,0.00378
4374.41806,0.00382
4373.45369,0.00382
4372.48931,0.00381
4371.52493,0.00379
4370.56055,0.00378
4369.59618,0.00374
4368.63180,0.00365
4367.66742,0.00351
4366.70304,0.00341
4365.73866,0.00338
4364.77429,0.00343
4363.80991,0.00351
4362.84553,0.00363
4361.88115,0.00381
4360.91677,0.00402
4359.95240,0.00417
4358.98802,0.00420
4358.02364,0.00412
4357.05926,0.00399
4356.09488,0.00388
4355.13051,0.00375
4354.16613,0.00363
4353.20175,0.00361
4352.23737,0.00370
4351.27300,0.00386
4350.30862,0.00405
4349.34424,0.00426
4348.37986,0.00444
4347.41548,0.00456
4346.45111,0.00466
4345.48673,0.00473
4344.52235,0.00473
4343.55797,0.00464
4342.59359,0.00451
4341.62922,0.00440
4340.66484,0.00428
4339.70046,0.00413
4338.73608,0.00400
4337.77171,0.00390
4336.80733,0.00383
4335.84295,0.00381
4334.87857,0.00386
4333.91419,0.00395
4332.94982,0.00402
4331.98544,0.00407
4331.02106,0.00411
4330.05668,0.00414
4329.09230,0.00415
4328.12793,0.00413
4327.16355,0.00407
4326.19917,0.00400
4325.23479,0.00395
4324.27041,0.00393
4323.30604,0.00392
4322.34166,0.00389
4321.37728,0.00383
4320.41290,0.00377
4319.44853,0.00371
4318.48415,0.00364
4317.51977,0.00356
4316.55539,0.00356
4315.59101,0.00365
4314.62664,0.00383
4313.66226,0.00399
4312.69788,0.00408
4311.73350,0.00410
4310.76912,0.00407
4309.80475,0.00398
4308.84037,0.00385
4307.87599,0.00368
4306.91161,0.00351
4305.94724,0.00339
4304.98286,0.00338
4304.01848,0.00348
4303.05410,0.00362
4302.08972,0.00373
4301.12535,0.00384
4300.16097,0.00394
4299.19659,0.00404
4298.23221,0.00412
4297.26783,0.00417
4296.30346,0.00420
4295.33908,0.00424
4294.37470,0.00427
4293.41032,0.00426
4292.44594,0.00419
4291.48157,0.00405
4290.51719,0.00390
4289.55281,0.00379
4288.58843,0.00372
4287.62406,0.00369
4286.65968,0.00371
4285.69530,0.00373
4284.73092,0.00378
4283.76654,0.00386
4282.80217,0.00398
4281.83779,0.00410
4280.87341,0.00422
4279.90903,0.00435
4278.94465,0.00447
4277.98028,0.00455
4277.01590,0.00456
4276.05152,0.00455
4275.08714,0.00454
4274.12276,0.00454
4273.15839,0.00450
4272.19401,0.00442
4271.22963,0.00432
4270.26525,0.00421
4269.30088,0.00411
4268.33650,0.00405
4267.37212,0.00400
4266.40774,0.00394
4265.44336,0.00386
4264.47899,0.00378
4263.51461,0.00374
4262.55023,0.00375
4261.58585,0.00378
4260.62147,0.00379
4259.65710,0.00376
4258.69272,0.00373
4257.72834,0.00370
4256.76396,0.00370
4255.79959,0.00373
4254.83521,0.00373
4253.87083,0.00370
4252.90645,0.00370
4251.94207,0.00374
4250.97770,0.00382
4250.01332,0.00392
4249.04894,0.00404
4248.08456,0.00414
4247.12018,0.00422
4246.15581,0.00428
4245.19143,0.00432
4244.22705,0.00433
4243.26267,0.00432
4242.29829,0.00429
4241.33392,0.00425
4240.36954,0.00419
4239.40516,0.00413
4238.44078,0.00410
4237.47641,0.00410
4236.51203,0.00410
4235.54765,0.00410
4234.58327,0.00414
4233.61889,0.00418
4232.65452,0.00419
4231.69014,0.00415
4230.72576,0.00407
4229.76138,0.00398
4228.79700,0.00392
4227.83263,0.00391
4226.86825,0.00392
4225.90387,0.00391
4224.93949,0.00385
4223.97512,0.00379
4223.01074,0.00376
4222.04636,0.00372
4221.08198,0.00365
4220.11760,0.00362
4219.15323,0.00364
4218.18885,0.00365
4217.22447,0.00364
4216.26009,0.00364
4215.29571,0.00367
4214.33134,0.00370
4213.36696,0.00370
4212.40258,0.00372
4211.43820,0.00376
4210.47382,0.00382
4209.50945,0.00390
4208.54507,0.00402
4207.58069,0.00412
4206.61631,0.00414
4205.65194,0.00410
4204.68756,0.00402
4203.72318,0.00390
4202.75880,0.00378
4201.79442,0.00369
4200.83005,0.00366
4199.86567,0.00368
4198.90129,0.00374
4197.93691,0.00385
4196.97253,0.00399
4196.00816,0.00414
4195.04378,0.00425
4194.07940,0.00428
4193.11502,0.00422
4192.15065,0.00414
4191.18627,0.00410
4190.22189,0.00410
4189.25751,0.00413
4188.29313,0.00415
4187.32876,0.00416
4186.36438,0.00419
4185.40000,0.00424
4184.43562,0.00430
4183.47124,0.00434
4182.50687,0.00435
4181.54249,0.00436
4180.57811,0.00439
4179.61373,0.00441
4178.64935,0.00440
4177.68498,0.00433
4176.72060,0.00420
4175.75622,0.00403
4174.79184,0.00385
4173.82747,0.00368
4172.86309,0.00354
4171.89871,0.00346
4170.93433,0.00343
4169.96995,0.00347
4169.00558,0.00357
4168.04120,0.00370
4167.07682,0.00383
4166.11244,0.00393
4165.14806,0.00400
4164.18369,0.00405
4163.21931,0.00405
4162.25493,0.00404
4161.29055,0.00400
4160.32618,0.00395
4159.36180,0.00389
4158.39742,0.00383
4157.43304,0.00381
4156.46866,0.00383
4155.50429,0.00386
4154.53991,0.00390
4153.57553,0.00394
4152.61115,0.00398
4151.64677,0.00401
4150.68240,0.00405
4149.71802,0.00409
4148.75364,0.00412
4147.78926,0.00412
4146.82488,0.00412
4145.86051,0.00412
4144.89613,0.00412
4143.93175,0.00414
4142.96737,0.00419
4142.00300,0.00424
4141.03862,0.00426
4140.07424,0.00426
4139.10986,0.00427
4138.14548,0.00431
4137.18111,0.00433
4136.21673,0.00434
4135.25235,0.00432
4134.28797,0.00429
4133.32359,0.00427
4132.35922,0.00428
4131.39484,0.00428
4130.43046,0.00424
4129.46608,0.00420
4128.50171,0.00417
4127.53733,0.00418
4126.57295,0.00419
4125.60857,0.00419
4124.64419,0.00418
4123.67982,0.00419
4122.71544,0.00424
4121.75106,0.00430
4120.78668,0.00433
4119.82230,0.00432
4118.85793,0.00429
4117.89355,0.00430
4116.92917,0.00432
4115.96479,0.00431
4115.00041,0.00428
4114.03604,0.00423
4113.07166,0.00420
4112.10728,0.00419
4111.14290,0.00420
4110.17853,0.00424
4109.21415,0.00429
4108.24977,0.00433
4107.28539,0.00436
4106.32101,0.00438
4105.35664,0.00436
4104.39226,0.00433
4103.42788,0.00429
4102.46350,0.00422
4101.49912,0.00411
4100.53475,0.00402
4099.57037,0.00399
4098.60599,0.00403
4097.64161,0.00408
4096.67724,0.00410
4095.71286,0.00413
4094.74848,0.00416
4093.78410,0.00421
4092.81972,0.00428
4091.85535,0.00432
4090.89097,0.00433
4089.92659,0.00433
4088.96221,0.00438
4087.99783,0.00444
4087.03346,0.00445
4086.06908,0.00438
4085.10470,0.00427
4084.14032,0.00416
4083.17594,0.00407
4082.21157,0.00400
4081.24719,0.00398
4080.28281,0.00397
4079.31843,0.00395
4078.35406,0.00395
4077.38968,0.00397
4076.42530,0.00402
4075.46092,0.00408
4074.49654,0.00414
4073.53217,0.00420
4072.56779,0.00430
4071.60341,0.00440
4070.63903,0.00448
4069.67465,0.00456
4068.71028,0.00458
4067.74590,0.00455
4066.78152,0.00448
4065.81714,0.00443
4064.85276,0.00438
4063.88839,0.00434
4062.92401,0.00427
4061.95963,0.00420
4060.99525,0.00415
4060.03088,0.00412
4059.06650,0.00411
4058.10212,0.00412
4057.13774,0.00415
4056.17336,0.00420
4055.20899,0.00425
4054.24461,0.00429
4053.28023,0.00430
4052.31585,0.00428
4051.35147,0.00422
4050.38710,0.00415
4049.42272,0.00408
4048.45834,0.00399
4047.49396,0.00390
4046.52959,0.00386
4045.56521,0.00386
4044.60083,0.00387
4043.63645,0.00391
4042.67207,0.00397
4041.70770,0.00405
4040.74332,0.00413
4039.77894,0.00420
4038.81456,0.00425
4037.85018,0.00427
4036.88581,0.00425
4035.92143,0.00422
4034.95705,0.00419
4033.99267,0.00416
4033.02829,0.00414
4032.06392,0.00415
4031.09954,0.00419
4030.13516,0.00423
4029.17078,0.00427
4028.20641,0.00432
4027.24203,0.00437
4026.27765,0.00444
4025.31327,0.00448
4024.34889,0.00448
4023.38452,0.00447
4022.42014,0.00447
4021.45576,0.00446
4020.49138,0.00442
4019.52700,0.00435
4018.56263,0.00429
4017.59825,0.00427
4016.63387,0.00430
4015.66949,0.00435
4014.70512,0.00438
4013.74074,0.00435
4012.77636,0.00431
4011.81198,0.00430
4010.84760,0.00432
4009.88323,0.00432
4008.91885,0.00429
4007.95447,0.00424
4006.99009,0.00422
4006.02571,0.00425
4005.06134,0.00428
4004.09696,0.00428
4003.13258,0.00423
4002.16820,0.00413
4001.20382,0.00402
4000.23945,0.00396
3999.27507,0.00392
3998.31069,0.00388
3997.34631,0.00384
3996.38194,0.00381
3995.41756,0.00381
3994.45318,0.00388
3993.48880,0.00399
3992.52442,0.00413
3991.56005,0.00428
3990.59567,0.00442
3989.63129,0.00454
3988.66691,0.00465
3987.70253,0.00474
3986.73816,0.00479
3985.77378,0.00478
3984.80940,0.00472
3983.84502,0.00465
3982.88065,0.00458
3981.91627,0.00454
3980.95189,0.00451
3979.98751,0.00447
3979.02313,0.00439
3978.05876,0.00432
3977.09438,0.00430
3976.13000,0.00431
3975.16562,0.00430
3974.20124,0.00428
3973.23687,0.00423
3972.27249,0.00415
3971.30811,0.00405
3970.34373,0.00398
3969.37935,0.00395
3968.41498,0.00393
3967.45060,0.00391
3966.48622,0.00392
3965.52184,0.00398
3964.55747,0.00405
3963.59309,0.00413
3962.62871,0.00421
3961.66433,0.00426
3960.69995,0.00426
3959.73558,0.00425
3958.77120,0.00425
3957.80682,0.00424
3956.84244,0.00424
3955.87806,0.00421
3954.91369,0.00415
3953.94931,0.00410
3952.98493,0.00408
3952.02055,0.00410
3951.05618,0.00413
3950.09180,0.00417
3949.12742,0.00422
3948.16304,0.00427
3947.19866,0.00434
3946.23429,0.00442
3945.26991,0.00446
3944.30553,0.00444
3943.34115,0.00439
3942.37677,0.00436
3941.41240,0.00436
3940.44802,0.00435
3939.48364,0.00436
3938.51926,0.00438
3937.55488,0.00440
3936.59051,0.00439
3935.62613,0.00438
3934.66175,0.00436
3933.69737,0.00430
3932.73300,0.00423
3931.76862,0.00417
3930.80424,0.00414
3929.83986,0.00412
3928.87548,0.00411
3927.91111,0.00414
3926.94673,0.00417
3925.98235,0.00418
3925.01797,0.00420
3924.05359,0.00424
3923.08922,0.00431
3922.12484,0.00438
3921.16046,0.00444
3920.19608,0.00446
3919.23171,0.00446
3918.26733,0.00448
3917.30295,0.00451
3916.33857,0.00453
3915.37419,0.00452
3914.40982,0.00448
3913.44544,0.00442
3912.48106,0.00436
3911.51668,0.00431
3910.55230,0.00426
3909.58793,0.00420
3908.62355,0.00413
3907.65917,0.00409
3906.69479,0.00408
3905.73041,0.00408
3904.76604,0.00406
3903.80166,0.00402
3902.83728,0.00399
3901.87290,0.00399
3900.90853,0.00404
3899.94415,0.00413
3898.97977,0.00425
3898.01539,0.00439
3897.05101,0.00454
3896.08664,0.00465
3895.12226,0.00471
3894.15788,0.00472
3893.19350,0.00470
3892.22912,0.00465
3891.26475,0.00462
3890.30037,0.00459
3889.33599,0.00455
3888.37161,0.00449
3887.40724,0.00445
3886.44286,0.00445
3885.47848,0.00448
3884.51410,0.00450
3883.54972,0.00455
3882.58535,0.00461
3881.62097,0.00467
3880.65659,0.00471
3879.69221,0.00474
3878.72783,0.00473
3877.76346,0.00469
3876.79908,0.00465
3875.83470,0.00461
3874.87032,0.00458
3873.90594,0.00450
3872.94157,0.00439
3871.97719,0.00426
3871.01281,0.00413
3870.04843,0.00403
3869.08406,0.00398
3868.11968,0.00400
3867.15530,0.00408
3866.19092,0.00420
3865.22654,0.00435
3864.26217,0.00447
3863.29779,0.00453
3862.33341,0.00450
3861.36903,0.00439
3860.40465,0.00425
3859.44028,0.00414
3858.47590,0.00411
3857.51152,0.00413
3856.54714,0.00420
3855.58276,0.00427
3854.61839,0.00432
3853.65401,0.00433
3852.68963,0.00432
3851.72525,0.00431
3850.76088,0.00430
3849.79650,0.00429
3848.83212,0.00432
3847.86774,0.00441
3846.90336,0.00452
3845.93899,0.00462
3844.97461,0.00470
3844.01023,0.00475
3843.04585,0.00477
3842.08147,0.00479
3841.11710,0.00481
3840.15272,0.00483
3839.18834,0.00485
3838.22396,0.00489
3837.25959,0.00494
3836.29521,0.00498
3835.33083,0.00500
3834.36645,0.00501
3833.40207,0.00501
3832.43770,0.00500
3831.47332,0.00497
3830.50894,0.00493
3829.54456,0.00484
3828.58018,0.00474
3827.61581,0.00464
3826.65143,0.00454
3825.68705,0.00445
3824.72267,0.00439
3823.75829,0.00434
3822.79392,0.00433
3821.82954,0.00436
3820.86516,0.00441
3819.90078,0.00448
3818.93641,0.00458
3817.97203,0.00467
3817.00765,0.00473
3816.04327,0.00474
3815.07889,0.00473
3814.11452,0.00469
3813.15014,0.00460
3812.18576,0.00445
3811.22138,0.00426
3810.25700,0.00408
3809.29263,0.00395
3808.32825,0.00391
3807.36387,0.00393
3806.39949,0.00399
3805.43512,0.00407
3804.47074,0.00415
3803.50636,0.00423
3802.54198,0.00432
3801.57760,0.00440
3800.61323,0.00445
3799.64885,0.00450
3798.68447,0.00455
3797.72009,0.00462
3796.75571,0.00468
3795.79134,0.00471
3794.82696,0.00472
3793.86258,0.00469
3792.89820,0.00463
3791.93382,0.00457
3790.96945,0.00452
3790.00507,0.00448
3789.04069,0.00443
3788.07631,0.00441
3787.11194,0.00442
3786.14756,0.00443
3785.18318,0.00443
3784.21880,0.00444
3783.25442,0.00448
3782.29005,0.00451
3781.32567,0.00451
3780.36129,0.00451
3779.39691,0.00450
3778.43253,0.00449
3777.46816,0.00447
3776.50378,0.00445
3775.53940,0.00447
3774.57502,0.00450
3773.61065,0.00451
3772.64627,0.00449
3771.68189,0.00447
3770.71751,0.00445
3769.75313,0.00441
3768.78876,0.00434
3767.82438,0.00429
3766.86000,0.00429
3765.89562,0.00431
3764.93124,0.00435
3763.96687,0.00440
3763.00249,0.00444
3762.03811,0.00442
3761.07373,0.00438
3760.10935,0.00437
3759.14498,0.00441
3758.18060,0.00444
3757.21622,0.00450
3756.25184,0.00460
3755.28747,0.00474
3754.32309,0.00485
3753.35871,0.00489
3752.39433,0.00482
3751.42995,0.00466
3750.46558,0.00444
3749.50120,0.00425
3748.53682,0.00413
3747.57244,0.00408
3746.60806,0.00411
3745.64369,0.00420
3744.67931,0.00433
3743.71493,0.00444
3742.75055,0.00449
3741.78618,0.00449
3740.82180,0.00446
3739.85742,0.00445
3738.89304,0.00444
3737.92866,0.00444
3736.96429,0.00445
3735.99991,0.00446
3735.03553,0.00446
3734.07115,0.00444
3733.10677,0.00439
3732.14240,0.00431
3731.17802,0.00422
3730.21364,0.00416
3729.24926,0.00416
3728.28488,0.00422
3727.32051,0.00432
3726.35613,0.00444
3725.39175,0.00455
3724.42737,0.00463
3723.46300,0.00471
3722.49862,0.00476
3721.53424,0.00479
3720.56986,0.00478
3719.60548,0.00472
3718.64111,0.00461
3717.67673,0.00448
3716.71235,0.00435
3715.74797,0.00426
3714.78359,0.00417
3713.81922,0.00409
3712.85484,0.00401
3711.89046,0.00394
3710.92608,0.00388
3709.96171,0.00385
3708.99733,0.00386
3708.03295,0.00392
3707.06857,0.00399
3706.10419,0.00406
3705.13982,0.00412
3704.17544,0.00416
3703.21106,0.00421
3702.24668,0.00425
3701.28230,0.00426
3700.31793,0.00424
3699.35355,0.00421
3698.38917,0.00419
3697.42479,0.00417
3696.46041,0.00414
3695.49604,0.00408
3694.53166,0.00402
3693.56728,0.00398
3692.60290,0.00398
3691.63853,0.00401
3690.67415,0.00405
3689.70977,0.00407
3688.74539,0.00412
3687.78101,0.00419
3686.81664,0.00425
3685.85226,0.00428
3684.88788,0.00430
3683.92350,0.00429
3682.95912,0.00428
3681.99475,0.00429
3681.03037,0.00435
3680.06599,0.00438
3679.10161,0.00435
3678.13724,0.00426
3677.17286,0.00419
3676.20848,0.00415
3675.24410,0.00415
3674.27972,0.00418
3673.31535,0.00424
3672.35097,0.00427
3671.38659,0.00428
3670.42221,0.00433
3669.45783,0.00441
3668.49346,0.00443
3667.52908,0.00435
3666.56470,0.00422
3665.60032,0.00410
3664.63594,0.00399
3663.67157,0.00392
3662.70719,0.00391
3661.74281,0.00395
3660.77843,0.00401
3659.81406,0.00410
3658.84968,0.00422
3657.88530,0.00432
3656.92092,0.00433
3655.95654,0.00427
3654.99217,0.00418
3654.02779,0.00408
3653.06341,0.00403
3652.09903,0.00404
3651.13465,0.00408
3650.17028,0.00414
3649.20590,0.00421
3648.24152,0.00427
3647.27714,0.00430
3646.31276,0.00427
3645.34839,0.00420
3644.38401,0.00412
3643.41963,0.00405
3642.45525,0.00403
3641.49088,0.00409
3640.52650,0.00416
3639.56212,0.00422
3638.59774,0.00429
3637.63336,0.00436
3636.66899,0.00440
3635.70461,0.00438
3634.74023,0.00434
3633.77585,0.00429
3632.81147,0.00423
3631.84710,0.00417
3630.88272,0.00412
3629.91834,0.00405
3628.95396,0.00396
3627.98959,0.00386
3627.02521,0.00382
3626.06083,0.00388
3625.09645,0.00400
3624.13207,0.00415
3623.16770,0.00429
3622.20332,0.00443
3621.23894,0.00454
3620.27456,0.00463
3619.31018,0.00469
3618.34581,0.00468
3617.38143,0.00460
3616.41705,0.00448
3615.45267,0.00437
3614.48829,0.00431
3613.52392,0.00428
3612.55954,0.00425
3611.59516,0.00423
3610.63078,0.00426
3609.66641,0.00433
3608.70203,0.00441
3607.73765,0.00450
3606.77327,0.00460
3605.80889,0.00468
3604.84452,0.00472
3603.88014,0.00470
3602.91576,0.00464
3601.95138,0.00454
3600.98700,0.00441
3600.02263,0.00429
3599.05825,0.00419
3598.09387,0.00408
3597.12949,0.00398
3596.16512,0.00393
3595.20074,0.00394
3594.23636,0.00400
3593.27198,0.00410
3592.30760,0.00422
3591.34323,0.00434
3590.37885,0.00443
3589.41447,0.00450
3588.45009,0.00452
3587.48571,0.00450
3586.52134,0.00446
3585.55696,0.00441
3584.59258,0.00436
3583.62820,0.00431
3582.66382,0.00427
3581.69945,0.00425
3580.73507,0.00424
3579.77069,0.00425
3578.80631,0.00426
3577.84194,0.00427
3576.87756,0.00425
3575.91318,0.00421
3574.94880,0.00416
3573.98442,0.00410
3573.02005,0.00405
3572.05567,0.00401
3571.09129,0.00398
3570.12691,0.00396
3569.16253,0.00396
3568.19816,0.00398
3567.23378,0.00402
3566.26940,0.00411
3565.30502,0.00421
3564.34065,0.00428
3563.37627,0.00430
3562.41189,0.00428
3561.44751,0.00425
3560.48313,0.00423
3559.51876,0.00422
3558.55438,0.00419
3557.59000,0.00415
3556.62562,0.00412
3555.66124,0.00409
3554.69687,0.00408
3553.73249,0.00407
3552.76811,0.00404
3551.80373,0.00399
3550.83935,0.00393
3549.87498,0.00387
3548.91060,0.00382
3547.94622,0.00380
3546.98184,0.00376
3546.01747,0.00372
3545.05309,0.00369
3544.08871,0.00369
3543.12433,0.00373
3542.15995,0.00379
3541.19558,0.00386
3540.23120,0.00397
3539.26682,0.00406
3538.30244,0.00410
3537.33806,0.00414
3536.37369,0.00418
3535.40931,0.00422
3534.44493,0.00426
3533.48055,0.00433
3532.51618,0.00444
3531.55180,0.00455
3530.58742,0.00461
3529.62304,0.00463
3528.65866,0.00460
3527.69429,0.00452
3526.72991,0.00443
3525.76553,0.00437
3524.80115,0.00433
3523.83677,0.00434
3522.87240,0.00441
3521.90802,0.00451
3520.94364,0.00463
3519.97926,0.00475
3519.01488,0.00482
3518.05051,0.00483
3517.08613,0.00477
3516.12175,0.00469
3515.15737,0.00460
3514.19300,0.00449
3513.22862,0.00439
3512.26424,0.00430
3511.29986,0.00425
3510.33548,0.00421
3509.37111,0.00422
3508.40673,0.00427
3507.44235,0.00434
3506.47797,0.00440
3505.51359,0.00446
3504.54922,0.00452
3503.58484,0.00458
3502.62046,0.00462
3501.65608,0.00465
3500.69171,0.00467
3499.72733,0.00465
3498.76295,0.00460
3497.79857,0.00455
3496.83419,0.00449
3495.86982,0.00441
3494.90544,0.00434
3493.94106,0.00428
3492.97668,0.00427
3492.01230,0.00431
3491.04793,0.00440
3490.08355,0.00452
3489.11917,0.00461
3488.15479,0.00467
3487.19041,0.00470
3486.22604,0.00471
3485.26166,0.00471
3484.29728,0.00469
3483.33290,0.00468
3482.36853,0.00471
3481.40415,0.00478
3480.43977,0.00485
3479.47539,0.00488
3478.51101,0.00485
3477.54664,0.00477
3476.58226,0.00467
3475.61788,0.00461
3474.65350,0.00459
3473.68912,0.00460
3472.72475,0.00462
3471.76037,0.00466
3470.79599,0.00475
3469.83161,0.00486
3468.86724,0.00494
3467.90286,0.00495
3466.93848,0.00493
3465.97410,0.00489
3465.00972,0.00485
3464.04535,0.00480
3463.08097,0.00474
3462.11659,0.00467
3461.15221,0.00460
3460.18783,0.00455
3459.22346,0.00454
3458.25908,0.00456
3457.29470,0.00458
3456.33032,0.00462
3455.36594,0.00470
3454.40157,0.00479
3453.43719,0.00486
3452.47281,0.00488
3451.50843,0.00489
3450.54406,0.00490
3449.57968,0.00492
3448.61530,0.00492
3447.65092,0.00489
3446.68654,0.00486
3445.72217,0.00487
3444.75779,0.00493
3443.79341,0.00503
3442.82903,0.00512
3441.86465,0.00517
3440.90028,0.00514
3439.93590,0.00509
3438.97152,0.00503
3438.00714,0.00495
3437.04276,0.00482
3436.07839,0.00468
3435.11401,0.00457
3434.14963,0.00451
3433.18525,0.00450
3432.22088,0.00453
3431.25650,0.00456
3430.29212,0.00457
3429.32774,0.00459
3428.36336,0.00463
3427.39899,0.00471
3426.43461,0.00478
3425.47023,0.00486
3424.50585,0.00493
3423.54147,0.00498
3422.57710,0.00499
3421.61272,0.00498
3420.64834,0.00496
3419.68396,0.00493
3418.71959,0.00490
3417.75521,0.00489
3416.79083,0.00491
3415.82645,0.00495
3414.86207,0.00499
3413.89770,0.00501
3412.93332,0.00503
3411.96894,0.00503
3411.00456,0.00504
3410.04018,0.00504
3409.07581,0.00505
3408.11143,0.00510
3407.14705,0.00517
3406.18267,0.00523
3405.21829,0.00529
3404.25392,0.00535
3403.28954,0.00543
3402.32516,0.00552
3401.36078,0.00563
3400.39641,0.00577
3399.43203,0.00594
3398.46765,0.00615
3397.50327,0.00642
3396.53889,0.00680
3395.57452,0.00729
3394.61014,0.00790
3393.64576,0.00866
3392.68138,0.00953
3391.71700,0.01043
3390.75263,0.01123
3389.78825,0.01184
3388.82387,0.01219
3387.85949,0.01224
3386.89512,0.01197
3385.93074,0.01146
3384.96636,0.01081
3384.00198,0.01010
3383.03760,0.00943
3382.07323,0.00885
3381.10885,0.00837
3380.14447,0.00801
3379.18009,0.00774
3378.21571,0.00754
3377.25134,0.00737
3376.28696,0.00722
3375.32258,0.00707
3374.35820,0.00695
3373.39382,0.00682
3372.42945,0.00668
3371.46507,0.00651
3370.50069,0.00637
3369.53631,0.00630
3368.57194,0.00629
3367.60756,0.00629
3366.64318,0.00628
3365.67880,0.00621
3364.71442,0.00614
3363.75005,0.00607
3362.78567,0.00599
3361.82129,0.00588
3360.85691,0.00578
3359.89253,0.00570
3358.92816,0.00567
3357.96378,0.00567
3356.99940,0.00567
3356.03502,0.00566
3355.07065,0.00565
3354.10627,0.00562
3353.14189,0.00559
3352.17751,0.00554
3351.21313,0.00547
3350.24876,0.00541
3349.28438,0.00538
3348.32000,0.00537
3347.35562,0.00536
3346.39124,0.00532
3345.42687,0.00531
3344.46249,0.00535
3343.49811,0.00543
3342.53373,0.00549
3341.56935,0.00548
3340.60498,0.00540
3339.64060,0.00529
3338.67622,0.00520
3337.71184,0.00516
3336.74747,0.00512
3335.78309,0.00506
3334.81871,0.00502
3333.85433,0.00505
3332.88995,0.00514
3331.92558,0.00522
3330.96120,0.00528
3329.99682,0.00532
3329.03244,0.00533
3328.06806,0.00533
3327.10369,0.00532
3326.13931,0.00532
3325.17493,0.00531
3324.21055,0.00530
3323.24618,0.00530
3322.28180,0.00532
3321.31742,0.00533
3320.35304,0.00534
3319.38866,0.00534
3318.42429,0.00534
3317.45991,0.00529
3316.49553,0.00521
3315.53115,0.00511
3314.56677,0.00504
3313.60240,0.00500
3312.63802,0.00497
3311.67364,0.00495
3310.70926,0.00493
3309.74488,0.00494
3308.78051,0.00496
3307.81613,0.00500
3306.85175,0.00508
3305.88737,0.00520
3304.92300,0.00536
3303.95862,0.00555
3302.99424,0.00577
3302.02986,0.00601
3301.06548,0.00624
3300.10111,0.00642
3299.13673,0.00653
3298.17235,0.00652
3297.20797,0.00643
3296.24359,0.00625
3295.27922,0.00603
3294.31484,0.00581
3293.35046,0.00559
3292.38608,0.00540
3291.42171,0.00525
3290.45733,0.00517
3289.49295,0.00515
3288.52857,0.00519
3287.56419,0.00525
3286.59982,0.00531
3285.63544,0.00538
3284.67106,0.00545
3283.70668,0.00552
3282.74230,0.00558
3281.77793,0.00563
3280.81355,0.00564
3279.84917,0.00562
3278.88479,0.00559
3277.92041,0.00553
3276.95604,0.00543
3275.99166,0.00530
3275.02728,0.00515
3274.06290,0.00500
3273.09853,0.00487
3272.13415,0.00479
3271.16977,0.00475
3270.20539,0.00475
3269.24101,0.00479
3268.27664,0.00485
3267.31226,0.00491
3266.34788,0.00494
3265.38350,0.00495
3264.41912,0.00494
3263.45475,0.00488
3262.49037,0.00480
3261.52599,0.00476
3260.56161,0.00476
3259.59724,0.00475
3258.63286,0.00473
3257.66848,0.00472
3256.70410,0.00471
3255.73972,0.00471
3254.77535,0.00470
3253.81097,0.00469
3252.84659,0.00469
3251.88221,0.00470
3250.91783,0.00476
3249.95346,0.00486
3248.98908,0.00495
3248.02470,0.00498
3247.06032,0.00495
3246.09594,0.00491
3245.13157,0.00485
3244.16719,0.00474
3243.20281,0.00460
3242.23843,0.00448
3241.27406,0.00441
3240.30968,0.00439
3239.34530,0.00439
3238.38092,0.00444
3237.41654,0.00452
3236.45217,0.00461
3235.48779,0.00468
3234.52341,0.00470
3233.55903,0.00467
3232.59465,0.00460
3231.63028,0.00454
3230.66590,0.00451
3229.70152,0.00448
3228.73714,0.00444
3227.77276,0.00442
3226.80839,0.00445
3225.84401,0.00451
3224.87963,0.00457
3223.91525,0.00459
3222.95088,0.00456
3221.98650,0.00450
3221.02212,0.00444
3220.05774,0.00443
3219.09336,0.00446
3218.12899,0.00450
3217.16461,0.00452
3216.20023,0.00452
3215.23585,0.00452
3214.27147,0.00454
3213.30710,0.00456
3212.34272,0.00458
3211.37834,0.00457
3210.41396,0.00453
3209.44959,0.00450
3208.48521,0.00449
3207.52083,0.00448
3206.55645,0.00441
3205.59207,0.00432
3204.62770,0.00427
3203.66332,0.00428
3202.69894,0.00434
3201.73456,0.00443
3200.77018,0.00451
3199.80581,0.00456
3198.84143,0.00462
3197.87705,0.00465
3196.91267,0.00461
3195.94829,0.00449
3194.98392,0.00434
3194.01954,0.00423
3193.05516,0.00418
3192.09078,0.00417
3191.12641,0.00418
3190.16203,0.00422
3189.19765,0.00428
3188.23327,0.00436
3187.26889,0.00445
3186.30452,0.00449
3185.34014,0.00447
3184.37576,0.00446
3183.41138,0.00450
3182.44700,0.00458
3181.48263,0.00464
3180.51825,0.00464
3179.55387,0.00460
3178.58949,0.00456
3177.62512,0.00452
3176.66074,0.00449
3175.69636,0.00445
3174.73198,0.00437
3173.76760,0.00432
3172.80323,0.00433
3171.83885,0.00438
3170.87447,0.00442
3169.91009,0.00445
3168.94571,0.00446
3167.98134,0.00445
3167.01696,0.00447
3166.05258,0.00452
3165.08820,0.00457
3164.12382,0.00459
3163.15945,0.00456
3162.19507,0.00450
3161.23069,0.00441
3160.26631,0.00433
3159.30194,0.00429
3158.33756,0.00428
3157.37318,0.00429
3156.40880,0.00432
3155.44442,0.00438
3154.48005,0.00444
3153.51567,0.00448
3152.55129,0.00449
3151.58691,0.00447
3150.62253,0.00444
3149.65816,0.00440
3148.69378,0.00440
3147.72940,0.00441
3146.76502,0.00441
3145.80065,0.00438
3144.83627,0.00437
3143.87189,0.00438
3142.90751,0.00438
3141.94313,0.00438
3140.97876,0.00439
3140.01438,0.00441
3139.05000,0.00442
3138.08562,0.00442
3137.12124,0.00443
3136.15687,0.00442
3135.19249,0.00438
3134.22811,0.00433
3133.26373,0.00429
3132.29935,0.00426
3131.33498,0.00421
3130.37060,0.00414
3129.40622,0.00409
3128.44184,0.00408
3127.47747,0.00406
3126.51309,0.00406
3125.54871,0.00408
3124.58433,0.00413
3123.61995,0.00419
3122.65558,0.00423
3121.69120,0.00426
3120.72682,0.00430
3119.76244,0.00431
3118.79806,0.00429
3117.83369,0.00428
3116.86931,0.00429
3115.90493,0.00428
3114.94055,0.00422
3113.97618,0.00416
3113.01180,0.00409
3112.04742,0.00405
3111.08304,0.00405
3110.11866,0.00406
3109.15429,0.00406
3108.18991,0.00404
3107.22553,0.00404
3106.26115,0.00411
3105.29677,0.00419
3104.33240,0.00423
3103.36802,0.00421
3102.40364,0.00415
3101.43926,0.00409
3100.47488,0.00409
3099.51051,0.00416
3098.54613,0.00422
3097.58175,0.00425
3096.61737,0.00425
3095.65300,0.00426
3094.68862,0.00428
3093.72424,0.00430
3092.75986,0.00432
3091.79548,0.00432
3090.83111,0.00433
3089.86673,0.00435
3088.90235,0.00441
3087.93797,0.00447
3086.97359,0.00451
3086.00922,0.00452
3085.04484,0.00449
3084.08046,0.00441
3083.11608,0.00434
3082.15171,0.00432
3081.18733,0.00432
3080.22295,0.00432
3079.25857,0.00432
3078.29419,0.00430
3077.32982,0.00425
3076.36544,0.00419
3075.40106,0.00417
3074.43668,0.00419
3073.47230,0.00422
3072.50793,0.00425
3071.54355,0.00427
3070.57917,0.00427
3069.61479,0.00426
3068.65041,0.00425
3067.68604,0.00425
3066.72166,0.00424
3065.75728,0.00421
3064.79290,0.00422
3063.82853,0.00426
3062.86415,0.00434
3061.89977,0.00441
3060.93539,0.00442
3059.97101,0.00439
3059.00664,0.00433
3058.04226,0.00427
3057.07788,0.00421
3056.11350,0.00416
3055.14912,0.00412
3054.18475,0.00411
3053.22037,0.00412
3052.25599,0.00414
3051.29161,0.00414
3050.32724,0.00414
3049.36286,0.00414
3048.39848,0.00413
3047.43410,0.00411
3046.46972,0.00411
3045.50535,0.00412
3044.54097,0.00418
3043.57659,0.00426
3042.61221,0.00434
3041.64783,0.00441
3040.68346,0.00442
3039.71908,0.00440
3038.75470,0.00435
3037.79032,0.00429
3036.82594,0.00421
3035.86157,0.00415
3034.89719,0.00411
3033.93281,0.00409
3032.96843,0.00408
3032.00406,0.00407
3031.03968,0.00408
3030.07530,0.00410
3029.11092,0.00410
3028.14654,0.00409
3027.18217,0.00408
3026.21779,0.00408
3025.25341,0.00410
3024.28903,0.00415
3023.32465,0.00420
3022.36028,0.00423
3021.39590,0.00423
3020.43152,0.00422
3019.46714,0.00422
3018.50276,0.00421
3017.53839,0.00418
3016.57401,0.00413
3015.60963,0.00409
3014.64525,0.00408
3013.68088,0.00412
3012.71650,0.00420
3011.75212,0.00429
3010.78774,0.00434
3009.82336,0.00435
3008.85899,0.00434
3007.89461,0.00432
3006.93023,0.00429
3005.96585,0.00424
3005.00147,0.00419
3004.03710,0.00414
3003.07272,0.00411
3002.10834,0.00411
3001.14396,0.00411
3000.17959,0.00410
2999.21521,0.00406
2998.25083,0.00403
2997.28645,0.00404
2996.32207,0.00407
2995.35770,0.00410
2994.39332,0.00414
2993.42894,0.00418
2992.46456,0.00422
2991.50018,0.00425
2990.53581,0.00425
2989.57143,0.00421
2988.60705,0.00415
2987.64267,0.00408
2986.67829,0.00405
2985.71392,0.00403
2984.74954,0.00401
2983.78516,0.00398
2982.82078,0.00394
2981.85641,0.00391
2980.89203,0.00391
2979.92765,0.00392
2978.96327,0.00396
2977.99889,0.00402
2977.03452,0.00408
2976.07014,0.00413
2975.10576,0.00418
2974.14138,0.00422
2973.17700,0.00424
2972.21263,0.00424
2971.24825,0.00422
2970.28387,0.00419
2969.31949,0.00416
2968.35512,0.00411
2967.39074,0.00406
2966.42636,0.00401
2965.46198,0.00397
2964.49760,0.00392
2963.53323,0.00387
2962.56885,0.00383
2961.60447,0.00380
2960.64009,0.00380
2959.67571,0.00383
2958.71134,0.00386
2957.74696,0.00388
2956.78258,0.00392
2955.81820,0.00398
2954.85382,0.00406
2953.88945,0.00415
2952.92507,0.00422
2951.96069,0.00429
2950.99631,0.00433
2950.03194,0.00433
2949.06756,0.00430
2948.10318,0.00423
2947.13880,0.00415
2946.17442,0.00408
2945.21005,0.00404
2944.24567,0.00403
2943.28129,0.00403
2942.31691,0.00403
2941.35253,0.00405
2940.38816,0.00410
2939.42378,0.00415
2938.45940,0.00418
2937.49502,0.00416
2936.53065,0.00414
2935.56627,0.00411
2934.60189,0.00411
2933.63751,0.00413
2932.67313,0.00414
2931.70876,0.00412
2930.74438,0.00411
2929.78000,0.00411
2928.81562,0.00413
2927.85124,0.00416
2926.88687,0.00416
2925.92249,0.00411
2924.95811,0.00406
2923.99373,0.00404
2923.02935,0.00404
2922.06498,0.00404
2921.10060,0.00403
2920.13622,0.00402
2919.17184,0.00402
2918.20747,0.00403
2917.24309,0.00404
2916.27871,0.00405
2915.31433,0.00405
2914.34995,0.00404
2913.38558,0.00404
2912.42120,0.00404
2911.45682,0.00403
2910.49244,0.00401
2909.52806,0.00399
2908.56369,0.00396
2907.59931,0.00393
2906.63493,0.00389
2905.67055,0.00386
2904.70618,0.00386
2903.74180,0.00388
2902.77742,0.00391
2901.81304,0.00393
2900.84866,0.00396
2899.88429,0.00398
2898.91991,0.00401
2897.95553,0.00403
2896.99115,0.00405
2896.02677,0.00406
2895.06240,0.00407
2894.09802,0.00410
2893.13364,0.00413
2892.16926,0.00416
2891.20488,0.00420
2890.24051,0.00424
2889.27613,0.00426
2888.31175,0.00427
2887.34737,0.00426
2886.38300,0.00424
2885.41862,0.00420
2884.45424,0.00413
2883.48986,0.00406
2882.52548,0.00399
2881.56111,0.00394
2880.59673,0.00390
2879.63235,0.00389
2878.66797,0.00389
2877.70359,0.00390
2876.73922,0.00393
2875.77484,0.00397
2874.81046,0.00401
2873.84608,0.00403
2872.88171,0.00403
2871.91733,0.00401
2870.95295,0.00400
2869.98857,0.00399
2869.02419,0.00397
2868.05982,0.00396
2867.09544,0.00397
2866.13106,0.00399
2865.16668,0.00402
2864.20230,0.00404
2863.23793,0.00405
2862.27355,0.00405
2861.30917,0.00405
2860.34479,0.00404
2859.38041,0.00401
2858.41604,0.00398
2857.45166,0.00395
2856.48728,0.00391
2855.52290,0.00387
2854.55853,0.00384
2853.59415,0.00381
2852.62977,0.00377
2851.66539,0.00376
2850.70101,0.00376
2849.73664,0.00377
2848.77226,0.00379
2847.80788,0.00382
2846.84350,0.00385
2845.87912,0.00389
2844.91475,0.00392
2843.95037,0.00394
2842.98599,0.00394
2842.02161,0.00392
2841.05724,0.00388
2840.09286,0.00385
2839.12848,0.00382
2838.16410,0.00380
2837.19972,0.00381
2836.23535,0.00383
2835.27097,0.00386
2834.30659,0.00391
2833.34221,0.00395
2832.37783,0.00396
2831.41346,0.00393
2830.44908,0.00388
2829.48470,0.00384
2828.52032,0.00382
2827.55594,0.00382
2826.59157,0.00382
2825.62719,0.00381
2824.66281,0.00380
2823.69843,0.00380
2822.73406,0.00381
2821.76968,0.00382
2820.80530,0.00381
2819.84092,0.00379
2818.87654,0.00378
2817.91217,0.00378
2816.94779,0.00379
2815.98341,0.00381
2815.01903,0.00381
2814.05465,0.00380
2813.09028,0.00379
2812.12590,0.00379
2811.16152,0.00380
2810.19714,0.00382
2809.23276,0.00383
2808.26839,0.00382
2807.30401,0.00380
2806.33963,0.00376
2805.37525,0.00372
2804.41088,0.00369
2803.44650,0.00368
2802.48212,0.00369
2801.51774,0.00371
2800.55336,0.00374
2799.58899,0.00378
2798.62461,0.00381
2797.66023,0.00383
2796.69585,0.00382
2795.73147,0.00379
2794.76710,0.00375
2793.80272,0.00372
2792.83834,0.00370
2791.87396,0.00369
2790.90959,0.00368
2789.94521,0.00368
2788.98083,0.00366
2788.01645,0.00363
2787.05207,0.00360
2786.08770,0.00358
2785.12332,0.00357
2784.15894,0.00356
2783.19456,0.00358
2782.23018,0.00362
2781.26581,0.00365
2780.30143,0.00367
2779.33705,0.00368
2778.37267,0.00368
2777.40829,0.00367
2776.44392,0.00366
2775.47954,0.00366
2774.51516,0.00367
2773.55078,0.00367
2772.58641,0.00367
2771.62203,0.00367
2770.65765,0.00367
2769.69327,0.00368
2768.72889,0.00369
2767.76452,0.00370
2766.80014,0.00370
2765.83576,0.00370
2764.87138,0.00369
2763.90700,0.00369
2762.94263,0.00370
2761.97825,0.00370
2761.01387,0.00369
2760.04949,0.00366
2759.08512,0.00363
2758.12074,0.00360
2757.15636,0.00358
2756.19198,0.00356
2755.22760,0.00352
2754.26323,0.00348
2753.29885,0.00345
2752.33447,0.00346
2751.37009,0.00349
2750.40571,0.00351
2749.44134,0.00352
2748.47696,0.00353
2747.51258,0.00354
2746.54820,0.00357
2745.58382,0.00360
2744.61945,0.00361
2743.65507,0.00359
2742.69069,0.00356
2741.72631,0.00355
2740.76194,0.00354
2739.79756,0.00354
2738.83318,0.00352
2737.86880,0.00349
2736.90442,0.00346
2735.94005,0.00343
2734.97567,0.00342
2734.01129,0.00341
2733.04691,0.00342
2732.08253,0.00343
2731.11816,0.00344
2730.15378,0.00347
2729.18940,0.00349
2728.22502,0.00349
2727.26065,0.00348
2726.29627,0.00346
2725.33189,0.00343
2724.36751,0.00340
2723.40313,0.00339
2722.43876,0.00339
2721.47438,0.00342
2720.51000,0.00346
2719.54562,0.00350
2718.58124,0.00353
2717.61687,0.00353
2716.65249,0.00352
2715.68811,0.00352
2714.72373,0.00353
2713.75935,0.00352
2712.79498,0.00349
2711.83060,0.00346
2710.86622,0.00344
2709.90184,0.00343
2708.93747,0.00344
2707.97309,0.00346
2707.00871,0.00347
2706.04433,0.00347
2705.07995,0.00347
2704.11558,0.00347
2703.15120,0.00345
2702.18682,0.00342
2701.22244,0.00340
2700.25806,0.00339
2699.29369,0.00338
2698.32931,0.00338
2697.36493,0.00341
2696.40055,0.00343
2695.43618,0.00344
2694.47180,0.00343
2693.50742,0.00341
2692.54304,0.00338
2691.57866,0.00335
2690.61429,0.00332
2689.64991,0.00332
2688.68553,0.00334
2687.72115,0.00337
2686.75677,0.00340
2685.79240,0.00343
2684.82802,0.00344
2683.86364,0.00343
2682.89926,0.00342
2681.93488,0.00339
2680.97051,0.00337
2680.00613,0.00334
2679.04175,0.00333
2678.07737,0.00332
2677.11300,0.00332
2676.14862,0.00332
2675.18424,0.00330
2674.21986,0.00327
2673.25548,0.00326
2672.29111,0.00325
2671.32673,0.00325
2670.36235,0.00325
2669.39797,0.00326
2668.43359,0.00326
2667.46922,0.00326
2666.50484,0.00325
2665.54046,0.00324
2664.57608,0.00322
2663.61171,0.00319
2662.64733,0.00318
2661.68295,0.00318
2660.71857,0.00321
2659.75419,0.00323
2658.78982,0.00325
2657.82544,0.00326
2656.86106,0.00328
2655.89668,0.00329
2654.93230,0.00329
2653.96793,0.00330
2653.00355,0.00331
2652.03917,0.00331
2651.07479,0.00329
2650.11041,0.00329
2649.14604,0.00329
2648.18166,0.00328
2647.21728,0.00326
2646.25290,0.00325
2645.28853,0.00325
2644.32415,0.00324
2643.35977,0.00325
2642.39539,0.00326
2641.43101,0.00326
2640.46664,0.00324
2639.50226,0.00321
2638.53788,0.00320
2637.57350,0.00319
2636.60912,0.00315
2635.64475,0.00311
2634.68037,0.00307
2633.71599,0.00304
2632.75161,0.00303
2631.78724,0.00302
2630.82286,0.00299
2629.85848,0.00295
2628.89410,0.00292
2627.92972,0.00292
2626.96535,0.00294
2626.00097,0.00299
2625.03659,0.00303
2624.07221,0.00307
2623.10783,0.00311
2622.14346,0.00317
2621.17908,0.00322
2620.21470,0.00324
2619.25032,0.00323
2618.28594,0.00319
2617.32157,0.00313
2616.35719,0.00307
2615.39281,0.00301
2614.42843,0.00295
2613.46406,0.00291
2612.49968,0.00287
2611.53530,0.00284
2610.57092,0.00283
2609.60654,0.00285
2608.64217,0.00288
2607.67779,0.00290
2606.71341,0.00290
2605.74903,0.00287
2604.78465,0.00284
2603.82028,0.00281
2602.85590,0.00279
2601.89152,0.00277
2600.92714,0.00276
2599.96276,0.00275
2598.99839,0.00277
2598.03401,0.00282
2597.06963,0.00289
2596.10525,0.00294
2595.14088,0.00296
2594.17650,0.00295
2593.21212,0.00292
2592.24774,0.00285
2591.28336,0.00275
2590.31899,0.00265
2589.35461,0.00255
2588.39023,0.00249
2587.42585,0.00244
2586.46147,0.00243
2585.49710,0.00244
2584.53272,0.00248
2583.56834,0.00253
2582.60396,0.00256
2581.63959,0.00255
2580.67521,0.00251
2579.71083,0.00247
2578.74645,0.00242
2577.78207,0.00239
2576.81770,0.00235
2575.85332,0.00233
2574.88894,0.00231
2573.92456,0.00231
2572.96018,0.00233
2571.99581,0.00234
2571.03143,0.00233
2570.06705,0.00229
2569.10267,0.00226
2568.13829,0.00224
2567.17392,0.00225
2566.20954,0.00228
2565.24516,0.00230
2564.28078,0.00232
2563.31641,0.00233
2562.35203,0.00232
2561.38765,0.00233
2560.42327,0.00233
2559.45889,0.00230
2558.49452,0.00226
2557.53014,0.00225
2556.56576,0.00230
2555.60138,0.00235
2554.63700,0.00239
2553.67263,0.00242
2552.70825,0.00243
2551.74387,0.00241
2550.77949,0.00240
2549.81512,0.00240
2548.85074,0.00237
2547.88636,0.00232
2546.92198,0.00227
2545.95760,0.00226
2544.99323,0.00227
2544.02885,0.00224
2543.06447,0.00221
2542.10009,0.00220
2541.13571,0.00221
2540.17134,0.00225
2539.20696,0.00231
2538.24258,0.00236
2537.27820,0.00239
2536.31382,0.00242
2535.34945,0.00248
2534.38507,0.00253
2533.42069,0.00254
2532.45631,0.00247
2531.49194,0.00238
2530.52756,0.00229
2529.56318,0.00222
2528.59880,0.00215
2527.63442,0.00204
2526.67005,0.00192
2525.70567,0.00185
2524.74129,0.00185
2523.77691,0.00190
2522.81253,0.00195
2521.84816,0.00200
2520.88378,0.00202
2519.91940,0.00204
2518.95502,0.00203
2517.99065,0.00198
2517.02627,0.00189
2516.06189,0.00181
2515.09751,0.00178
2514.13313,0.00181
2513.16876,0.00183
2512.20438,0.00184
2511.24000,0.00185
2510.27562,0.00189
2509.31124,0.00191
2508.34687,0.00189
2507.38249,0.00182
2506.41811,0.00173
2505.45373,0.00167
2504.48935,0.00166
2503.52498,0.00169
2502.56060,0.00173
2501.59622,0.00178
2500.63184,0.00185
2499.66747,0.00197
2498.70309,0.00209
2497.73871,0.00217
2496.77433,0.00221
2495.80995,0.00219
2494.84558,0.00212
2493.88120,0.00201
2492.91682,0.00187
2491.95244,0.00172
2490.98806,0.00160
2490.02369,0.00153
2489.05931,0.00150
2488.09493,0.00150
2487.13055,0.00151
2486.16618,0.00154
2485.20180,0.00159
2484.23742,0.00162
2483.27304,0.00161
2482.30866,0.00159
2481.34429,0.00156
2480.37991,0.00153
2479.41553,0.00151
2478.45115,0.00149
2477.48677,0.00147
2476.52240,0.00147
2475.55802,0.00150
2474.59364,0.00152
2473.62926,0.00154
2472.66488,0.00156
2471.70051,0.00158
2470.73613,0.00154
2469.77175,0.00144
2468.80737,0.00132
2467.84300,0.00121
2466.87862,0.00113
2465.91424,0.00109
2464.94986,0.00111
2463.98548,0.00118
2463.02111,0.00124
2462.05673,0.00132
2461.09235,0.00142
2460.12797,0.00151
2459.16359,0.00159
2458.19922,0.00168
2457.23484,0.00179
2456.27046,0.00188
2455.30608,0.00194
2454.34171,0.00196
2453.37733,0.00196
2452.41295,0.00194
2451.44857,0.00188
2450.48419,0.00178
2449.51982,0.00166
2448.55544,0.00155
2447.59106,0.00149
2446.62668,0.00148
2445.66230,0.00144
2444.69793,0.00138
2443.73355,0.00133
2442.76917,0.00133
2441.80479,0.00136
2440.84041,0.00142
2439.87604,0.00150
2438.91166,0.00158
2437.94728,0.00163
2436.98290,0.00165
2436.01853,0.00165
2435.05415,0.00162
2434.08977,0.00153
2433.12539,0.00143
2432.16101,0.00136
2431.19664,0.00132
2430.23226,0.00128
2429.26788,0.00124
2428.30350,0.00121
2427.33912,0.00122
2426.37475,0.00127
2425.41037,0.00133
2424.44599,0.00140
2423.48161,0.00144
2422.51724,0.00147
2421.55286,0.00149
2420.58848,0.00151
2419.62410,0.00151
2418.65972,0.00147
2417.69535,0.00140
2416.73097,0.00132
2415.76659,0.00125
2414.80221,0.00118
2413.83783,0.00113
2412.87346,0.00111
2411.90908,0.00113
2410.94470,0.00119
2409.98032,0.00128
2409.01594,0.00135
2408.05157,0.00139
2407.08719,0.00140
2406.12281,0.00138
2405.15843,0.00130
2404.19406,0.00117
2403.22968,0.00106
2402.26530,0.00102
2401.30092,0.00105
2400.33654,0.00113
2399.37217,0.00124
2398.40779,0.00134
2397.44341,0.00141
2396.47903,0.00144
2395.51465,0.00143
2394.55028,0.00139
2393.58590,0.00133
2392.62152,0.00126
2391.65714,0.00121
2390.69276,0.00116
2389.72839,0.00113
2388.76401,0.00111
2387.79963,0.00110
2386.83525,0.00109
2385.87088,0.00108
2384.90650,0.00110
2383.94212,0.00116
2382.97774,0.00125
2382.01336,0.00137
2381.04899,0.00149
2380.08461,0.00157
2379.12023,0.00160
2378.15585,0.00161
2377.19147,0.00161
2376.22710,0.00160
2375.26272,0.00156
2374.29834,0.00153
2373.33396,0.00152
2372.36959,0.00151
2371.40521,0.00152
2370.44083,0.00154
2369.47645,0.00156
2368.51207,0.00153
2367.54770,0.00149
2366.58332,0.00149
2365.61894,0.00150
2364.65456,0.00150
2363.69018,0.00150
2362.72581,0.00152
2361.76143,0.00156
2360.79705,0.00161
2359.83267,0.00167
2358.86829,0.00173
2357.90392,0.00173
2356.93954,0.00169
2355.97516,0.00162
2355.01078,0.00155
2354.04641,0.00146
2353.08203,0.00139
2352.11765,0.00137
2351.15327,0.00138
2350.18889,0.00142
2349.22452,0.00146
2348.26014,0.00151
2347.29576,0.00155
2346.33138,0.00155
2345.36700,0.00151
2344.40263,0.00145
2343.43825,0.00140
2342.47387,0.00137
2341.50949,0.00136
2340.54512,0.00137
2339.58074,0.00141
2338.61636,0.00145
2337.65198,0.00149
2336.68760,0.00153
2335.72323,0.00155
2334.75885,0.00154
2333.79447,0.00152
2332.83009,0.00150
2331.86571,0.00149
2330.90134,0.00150
2329.93696,0.00155
2328.97258,0.00166
2328.00820,0.00180
2327.04382,0.00190
2326.07945,0.00196
2325.11507,0.00196
2324.15069,0.00191
2323.18631,0.00182
2322.22194,0.00171
2321.25756,0.00162
2320.29318,0.00157
2319.32880,0.00158
2318.36442,0.00163
2317.40005,0.00170
2316.43567,0.00175
2315.47129,0.00177
2314.50691,0.00175
2313.54253,0.00168
2312.57816,0.00158
2311.61378,0.00148
2310.64940,0.00139
2309.68502,0.00133
2308.72065,0.00131
2307.75627,0.00129
2306.79189,0.00129
2305.82751,0.00129
2304.86313,0.00131
2303.89876,0.00131
2302.93438,0.00131
2301.97000,0.00133
2301.00562,0.00135
2300.04124,0.00140
2299.07687,0.00146
2298.11249,0.00152
2297.14811,0.00152
2296.18373,0.00146
2295.21935,0.00139
2294.25498,0.00132
2293.29060,0.00127
2292.32622,0.00127
2291.36184,0.00132
2290.39747,0.00142
2289.43309,0.00153
2288.46871,0.00165
2287.50433,0.00178
2286.53995,0.00185
2285.57558,0.00181
2284.61120,0.00168
2283.64682,0.00152
2282.68244,0.00135
2281.71806,0.00118
2280.75369,0.00106
2279.78931,0.00099
2278.82493,0.00093
2277.86055,0.00088
2276.89618,0.00089
2275.93180,0.00099
2274.96742,0.00109
2274.00304,0.00120
2273.03866,0.00134
2272.07429,0.00149
2271.10991,0.00159
2270.14553,0.00165
2269.18115,0.00172
2268.21677,0.00176
2267.25240,0.00174
2266.28802,0.00168
2265.32364,0.00164
2264.35926,0.00158
2263.39488,0.00148
2262.43051,0.00137
2261.46613,0.00126
2260.50175,0.00110
2259.53737,0.00091
2258.57300,0.00077
2257.60862,0.00072
2256.64424,0.00078
2255.67986,0.00093
2254.71548,0.00118
2253.75111,0.00146
2252.78673,0.00172
2251.82235,0.00198
2250.85797,0.00220
2249.89359,0.00227
2248.92922,0.00211
2247.96484,0.00179
2247.00046,0.00146
2246.03608,0.00125
2245.07171,0.00120
2244.10733,0.00129
2243.14295,0.00137
2242.17857,0.00135
2241.21419,0.00127
2240.24982,0.00126
2239.28544,0.00134
2238.32106,0.00142
2237.35668,0.00145
2236.39230,0.00145
2235.42793,0.00155
2234.46355,0.00173
2233.49917,0.00192
2232.53479,0.00198
2231.57041,0.00179
2230.60604,0.00135
2229.64166,0.00085
2228.67728,0.00038
2227.71290,-0.00005
2226.74853,-0.00039
2225.78415,-0.00053
2224.81977,-0.00041
2223.85539,-0.00011
2222.89101,0.00026
2221.92664,0.00058
2220.96226,0.00084
2219.99788,0.00109
2219.03350,0.00132
2218.06912,0.00141
2217.10475,0.00132
2216.14037,0.00115
2215.17599,0.00106
2214.21161,0.00115
2213.24724,0.00143
2212.28286,0.00175
2211.31848,0.00199
2210.35410,0.00216
2209.38972,0.00229
2208.42535,0.00236
2207.46097,0.00240
2206.49659,0.00233
2205.53221,0.00224
2204.56783,0.00221
2203.60346,0.00224
2202.63908,0.00233
2201.67470,0.00249
2200.71032,0.00266
2199.74594,0.00280
2198.78157,0.00291
2197.81719,0.00297
2196.85281,0.00297
2195.88843,0.00303
2194.92406,0.00309
2193.95968,0.00314
2192.99530,0.00320
2192.03092,0.00325
2191.06654,0.00331
2190.10217,0.00337
2189.13779,0.00342
2188.17341,0.00348
2187.20903,0.00354
2186.24465,0.00359
2185.28028,0.00365
2184.31590,0.00370
2183.35152,0.00376
2182.38714,0.00382
2181.42276,0.00387
2180.45839,0.00393
2179.49401,0.00398
2178.52963,0.00404
2177.56525,0.00410
2176.60088,0.00415
2175.63650,0.00421
2174.67212,0.00427
2173.70774,0.00432
2172.74336,0.00438
2171.77899,0.00443
2170.81461,0.00449
2169.85023,0.00455
2168.88585,0.00460
2167.92147,0.00466
2166.95710,0.00472
2165.99272,0.00477
2165.02834,0.00483
2164.06396,0.00488
2163.09959,0.00494
2162.13521,0.00500
2161.17083,0.00505
2160.20645,0.00511
2159.24207,0.00517
2158.27770,0.00522
2157.31332,0.00528
2156.34894,0.00533
2155.38456,0.00539
2154.42018,0.00545
2153.45581,0.00550
2152.49143,0.00556
2151.52705,0.00562
2150.56267,0.00567
2149.59829,0.00573
2148.63392,0.00578
2147.66954,0.00584
2146.70516,0.00590
2145.74078,0.00595
2144.77641,0.00601
2143.81203,0.00607
2142.84765,0.00612
2141.88327,0.00618
2140.91889,0.00623
2139.95452,0.00629
2138.99014,0.00635
2138.02576,0.00640
2137.06138,0.00646
2136.09700,0.00652
2135.13263,0.00657
2134.16825,0.00663
2133.20387,0.00668
2132.23949,0.00674
2131.27512,0.00680
2130.31074,0.00685
2129.34636,0.00691
2128.38198,0.00696
2127.41760,0.00702
2126.45323,0.00708
2125.48885,0.00713
2124.52447,0.00719
2123.56009,0.00725
2122.59571,0.00730
2121.63134,0.00736
2120.66696,0.00741
2119.70258,0.00747
2118.73820,0.00753
2117.77382,0.00758
2116.80945,0.00764
2115.84507,0.00770
2114.88069,0.00775
2113.91631,0.00781
2112.95194,0.00786
2111.98756,0.00792
2111.02318,0.00798
2110.05880,0.00803
2109.09442,0.00809
2108.13005,0.00815
2107.16567,0.00820
2106.20129,0.00826
2105.23691,0.00831
2104.27253,0.00837
2103.30816,0.00843
2102.34378,0.00848
2101.37940,0.00854
2100.41502,0.00860
2099.45065,0.00865
2098.48627,0.00871
2097.52189,0.00876
2096.55751,0.00882
2095.59313,0.00888
2094.62876,0.00893
2093.66438,0.00899
2092.70000,0.00905
2091.73562,0.00910
2090.77124,0.00916
2089.80687,0.00921
2088.84249,0.00927
2087.87811,0.00933
2086.91373,0.00938
2085.94935,0.00944
2084.98498,0.00950
2084.02060,0.00955
2083.05622,0.00961
2082.09184,0.00966
2081.12747,0.00972
2080.16309,0.00978
2079.19871,0.00983
2078.23433,0.00989
2077.26995,0.00994
2076.30558,0.01000
2075.34120,0.01006
2074.37682,0.01011
2073.41244,0.01017
2072.44806,0.01023
2071.48369,0.01028
2070.51931,0.01034
2069.55493,0.01039
2068.59055,0.01045
2067.62618,0.01051
2066.66180,0.01056
2065.69742,0.01062
2064.73304,0.01068
2063.76866,0.01073
2062.80429,0.01079
2061.83991,0.01084
2060.87553,0.01090
2059.91115,0.01096
2058.94677,0.01101
2057.98240,0.01107
2057.01802,0.01113
2056.05364,0.01118
2055.08926,0.01124
2054.12488,0.01129
2053.16051,0.01135
2052.19613,0.01141
2051.23175,0.01146
2050.26737,0.01152
2049.30300,0.01158
2048.33862,0.01163
2047.37424,0.01169
2046.40986,0.01174
2045.44548,0.01180
2044.48111,0.01186
2043.51673,0.01191
2042.55235,0.01197
2041.58797,0.01203
2040.62359,0.01208
2039.65922,0.01214
2038.69484,0.01219
2037.73046,0.01225
2036.76608,0.01231
2035.80171,0.01236
2034.83733,0.01242
2033.87295,0.01248
2032.90857,0.01253
2031.94419,0.01259
2030.97982,0.01264
2030.01544,0.01270
2029.05106,0.01276
2028.08668,0.01281
2027.12230,0.01287
2026.15793,0.01292
2025.19355,0.01298
2024.22917,0.01304
2023.26479,0.01309
2022.30041,0.01315
2021.33604,0.01321
2020.37166,0.01326
2019.40728,0.01332
2018.44290,0.01337
2017.47853,0.01343
2016.51415,0.01349
2015.54977,0.01354
2014.58539,0.01360
2013.62101,0.01366
2012.65664,0.01371
2011.69226,0.01377
2010.72788,0.01382
2009.76350,0.01388
2008.79912,0.01394
2007.83475,0.01399
2006.87037,0.01405
2005.90599,0.01411
2004.94161,0.01416
2003.97724,0.01422
2003.01286,0.01427
2002.04848,0.01433
2001.08410,0.01439
2000.11972,0.01444
1999.15535,0.01450
1998.19097,0.01456
1997.22659,0.01461
1996.26221,0.01467
1995.29783,0.01472
1994.33346,0.01478
1993.36908,0.01484
1992.40470,0.01489
1991.44032,0.01495
1990.47594,0.01501
1989.51157,0.01506
1988.54719,0.01512
1987.58281,0.01517
1986.61843,0.01523
1985.65406,0.01529
1984.68968,0.01534
1983.72530,0.01540
1982.76092,0.01546
1981.79654,0.01551
1980.83217,0.01557
1979.86779,0.01562
1978.90341,0.01568
1977.93903,0.01574
1976.97465,0.01579
1976.01028,0.01585
1975.04590,0.01590
1974.08152,0.01596
1973.11714,0.01602
1972.15276,0.01607
1971.18839,0.01613
1970.22401,0.01619
1969.25963,0.01624
1968.29525,0.01630
1967.33088,0.01635
1966.36650,0.01641
1965.40212,0.01647
1964.43774,0.01652
1963.47336,0.01658
1962.50899,0.01662
1961.54461,0.01669
1960.58023,0.01678
1959.61585,0.01690
1958.65147,0.01703
1957.68710,0.01705
1956.72272,0.01686
1955.75834,0.01653
1954.79396,0.01621
1953.82959,0.01598
1952.86521,0.01588
1951.90083,0.01589
1950.93645,0.01600
1949.97207,0.01622
1949.00770,0.01650
1948.04332,0.01680
1947.07894,0.01706
1946.11456,0.01713
1945.15018,0.01700
1944.18581,0.01685
1943.22143,0.01680
1942.25705,0.01686
1941.29267,0.01703
1940.32829,0.01717
1939.36392,0.01720
1938.39954,0.01713
1937.43516,0.01699
1936.47078,0.01683
1935.50641,0.01669
1934.54203,0.01655
1933.57765,0.01645
1932.61327,0.01641
1931.64889,0.01642
1930.68452,0.01646
1929.72014,0.01658
1928.75576,0.01671
1927.79138,0.01679
1926.82700,0.01682
1925.86263,0.01685
1924.89825,0.01694
1923.93387,0.01708
1922.96949,0.01720
1922.00512,0.01725
1921.04074,0.01720
1920.07636,0.01706
1919.11198,0.01688
1918.14760,0.01674
1917.18323,0.01663
1916.21885,0.01649
1915.25447,0.01633
1914.29009,0.01622
1913.32571,0.01616
1912.36134,0.01610
1911.39696,0.01603
1910.43258,0.01595
1909.46820,0.01588
1908.50382,0.01584
1907.53945,0.01583
1906.57507,0.01583
1905.61069,0.01587
1904.64631,0.01594
1903.68194,0.01603
1902.71756,0.01609
1901.75318,0.01609
1900.78880,0.01604
1899.82442,0.01597
1898.86005,0.01587
1897.89567,0.01575
1896.93129,0.01563
1895.96691,0.01553
1895.00253,0.01543
1894.03816,0.01534
1893.07378,0.01527
1892.10940,0.01521
1891.14502,0.01515
1890.18065,0.01509
1889.21627,0.01508
1888.25189,0.01514
1887.28751,0.01524
1886.32313,0.01535
1885.35876,0.01546
1884.39438,0.01556
1883.43000,0.01565
1882.46562,0.01573
1881.50124,0.01580
1880.53687,0.01579
1879.57249,0.01570
1878.60811,0.01561
1877.64373,0.01561
1876.67935,0.01565
1875.71498,0.01569
1874.75060,0.01570
1873.78622,0.01565
1872.82184,0.01559
1871.85747,0.01555
1870.89309,0.01550
1869.92871,0.01540
1868.96433,0.01522
1867.99995,0.01507
1867.03558,0.01502
1866.07120,0.01509
1865.10682,0.01519
1864.14244,0.01528
1863.17806,0.01533
1862.21369,0.01533
1861.24931,0.01530
1860.28493,0.01526
1859.32055,0.01522
1858.35618,0.01517
1857.39180,0.01511
1856.42742,0.01509
1855.46304,0.01512
1854.49866,0.01520
1853.53429,0.01528
1852.56991,0.01531
1851.60553,0.01528
1850.64115,0.01521
1849.67677,0.01512
1848.71240,0.01505
1847.74802,0.01500
1846.78364,0.01498
1845.81926,0.01498
1844.85488,0.01498
1843.89051,0.01500
1842.92613,0.01506
1841.96175,0.01513
1840.99737,0.01517
1840.03300,0.01517
1839.06862,0.01515
1838.10424,0.01513
1837.13986,0.01508
1836.17548,0.01504
1835.21111,0.01501
1834.24673,0.01497
1833.28235,0.01492
1832.31797,0.01488
1831.35359,0.01485
1830.38922,0.01482
1829.42484,0.01482
1828.46046,0.01485
1827.49608,0.01490
1826.53171,0.01494
1825.56733,0.01497
1824.60295,0.01498
1823.63857,0.01496
1822.67419,0.01492
1821.70982,0.01484
1820.74544,0.01475
1819.78106,0.01466
1818.81668,0.01459
1817.85230,0.01456
1816.88793,0.01457
1815.92355,0.01459
1814.95917,0.01461
1813.99479,0.01463
1813.03041,0.01465
1812.06604,0.01466
1811.10166,0.01465
1810.13728,0.01463
1809.17290,0.01460
1808.20853,0.01458
1807.24415,0.01457
1806.27977,0.01456
1805.31539,0.01456
1804.35101,0.01456
1803.38664,0.01456
1802.42226,0.01456
1801.45788,0.01455
1800.49350,0.01453
1799.52912,0.01451
1798.56475,0.01448
1797.60037,0.01445
1796.63599,0.01442
1795.67161,0.01437
1794.70724,0.01430
1793.74286,0.01426
1792.77848,0.01425
1791.81410,0.01428
1790.84972,0.01433
1789.88535,0.01439
1788.92097,0.01443
1787.95659,0.01446
1786.99221,0.01447
1786.02783,0.01446
1785.06346,0.01443
1784.09908,0.01439
1783.13470,0.01434
1782.17032,0.01429
1781.20594,0.01424
1780.24157,0.01423
1779.27719,0.01425
1778.31281,0.01428
1777.34843,0.01430
1776.38406,0.01428
1775.41968,0.01425
1774.45530,0.01424
1773.49092,0.01426
1772.52654,0.01431
1771.56217,0.01435
1770.59779,0.01437
1769.63341,0.01438
1768.66903,0.01438
1767.70465,0.01439
1766.74028,0.01441
1765.77590,0.01441
1764.81152,0.01439
1763.84714,0.01436
1762.88276,0.01434
1761.91839,0.01433
1760.95401,0.01432
1759.98963,0.01430
1759.02525,0.01427
1758.06088,0.01424
1757.09650,0.01421
1756.13212,0.01420
1755.16774,0.01420
1754.20336,0.01420
1753.23899,0.01421
1752.27461,0.01421
1751.31023,0.01422
1750.34585,0.01423
1749.38147,0.01424
1748.41710,0.01425
1747.45272,0.01426
1746.48834,0.01428
1745.52396,0.01430
1744.55959,0.01429
1743.59521,0.01425
1742.63083,0.01420
1741.66645,0.01415
1740.70207,0.01411
1739.73770,0.01408
1738.77332,0.01404
1737.80894,0.01399
1736.84456,0.01395
1735.88018,0.01392
1734.91581,0.01391
1733.95143,0.01391
1732.98705,0.01392
1732.02267,0.01393
1731.05829,0.01394
1730.09392,0.01398
1729.12954,0.01402
1728.16516,0.01405
1727.20078,0.01404
1726.23641,0.01402
1725.27203,0.01400
1724.30765,0.01400
1723.34327,0.01400
1722.37889,0.01398
1721.41452,0.01394
1720.45014,0.01390
1719.48576,0.01387
1718.52138,0.01385
1717.55700,0.01382
1716.59263,0.01379
1715.62825,0.01377
1714.66387,0.01379
1713.69949,0.01384
1712.73512,0.01389
1711.77074,0.01392
1710.80636,0.01392
1709.84198,0.01390
1708.87760,0.01387
1707.91323,0.01385
1706.94885,0.01384
1705.98447,0.01382
1705.02009,0.01377
1704.05571,0.01372
1703.09134,0.01372
1702.12696,0.01377
1701.16258,0.01380
1700.19820,0.01380
1699.23382,0.01376
1698.26945,0.01373
1697.30507,0.01373
1696.34069,0.01375
1695.37631,0.01379
1694.41194,0.01380
1693.44756,0.01379
1692.48318,0.01380
1691.51880,0.01385
1690.55442,0.01390
1689.59005,0.01388
1688.62567,0.01379
1687.66129,0.01369
1686.69691,0.01362
1685.73253,0.01358
1684.76816,0.01357
1683.80378,0.01357
1682.83940,0.01359
1681.87502,0.01364
1680.91065,0.01370
1679.94627,0.01374
1678.98189,0.01374
1678.01751,0.01371
1677.05313,0.01368
1676.08876,0.01366
1675.12438,0.01366
1674.16000,0.01365
1673.19562,0.01363
1672.23124,0.01362
1671.26687,0.01362
1670.30249,0.01365
1669.33811,0.01366
1668.37373,0.01365
1667.40935,0.01364
1666.44498,0.01364
1665.48060,0.01365
1664.51622,0.01367
1663.55184,0.01368
1662.58747,0.01368
1661.62309,0.01368
1660.65871,0.01368
1659.69433,0.01371
1658.72995,0.01372
1657.76558,0.01367
1656.80120,0.01358
1655.83682,0.01350
1654.87244,0.01344
1653.90806,0.01343
1652.94369,0.01345
1651.97931,0.01348
1651.01493,0.01351
1650.05055,0.01354
1649.08618,0.01357
1648.12180,0.01360
1647.15742,0.01359
1646.19304,0.01354
1645.22866,0.01348
1644.26429,0.01346
1643.29991,0.01349
1642.33553,0.01353
1641.37115,0.01356
1640.40677,0.01354
1639.44240,0.01349
1638.47802,0.01344
1637.51364,0.01341
1636.54926,0.01339
1635.58488,0.01338
1634.62051,0.01338
1633.65613,0.01339
1632.69175,0.01343
1631.72737,0.01347
1630.76300,0.01351
1629.79862,0.01352
1628.83424,0.01349
1627.86986,0.01344
1626.90548,0.01339
1625.94111,0.01337
1624.97673,0.01338
1624.01235,0.01339
1623.04797,0.01342
1622.08359,0.01343
1621.11922,0.01343
1620.15484,0.01341
1619.19046,0.01340
1618.22608,0.01340
1617.26171,0.01338
1616.29733,0.01335
1615.33295,0.01334
1614.36857,0.01334
1613.40419,0.01336
1612.43982,0.01338
1611.47544,0.01339
1610.51106,0.01338
1609.54668,0.01335
1608.58230,0.01334
1607.61793,0.01334
1606.65355,0.01334
1605.68917,0.01334
1604.72479,0.01333
1603.76041,0.01333
1602.79604,0.01332
1601.83166,0.01332
1600.86728,0.01331
1599.90290,0.01330
1598.93853,0.01327
1597.97415,0.01325
1597.00977,0.01324
1596.04539,0.01322
1595.08101,0.01321
1594.11664,0.01321
1593.15226,0.01322
1592.18788,0.01324
1591.22350,0.01325
1590.25912,0.01326
1589.29475,0.01326
1588.33037,0.01326
1587.36599,0.01326
1586.40161,0.01326
1585.43724,0.01326
1584.47286,0.01326
1583.50848,0.01328
1582.54410,0.01332
1581.57972,0.01334
1580.61535,0.01332
1579.65097,0.01329
1578.68659,0.01325
1577.72221,0.01323
1576.75783,0.01324
1575.79346,0.01325
1574.82908,0.01326
1573.86470,0.01326
1572.90032,0.01327
1571.93594,0.01330
1570.97157,0.01333
1570.00719,0.01333
1569.04281,0.01331
1568.07843,0.01332
1567.11406,0.01335
1566.14968,0.01339
1565.18530,0.01343
1564.22092,0.01342
1563.25654,0.01336
1562.29217,0.01326
1561.32779,0.01318
1560.36341,0.01313
1559.39903,0.01311
1558.43465,0.01310
1557.47028,0.01312
1556.50590,0.01317
1555.54152,0.01324
1554.57714,0.01331
1553.61276,0.01335
1552.64839,0.01337
1551.68401,0.01336
1550.71963,0.01334
1549.75525,0.01334
1548.79088,0.01334
1547.82650,0.01334
1546.86212,0.01333
1545.89774,0.01332
1544.93336,0.01329
1543.96899,0.01323
1543.00461,0.01315
1542.04023,0.01310
1541.07585,0.01308
1540.11147,0.01308
1539.14710,0.01309
1538.18272,0.01311
1537.21834,0.01315
1536.25396,0.01320
1535.28959,0.01324
1534.32521,0.01327
1533.36083,0.01327
1532.39645,0.01323
1531.43207,0.01319
1530.46770,0.01316
1529.50332,0.01314
1528.53894,0.01313
1527.57456,0.01312
1526.61018,0.01310
1525.64581,0.01306
1524.68143,0.01302
1523.71705,0.01300
1522.75267,0.01299
1521.78829,0.01299
1520.82392,0.01298
1519.85954,0.01299
1518.89516,0.01302
1517.93078,0.01307
1516.96641,0.01312
1516.00203,0.01316
1515.03765,0.01319
1514.07327,0.01319
1513.10889,0.01320
1512.14452,0.01320
1511.18014,0.01317
1510.21576,0.01312
1509.25138,0.01307
1508.28700,0.01303
1507.32263,0.01301
1506.35825,0.01301
1505.39387,0.01302
1504.42949,0.01303
1503.46512,0.01306
1502.50074,0.01309
1501.53636,0.01309
1500.57198,0.01306
1499.60760,0.01301
1498.64323,0.01297
1497.67885,0.01295
1496.71447,0.01296
1495.75009,0.01297
1494.78571,0.01299
1493.82134,0.01301
1492.85696,0.01302
1491.89258,0.01304
1490.92820,0.01304
1489.96382,0.01302
1488.99945,0.01301
1488.03507,0.01300
1487.07069,0.01300
1486.10631,0.01301
1485.14194,0.01302
1484.17756,0.01302
1483.21318,0.01302
1482.24880,0.01302
1481.28442,0.01303
1480.32005,0.01303
1479.35567,0.01304
1478.39129,0.01305
1477.42691,0.01306
1476.46253,0.01306
1475.49816,0.01304
1474.53378,0.01302
1473.56940,0.01302
1472.60502,0.01304
1471.64065,0.01306
1470.67627,0.01308
1469.71189,0.01310
1468.74751,0.01311
1467.78313,0.01312
1466.81876,0.01313
1465.85438,0.01312
1464.89000,0.01310
1463.92562,0.01308
1462.96124,0.01306
1461.99687,0.01303
1461.03249,0.01300
1460.06811,0.01296
1459.10373,0.01292
1458.13935,0.01289
1457.17498,0.01288
1456.21060,0.01288
1455.24622,0.01289
1454.28184,0.01291
1453.31747,0.01293
1452.35309,0.01295
1451.38871,0.01295
1450.42433,0.01294
1449.45995,0.01292
1448.49558,0.01292
1447.53120,0.01294
1446.56682,0.01298
1445.60244,0.01301
1444.63806,0.01303
1443.67369,0.01305
1442.70931,0.01306
1441.74493,0.01305
1440.78055,0.01302
1439.81618,0.01297
1438.85180,0.01293
1437.88742,0.01291
1436.92304,0.01291
1435.95866,0.01291
1434.99429,0.01291
1434.02991,0.01290
1433.06553,0.01289
1432.10115,0.01289
1431.13677,0.01289
1430.17240,0.01287
1429.20802,0.01284
1428.24364,0.01281
1427.27926,0.01279
1426.31488,0.01279
1425.35051,0.01279
1424.38613,0.01278
1423.42175,0.01277
1422.45737,0.01277
1421.49300,0.01278
1420.52862,0.01280
1419.56424,0.01281
1418.59986,0.01283
1417.63548,0.01284
1416.67111,0.01285
1415.70673,0.01287
1414.74235,0.01289
1413.77797,0.01290
1412.81359,0.01289
1411.84922,0.01288
1410.88484,0.01286
1409.92046,0.01284
1408.95608,0.01281
1407.99171,0.01278
1407.02733,0.01275
1406.06295,0.01274
1405.09857,0.01273
1404.13419,0.01272
1403.16982,0.01270
1402.20544,0.01269
1401.24106,0.01269
1400.27668,0.01269
1399.31230,0.01268
1398.34793,0.01267
1397.38355,0.01267
1396.41917,0.01266
1395.45479,0.01266
1394.49041,0.01266
1393.52604,0.01266
1392.56166,0.01264
1391.59728,0.01263
1390.63290,0.01262
1389.66853,0.01262
1388.70415,0.01263
1387.73977,0.01265
1386.77539,0.01267
1385.81101,0.01268
1384.84664,0.01268
1383.88226,0.01269
1382.91788,0.01269
1381.95350,0.01268
1380.98912,0.01266
1380.02475,0.01264
1379.06037,0.01262
1378.09599,0.01260
1377.13161,0.01260
1376.16724,0.01261
1375.20286,0.01261
1374.23848,0.01260
1373.27410,0.01258
1372.30972,0.01257
1371.34535,0.01256
1370.38097,0.01255
1369.41659,0.01254
1368.45221,0.01253
1367.48783,0.01254
1366.52346,0.01254
1365.55908,0.01255
1364.59470,0.01255
1363.63032,0.01255
1362.66594,0.01255
1361.70157,0.01254
1360.73719,0.01253
1359.77281,0.01251
1358.80843,0.01250
1357.84406,0.01249
1356.87968,0.01248
1355.91530,0.01247
1354.95092,0.01246
1353.98654,0.01244
1353.02217,0.01244
1352.05779,0.01244
1351.09341,0.01246
1350.12903,0.01248
1349.16465,0.01250
1348.20028,0.01253
1347.23590,0.01257
1346.27152,0.01260
1345.30714,0.01263
1344.34276,0.01265
1343.37839,0.01265
1342.41401,0.01265
1341.44963,0.01265
1340.48525,0.01265
1339.52088,0.01265
1338.55650,0.01265
1337.59212,0.01265
1336.62774,0.01264
1335.66336,0.01263
1334.69899,0.01262
1333.73461,0.01259
1332.77023,0.01255
1331.80585,0.01250
1330.84147,0.01244
1329.87710,0.01238
1328.91272,0.01234
1327.94834,0.01230
1326.98396,0.01229
1326.01959,0.01228
1325.05521,0.01228
1324.09083,0.01228
1323.12645,0.01230
1322.16207,0.01233
1321.19770,0.01236
1320.23332,0.01238
1319.26894,0.01240
1318.30456,0.01241
1317.34018,0.01241
1316.37581,0.01242
1315.41143,0.01242
1314.44705,0.01242
1313.48267,0.01240
1312.51829,0.01240
1311.55392,0.01241
1310.58954,0.01243
1309.62516,0.01245
1308.66078,0.01246
1307.69641,0.01246
1306.73203,0.01246
1305.76765,0.01245
1304.80327,0.01243
1303.83889,0.01239
1302.87452,0.01235
1301.91014,0.01231
1300.94576,0.01227
1299.98138,0.01226
1299.01700,0.01226
1298.05263,0.01228
1297.08825,0.01231
1296.12387,0.01234
1295.15949,0.01237
1294.19512,0.01239
1293.23074,0.01240
1292.26636,0.01238
1291.30198,0.01235
1290.33760,0.01232
1289.37323,0.01228
1288.40885,0.01226
1287.44447,0.01224
1286.48009,0.01223
1285.51571,0.01223
1284.55134,0.01225
1283.58696,0.01227
1282.62258,0.01228
1281.65820,0.01230
1280.69382,0.01231
1279.72945,0.01232
1278.76507,0.01233
1277.80069,0.01233
1276.83631,0.01231
1275.87194,0.01229
1274.90756,0.01228
1273.94318,0.01228
1272.97880,0.01228
1272.01442,0.01228
1271.05005,0.01228
1270.08567,0.01228
1269.12129,0.01228
1268.15691,0.01228
1267.19253,0.01228
1266.22816,0.01227
1265.26378,0.01225
1264.29940,0.01224
1263.33502,0.01223
1262.37065,0.01221
1261.40627,0.01218
1260.44189,0.01215
1259.47751,0.01212
1258.51313,0.01210
1257.54876,0.01208
1256.58438,0.01207
1255.62000,0.01207
1254.65562,0.01209
1253.69124,0.01211
1252.72687,0.01214
1251.76249,0.01217
1250.79811,0.01220
1249.83373,0.01225
1248.86935,0.01231
1247.90498,0.01241
1246.94060,0.01253
1245.97622,0.01267
1245.01184,0.01282
1244.04747,0.01297
1243.08309,0.01308
1242.11871,0.01315
1241.15433,0.01317
1240.18995,0.01313
1239.22558,0.01306
1238.26120,0.01297
1237.29682,0.01287
1236.33244,0.01278
1235.36806,0.01269
1234.40369,0.01262
1233.43931,0.01256
1232.47493,0.01252
1231.51055,0.01249
1230.54618,0.01246
1229.58180,0.01243
1228.61742,0.01241
1227.65304,0.01239
1226.68866,0.01238
1225.72429,0.01238
1224.75991,0.01239
1223.79553,0.01240
1222.83115,0.01240
1221.86677,0.01240
1220.90240,0.01240
1219.93802,0.01239
1218.97364,0.01237
1218.00926,0.01234
1217.04488,0.01230
1216.08051,0.01227
1215.11613,0.01223
1214.15175,0.01220
1213.18737,0.01218
1212.22300,0.01218
1211.25862,0.01220
1210.29424,0.01221
1209.32986,0.01223
1208.36548,0.01224
1207.40111,0.01225
1206.43673,0.01226
1205.47235,0.01226
1204.50797,0.01225
1203.54359,0.01223
1202.57922,0.01219
1201.61484,0.01216
1200.65046,0.01214
1199.68608,0.01212
1198.72171,0.01211
1197.75733,0.01210
1196.79295,0.01210
1195.82857,0.01210
1194.86419,0.01211
1193.89982,0.01211
1192.93544,0.01212
1191.97106,0.01213
1191.00668,0.01213
1190.04230,0.01213
1189.07793,0.01212
1188.11355,0.01211
1187.14917,0.01209
1186.18479,0.01207
1185.22041,0.01204
1184.25604,0.01202
1183.29166,0.01200
1182.32728,0.01199
1181.36290,0.01198
1180.39853,0.01197
1179.43415,0.01197
1178.46977,0.01196
1177.50539,0.01196
1176.54101,0.01196
1175.57664,0.01196
1174.61226,0.01196
1173.64788,0.01197
1172.68350,0.01198
1171.71912,0.01199
1170.75475,0.01198
1169.79037,0.01198
1168.82599,0.01197
1167.86161,0.01198
1166.89724,0.01200
1165.93286,0.01202
1164.96848,0.01204
1164.00410,0.01205
1163.03972,0.01205
1162.07535,0.01205
1161.11097,0.01204
1160.14659,0.01201
1159.18221,0.01197
1158.21783,0.01193
1157.25346,0.01190
1156.28908,0.01189
1155.32470,0.01187
1154.36032,0.01187
1153.39594,0.01188
1152.43157,0.01188
1151.46719,0.01188
1150.50281,0.01188
1149.53843,0.01189
1148.57406,0.01189
1147.60968,0.01188
1146.64530,0.01185
1145.68092,0.01182
1144.71654,0.01179
1143.75217,0.01177
1142.78779,0.01175
1141.82341,0.01173
1140.85903,0.01171
1139.89465,0.01170
1138.93028,0.01169
1137.96590,0.01168
1137.00152,0.01168
1136.03714,0.01168
1135.07276,0.01169
1134.10839,0.01170
1133.14401,0.01171
1132.17963,0.01172
1131.21525,0.01173
1130.25088,0.01175
1129.28650,0.01178
1128.32212,0.01181
1127.35774,0.01183
1126.39336,0.01182
1125.42899,0.01180
1124.46461,0.01178
1123.50023,0.01175
1122.53585,0.01172
1121.57147,0.01170
1120.60710,0.01169
1119.64272,0.01169
1118.67834,0.01169
1117.71396,0.01171
1116.74959,0.01171
1115.78521,0.01170
1114.82083,0.01169
1113.85645,0.01167
1112.89207,0.01167
1111.92770,0.01169
1110.96332,0.01172
1109.99894,0.01175
1109.03456,0.01176
1108.07018,0.01175
1107.10581,0.01173
1106.14143,0.01170
1105.17705,0.01165
1104.21267,0.01162
1103.24829,0.01159
1102.28392,0.01157
1101.31954,0.01155
1100.35516,0.01154
1099.39078,0.01152
1098.42641,0.01151
1097.46203,0.01150
1096.49765,0.01149
1095.53327,0.01148
1094.56889,0.01147
1093.60452,0.01145
1092.64014,0.01142
1091.67576,0.01139
1090.71138,0.01137
1089.74700,0.01136
1088.78263,0.01134
1087.81825,0.01134
1086.85387,0.01134
1085.88949,0.01135
1084.92512,0.01136
1083.96074,0.01138
1082.99636,0.01139
1082.03198,0.01139
1081.06760,0.01136
1080.10323,0.01134
1079.13885,0.01134
1078.17447,0.01132
1077.21009,0.01130
1076.24571,0.01127
1075.28134,0.01125
1074.31696,0.01124
1073.35258,0.01125
1072.38820,0.01127
1071.42382,0.01129
1070.45945,0.01130
1069.49507,0.01130
1068.53069,0.01131
1067.56631,0.01133
1066.60194,0.01134
1065.63756,0.01134
1064.67318,0.01135
1063.70880,0.01137
1062.74442,0.01140
1061.78005,0.01141
1060.81567,0.01139
1059.85129,0.01136
1058.88691,0.01133
1057.92253,0.01130
1056.95816,0.01129
1055.99378,0.01128
1055.02940,0.01128
1054.06502,0.01128
1053.10065,0.01129
1052.13627,0.01130
1051.17189,0.01130
1050.20751,0.01130
1049.24313,0.01129
1048.27876,0.01128
1047.31438,0.01129
1046.35000,0.01130
1045.38562,0.01132
1044.42124,0.01134
1043.45687,0.01134
1042.49249,0.01134
1041.52811,0.01133
1040.56373,0.01132
1039.59935,0.01133
1038.63498,0.01134
1037.67060,0.01134
1036.70622,0.01133
1035.74184,0.01132
1034.77747,0.01133
1033.81309,0.01133
1032.84871,0.01132
1031.88433,0.01129
1030.91995,0.01125
1029.95558,0.01121
1028.99120,0.01118
1028.02682,0.01116
1027.06244,0.01115
1026.09806,0.01117
1025.13369,0.01120
1024.16931,0.01124
1023.20493,0.01130
1022.24055,0.01135
1021.27618,0.01140
1020.31180,0.01143
1019.34742,0.01145
1018.38304,0.01144
1017.41866,0.01142
1016.45429,0.01139
1015.48991,0.01137
1014.52553,0.01137
1013.56115,0.01138
1012.59677,0.01137
1011.63240,0.01136
1010.66802,0.01136
1009.70364,0.01139
1008.73926,0.01142
1007.77488,0.01144
1006.81051,0.01145
1005.84613,0.01143
1004.88175,0.01140
1003.91737,0.01138
1002.95300,0.01137
1001.98862,0.01135
1001.02424,0.01133
1000.05986,0.01131
999.09548,0.01131
998.13111,0.01134
997.16673,0.01137
996.20235,0.01139
995.23797,0.01139
994.27359,0.01139
993.30922,0.01139
992.34484,0.01138
991.38046,0.01137
990.41608,0.01137
989.45171,0.01138
988.48733,0.01140
987.52295,0.01143
986.55857,0.01147
985.59419,0.01150
984.62982,0.01149
983.66544,0.01148
982.70106,0.01146
981.73668,0.01144
980.77230,0.01142
979.80793,0.01141
978.84355,0.01140
977.87917,0.01138
976.91479,0.01138
975.95041,0.01141
974.98604,0.01145
974.02166,0.01150
973.05728,0.01154
972.09290,0.01157
971.12853,0.01159
970.16415,0.01160
969.19977,0.01161
968.23539,0.01159
967.27101,0.01154
966.30664,0.01149
965.34226,0.01144
964.37788,0.01142
963.41350,0.01143
962.44912,0.01147
961.48475,0.01149
960.52037,0.01150
959.55599,0.01149
958.59161,0.01149
957.62724,0.01149
956.66286,0.01148
955.69848,0.01145
954.73410,0.01144
953.76972,0.01142
952.80535,0.01141
951.84097,0.01142
950.87659,0.01144
949.91221,0.01146
948.94783,0.01149
947.98346,0.01155
947.01908,0.01160
946.05470,0.01165
945.09032,0.01167
944.12594,0.01168
943.16157,0.01167
942.19719,0.01162
941.23281,0.01155
940.26843,0.01148
939.30406,0.01142
938.33968,0.01137
937.37530,0.01133
936.41092,0.01132
935.44654,0.01132
934.48217,0.01134
933.51779,0.01138
932.55341,0.01143
931.58903,0.01147
930.62465,0.01152
929.66028,0.01155
928.69590,0.01158
927.73152,0.01162
926.76714,0.01165
925.80276,0.01166
924.83839,0.01166
923.87401,0.01164
922.90963,0.01161
921.94525,0.01156
920.98088,0.01148
920.01650,0.01140
919.05212,0.01132
918.08774,0.01125
917.12336,0.01120
916.15899,0.01120
915.19461,0.01124
914.23023,0.01128
913.26585,0.01133
912.30147,0.01139
911.33710,0.01146
910.37272,0.01152
909.40834,0.01158
908.44396,0.01161
907.47959,0.01161
906.51521,0.01159
905.55083,0.01156
904.58645,0.01153
903.62207,0.01148
902.65770,0.01142
901.69332,0.01135
900.72894,0.01131
899.76456,0.01132
898.80018,0.01135
897.83581,0.01138
896.87143,0.01137
895.90705,0.01133
894.94267,0.01130
893.97829,0.01129
893.01392,0.01131
892.04954,0.01133
891.08516,0.01134
890.12078,0.01137
889.15641,0.01141
888.19203,0.01143
887.22765,0.01144
886.26327,0.01142
885.29889,0.01138
884.33452,0.01134
883.37014,0.01132
882.40576,0.01133
881.44138,0.01137
880.47700,0.01144
879.51263,0.01154
878.54825,0.01163
877.58387,0.01169
876.61949,0.01172
875.65512,0.01172
874.69074,0.01170
873.72636,0.01166
872.76198,0.01161
871.79760,0.01153
870.83323,0.01144
869.86885,0.01137
868.90447,0.01133
867.94009,0.01132
866.97571,0.01133
866.01134,0.01133
865.04696,0.01133
864.08258,0.01131
863.11820,0.01129
862.15382,0.01128
861.18945,0.01128
860.22507,0.01130
859.26069,0.01133
858.29631,0.01135
857.33194,0.01138
856.36756,0.01140
855.40318,0.01140
854.43880,0.01137
853.47442,0.01131
852.51005,0.01125
851.54567,0.01118
850.58129,0.01115
849.61691,0.01116
848.65253,0.01121
847.68816,0.01127
846.72378,0.01132
845.75940,0.01137
844.79502,0.01142
843.83065,0.01145
842.86627,0.01143
841.90189,0.01137
840.93751,0.01130
839.97313,0.01124
839.00876,0.01121
838.04438,0.01118
837.08000,0.01115
836.11562,0.01114
835.15124,0.01115
834.18687,0.01118
833.22249,0.01122
832.25811,0.01123
831.29373,0.01122
830.32935,0.01121
829.36498,0.01121
828.40060,0.01122
827.43622,0.01123
826.47184,0.01123
825.50747,0.01124
824.54309,0.01124
823.57871,0.01122
822.61433,0.01116
821.64995,0.01110
820.68558,0.01106
819.72120,0.01105
818.75682,0.01106
817.79244,0.01109
816.82806,0.01112
815.86369,0.01114
814.89931,0.01117
813.93493,0.01117
812.97055,0.01111
812.00618,0.01103
811.04180,0.01096
810.07742,0.01092
809.11304,0.01089
808.14866,0.01088
807.18429,0.01087
806.21991,0.01089
805.25553,0.01091
804.29115,0.01093
803.32677,0.01093
802.36240,0.01090
801.39802,0.01088
800.43364,0.01089
799.46926,0.01093
798.50488,0.01095
797.54051,0.01095
796.57613,0.01093
795.61175,0.01090
794.64737,0.01087
793.68300,0.01084
792.71862,0.01081
791.75424,0.01077
790.78986,0.01075
789.82548,0.01076
788.86111,0.01079
787.89673,0.01084
786.93235,0.01087
785.96797,0.01091
785.00359,0.01092
784.03922,0.01092
783.07484,0.01091
782.11046,0.01091
781.14608,0.01089
780.18171,0.01085
779.21733,0.01081
778.25295,0.01080
777.28857,0.01081
776.32419,0.01083
775.35982,0.01086
774.39544,0.01088
773.43106,0.01089
772.46668,0.01089
771.50230,0.01086
770.53793,0.01079
769.57355,0.01070
768.60917,0.01062
767.64479,0.01057
766.68041,0.01054
765.71604,0.01050
764.75166,0.01046
763.78728,0.01044
762.82290,0.01046
761.85853,0.01052
760.89415,0.01058
759.92977,0.01062
758.96539,0.01065
758.00101,0.01067
757.03664,0.01066
756.07226,0.01066
755.10788,0.01065
754.14350,0.01062
753.17912,0.01056
752.21475,0.01051
751.25037,0.01046
750.28599,0.01040
749.32161,0.01036
748.35724,0.01037
747.39286,0.01039
746.42848,0.01040
745.46410,0.01041
744.49972,0.01049
743.53535,0.01065
742.57097,0.01080
741.60659,0.01087
740.64221,0.01088
739.67783,0.01082
738.71346,0.01072
737.74908,0.01063
736.78470,0.01054
735.82032,0.01043
734.85594,0.01027
733.89157,0.01014
732.92719,0.01010
731.96281,0.01012
730.99843,0.01013
730.03406,0.01011
729.06968,0.01008
728.10530,0.01005
727.14092,0.01005
726.17654,0.01007
725.21217,0.01009
724.24779,0.01010
723.28341,0.01012
722.31903,0.01018
721.35465,0.01025
720.39028,0.01031
719.42590,0.01035
718.46152,0.01037
717.49714,0.01040
716.53276,0.01041
715.56839,0.01041
714.60401,0.01038
713.63963,0.01035
712.67525,0.01032
711.71088,0.01030
710.74650,0.01025
709.78212,0.01017
708.81774,0.01008
707.85336,0.01002
706.88899,0.00997
705.92461,0.00991
704.96023,0.00985
703.99585,0.00978
703.03147,0.00970
702.06710,0.00965
701.10272,0.00962
700.13834,0.00959
699.17396,0.00957
698.20959,0.00956
697.24521,0.00959
696.28083,0.00964
695.31645,0.00969
694.35207,0.00971
693.38770,0.00971
692.42332,0.00968
691.45894,0.00964
690.49456,0.00961
689.53018,0.00958
688.56581,0.00954
687.60143,0.00950
686.63705,0.00948
685.67267,0.00947
684.70829,0.00945
683.74392,0.00942
682.77954,0.00937
681.81516,0.00931
680.85078,0.00925
679.88641,0.00918
678.92203,0.00913
677.95765,0.00909
676.99327,0.00906
676.02889,0.00903
675.06452,0.00899
674.10014,0.00893
673.13576,0.00891
672.17138,0.00893
671.20700,0.00897
670.24263,0.00901
669.27825,0.00902
668.31387,0.00902
667.34949,0.00900
666.38512,0.00893
665.42074,0.00881
664.45636,0.00865
663.49198,0.00847
662.52760,0.00830
661.56323,0.00819
660.59885,0.00813
659.63447,0.00807
658.67009,0.00803
657.70571,0.00802
656.74134,0.00804
655.77696,0.00805
654.81258,0.00804
653.84820,0.00799
652.88382,0.00793
651.91945,0.00787
650.95507,0.00778
649.99069,0.00764
649.02631,0.00736
648.06194,0.00693
647.09756,0.00664
646.13318,0.00691
645.16880,0.00809
644.20442,0.01058
643.24005,0.01479
642.27567,0.02089
641.31129,0.02850
640.34691,0.03671
639.38253,0.04430
638.41816,0.05005
637.45378,0.05301
636.48940,0.05285
635.52502,0.04994
634.56065,0.04510
633.59627,0.03932
632.63189,0.03374
631.66751,0.02937
630.70313,0.02655
629.73876,0.02502
628.77438,0.02438
627.81000,0.02425
626.84562,0.02420
625.88124,0.02366
624.91687,0.02230
623.95249,0.02035
622.98811,0.01844
622.02373,0.01710
621.05935,0.01631
620.09498,0.01570
619.13060,0.01486
618.16622,0.01373
617.20184,0.01244
616.23747,0.01101
615.27309,0.00962
614.30871,0.00842
613.34433,0.00724
612.37995,0.00619
611.41558,0.00571
610.45120,0.00595
609.48682,0.00663
608.52244,0.00740
607.55806,0.00807
606.59369,0.00862
605.62931,0.00889
604.66493,0.00889
603.70055,0.00910
602.73618,0.00966
601.77180,0.01006
600.80742,0.01013
599.84304,0.01005
598.87866,0.00996
597.91429,0.00989
596.94991,0.00982
595.98553,0.00974
595.02115,0.00966
594.05677,0.00954
593.09240,0.00949
592.12802,0.00958
591.16364,0.00971
590.19926,0.00977
589.23488,0.00975
588.27051,0.00973
587.30613,0.00973
586.34175,0.00976
585.37737,0.00979
584.41300,0.00978
583.44862,0.00974
582.48424,0.00963
581.51986,0.00948
580.55548,0.00936
579.59111,0.00926
578.62673,0.00911
577.66235,0.00895
576.69797,0.00881
575.73359,0.00872
574.76922,0.00869
573.80484,0.00868
572.84046,0.00869
571.87608,0.00873
570.91171,0.00877
569.94733,0.00881
568.98295,0.00889
568.01857,0.00901
567.05419,0.00907
566.08982,0.00903
565.12544,0.00888
564.16106,0.00871
563.19668,0.00854
562.23230,0.00838
561.26793,0.00826
560.30355,0.00815
559.33917,0.00804
558.37479,0.00795
557.41041,0.00795
556.44604,0.00804
555.48166,0.00813
554.51728,0.00818
553.55290,0.00818
552.58853,0.00812
551.62415,0.00800
550.65977,0.00785
549.69539,0.00770
548.73101,0.00751
547.76664,0.00733
546.80226,0.00721
545.83788,0.00718
544.87350,0.00720
543.90912,0.00723
542.94475,0.00725
541.98037,0.00727
541.01599,0.00728
540.05161,0.00725
539.08724,0.00720
538.12286,0.00717
537.15848,0.00717
536.19410,0.00716
535.22972,0.00713
534.26535,0.00707
533.30097,0.00702
532.33659,0.00700
531.37221,0.00702
530.40783,0.00706
529.44346,0.00712
528.47908,0.00717
527.51470,0.00720
526.55032,0.00721
525.58594,0.00722
524.62157,0.00720
523.65719,0.00714
522.69281,0.00704
521.72843,0.00694
520.76406,0.00685
519.79968,0.00678
518.83530,0.00677
517.87092,0.00679
516.90654,0.00679
515.94217,0.00671
514.97779,0.00658
514.01341,0.00647
513.04903,0.00642
512.08465,0.00640
511.12028,0.00635
510.15590,0.00625
509.19152,0.00618
508.22714,0.00618
507.26276,0.00620
506.29839,0.00622
505.33401,0.00621
504.36963,0.00619
503.40525,0.00620
502.44088,0.00622
501.47650,0.00626
500.51212,0.00631
499.54774,0.00630
498.58336,0.00627
497.61899,0.00624
496.65461,0.00616
495.69023,0.00600
494.72585,0.00582
493.76147,0.00565
492.79710,0.00548
491.83272,0.00530
490.86834,0.00516
489.90396,0.00507
488.93959,0.00507
487.97521,0.00512
487.01083,0.00517
486.04645,0.00522
485.08207,0.00523
484.11770,0.00518
483.15332,0.00510
482.18894,0.00500
481.22456,0.00489
480.26018,0.00482
479.29581,0.00483
478.33143,0.00493
477.36705,0.00502
476.40267,0.00503
475.43829,0.00498
474.47392,0.00493
473.50954,0.00484
472.54516,0.00471
471.58078,0.00455
470.61641,0.00443
469.65203,0.00435
468.68765,0.00433
467.72327,0.00439
466.75889,0.00451
465.79452,0.00459
464.83014,0.00461
463.86576,0.00465
462.90138,0.00471
461.93700,0.00471
460.97263,0.00469
460.00825,0.00470
459.04387,0.00470
458.07949,0.00465
457.11512,0.00461
456.15074,0.00461
455.18636,0.00461
454.22198,0.00457
453.25760,0.00450
452.29323,0.00445
451.32885,0.00441
450.36447,0.00438
449.40009,0.00435
448.43571,0.00434
447.47134,0.00433
446.50696,0.00433
445.54258,0.00438
444.57820,0.00445
443.61382,0.00451
442.64945,0.00457
441.68507,0.00459
440.72069,0.00457
439.75631,0.00452
438.79194,0.00448
437.82756,0.00444
436.86318,0.00440
435.89880,0.00437
434.93442,0.00436
433.97005,0.00437
433.00567,0.00439
432.04129,0.00441
431.07691,0.00443
430.11253,0.00444
429.14816,0.00445
428.18378,0.00443
427.21940,0.00439
426.25502,0.00432
425.29065,0.00421
424.32627,0.00411
423.36189,0.00401
422.39751,0.00389
421.43313,0.00377
420.46876,0.00369
419.50438,0.00366
418.54000,0.00370
417.57562,0.00378
416.61124,0.00385
415.64687,0.00387
414.68249,0.00388
413.71811,0.00391
412.75373,0.00396
411.78935,0.00398
410.82498,0.00395
409.86060,0.00390
408.89622,0.00390
407.93184,0.00395
406.96747,0.00400
406.00309,0.00403
405.03871,0.00404
404.07433,0.00401
403.10995,0.00394
402.14558,0.00387
401.18120,0.00381
400.21682,0.00375
399.25244,0.00367
398.28806,0.00360
397.32369,0.00359
396.35931,0.00360
395.39493,0.00357
394.43055,0.00356
393.46618,0.00363
392.50180,0.00373
391.53742,0.00380
390.57304,0.00384
389.60866,0.00389
388.64429,0.00395
387.67991,0.00396
386.71553,0.00395
385.75115,0.00396
384.78677,0.00397
383.82240,0.00395
382.85802,0.00394
381.89364,0.00397
380.92926,0.00399
379.96488,0.00399
379.00051,0.00397
378.03613,0.00392
377.07175,0.00382
376.10737,0.00370
375.14300,0.00355
374.17862,0.00340
373.21424,0.00328
372.24986,0.00324
371.28548,0.00329
370.32111,0.00341
369.35673,0.00353
368.39235,0.00367
367.42797,0.00382
366.46359,0.00393
365.49922,0.00400
364.53484,0.00405
363.57046,0.00407
362.60608,0.00409
361.64171,0.00413
360.67733,0.00425
359.71295,0.00442
358.74857,0.00456
357.78419,0.00464
356.81982,0.00473
355.85544,0.00485
354.89106,0.00500
353.92668,0.00518
352.96230,0.00538
351.99793,0.00557
351.03355,0.00572
350.06917,0.00581
349.10479,0.00587
348.14041,0.00592
347.17604,0.00594
346.21166,0.00596
345.24728,0.00598
344.28290,0.00604
343.31853,0.00614
342.35415,0.00627
341.38977,0.00641
340.42539,0.00657
339.46101,0.00679
338.49664,0.00706
337.53226,0.00736
336.56788,0.00765
335.60350,0.00793
334.63912,0.00817
333.67475,0.00839
332.71037,0.00869
331.74599,0.00911
330.78161,0.00962
329.81724,0.01016
328.85286,0.01072
327.88848,0.01126
326.92410,0.01177
325.95972,0.01222
324.99535,0.01261
324.03097,0.01294
323.06659,0.01322
322.10221,0.01352
321.13783,0.01398
320.17346,0.01458
319.20908,0.01517
318.24470,0.01570
317.28032,0.01617
316.31594,0.01657
315.35157,0.01689
314.38719,0.01719
313.42281,0.01751
312.45843,0.01787
311.49406,0.01822
310.52968,0.01855
309.56530,0.01893
308.60092,0.01937
307.63654,0.01984
306.67217,0.02033
305.70779,0.02081
304.74341,0.02120
303.77903,0.02152
302.81465,0.02183
301.85028,0.02214
300.88590,0.02240
299.92152,0.02256
298.95714,0.02260
297.99276,0.02257
297.02839,0.02254
296.06401,0.02254
295.09963,0.02253
294.13525,0.02251
293.17088,0.02245
292.20650,0.02231
291.24212,0.02205
290.27774,0.02168
289.31336,0.02120
288.34899,0.02069
287.38461,0.02019
286.42023,0.01973
285.45585,0.01935
284.49147,0.01910
283.52710,0.01912
282.56272,0.01941
281.59834,0.01974
280.63396,0.01995
279.66959,0.02005
278.70521,0.02003
277.74083,0.01994
276.77645,0.01984
275.81207,0.01980
274.84770,0.01980
273.88332,0.01981
272.91894,0.01989
271.95456,0.02013
270.99018,0.02046
270.02581,0.02079
269.06143,0.02114
268.09705,0.02149
267.13267,0.02181
266.16829,0.02213
265.20392,0.02245
264.23954,0.02274
263.27516,0.02298
262.31078,0.02316
261.34641,0.02329
260.38203,0.02339
259.41765,0.02369
258.45327,0.02433
257.48889,0.02513
256.52452,0.02588
255.56014,0.02651
254.59576,0.02697
253.63138,0.02727
252.66700,0.02747
251.70263,0.02754
250.73825,0.02747
249.77387,0.02726
248.80949,0.02700
247.84512,0.02692
246.88074,0.02705
245.91636,0.02720
244.95198,0.02731
243.98760,0.02742
243.02323,0.02763
242.05885,0.02806
241.09447,0.02870
240.13009,0.02942
239.16571,0.03013
238.20134,0.03077
237.23696,0.03128
236.27258,0.03168
235.30820,0.03207
234.34382,0.03251
233.37945,0.03304
232.41507,0.03375
231.45069,0.03476
230.48631,0.03616
229.52194,0.03786
228.55756,0.03971
227.59318,0.04160
226.62880,0.04347
225.66442,0.04523
224.70005,0.04685
223.73567,0.04841
222.77129,0.05001
221.80691,0.05164
220.84253,0.05325
219.87816,0.05492
218.91378,0.05676
217.94940,0.05870
216.98502,0.06066
216.02065,0.06264
215.05627,0.06448
214.09189,0.06603
213.12751,0.06749
212.16313,0.06900
211.19876,0.07043
210.23438,0.07165
209.27000,0.07261
208.30562,0.07352
207.34124,0.07464
206.37687,0.07596
205.41249,0.07746
204.44811,0.07904
203.48373,0.08053
202.51935,0.08199
201.55498,0.08363
200.59060,0.08537
199.62622,0.08707
198.66184,0.08866
197.69747,0.09011
196.73309,0.09153
195.76871,0.09310
194.80433,0.09485
193.83995,0.09671
192.87558,0.09858
191.91120,0.10042
190.94682,0.10222
189.98244,0.10397
189.01806,0.10564
188.05369,0.10726
187.08931,0.10889
186.12493,0.11057
185.16055,0.11225
184.19618,0.11375
183.23180,0.11499
182.26742,0.11618
181.30304,0.11758
180.33866,0.11926
179.37429,0.12118
178.40991,0.12329
177.44553,0.12556
176.48115,0.12791
175.51677,0.13028
174.55240,0.13248
173.58802,0.13414
172.62364,0.13524
171.65926,0.13629
170.69488,0.13782
169.73051,0.13990
168.76613,0.14231
167.80175,0.14490
166.83737,0.14752
165.87300,0.14985
164.90862,0.15145
163.94424,0.15225
162.97986,0.15253
162.01548,0.15240
161.05111,0.15203
160.08673,0.15187
159.12235,0.15225
158.15797,0.15313
157.19359,0.15416
156.22922,0.15545
155.26484,0.15756
154.30046,0.16020
153.33608,0.16260
152.37171,0.16474
151.40733,0.16676
150.44295,0.16820
149.47857,0.16874
148.51419,0.16878
147.54982,0.16878
146.58544,0.16859
145.62106,0.16788
144.65668,0.16693
143.69230,0.16620
142.72793,0.16554
141.76355,0.16509
140.79917,0.16519
139.83479,0.16586
138.87041,0.16695
137.90604,0.16823
136.94166,0.16952
135.97728,0.17099
135.01290,0.17245
134.04853,0.17335
133.08415,0.17340
132.11977,0.17285
131.15539,0.17214
130.19101,0.17155
129.22664,0.17111
128.26226,0.17087
127.29788,0.17103
126.33350,0.17161
125.36912,0.17247
124.40475,0.17367
123.44037,0.17516
122.47599,0.17668
121.51161,0.17803
120.54724,0.17909
119.58286,0.17957
118.61848,0.17938
117.65410,0.17892
116.68972,0.17881
115.72535,0.17942
114.76097,0.18066
113.79659,0.18207
112.83221,0.18337
111.86783,0.18472
110.90346,0.18639
109.93908,0.18803
108.97470,0.18893
108.01032,0.18899
107.04594,0.18852
106.08157,0.18786
105.11719,0.18726
104.15281,0.18726
103.18843,0.18726
102.22406,0.18726
101.25968,0.18726
100.29530,0.18726
99.33092,0.18726
