4498.82281,0.00097
4497.85843,0.00097
4496.89406,0.00097
4495.92968,0.00097
4494.96530,0.00097
4494.00092,0.00097
4493.03654,0.00097
4492.07217,0.00092
4491.10779,0.00090
4490.14341,0.00094
4489.17903,0.00105
4488.21465,0.00120
4487.25028,0.00132
4486.28590,0.00141
4485.32152,0.00149
4484.35714,0.00152
4483.39276,0.00149
4482.42839,0.00144
4481.46401,0.00138
4480.49963,0.00131
4479.53525,0.00122
4478.57088,0.00115
4477.60650,0.00106
4476.64212,0.00097
4475.67774,0.00092
4474.71336,0.00096
4473.74899,0.00106
4472.78461,0.00115
4471.82023,0.00123
4470.85585,0.00130
4469.89147,0.00131
4468.92710,0.00119
4467.96272,0.00098
4466.99834,0.00076
4466.03396,0.00055
4465.06959,0.00039
4464.10521,0.00034
4463.14083,0.00041
4462.17645,0.00056
4461.21207,0.00075
4460.24770,0.00095
4459.28332,0.00105
4458.31894,0.00104
4457.35456,0.00096
4456.39018,0.00089
4455.42581,0.00088
4454.46143,0.00091
4453.49705,0.00097
4452.53267,0.00106
4451.56829,0.00115
4450.60392,0.00125
4449.63954,0.00133
4448.67516,0.00139
4447.71078,0.00139
4446.74641,0.00131
4445.78203,0.00122
4444.81765,0.00119
4443.85327,0.00122
4442.88889,0.00124
4441.92452,0.00120
4440.96014,0.00110
4439.99576,0.00098
4439.03138,0.00089
4438.06700,0.00084
4437.10263,0.00084
4436.13825,0.00085
4435.17387,0.00085
4434.20949,0.00088
4433.24512,0.00097
4432.28074,0.00106
4431.31636,0.00106
4430.35198,0.00100
4429.38760,0.00092
4428.42323,0.00088
4427.45885,0.00092
4426.49447,0.00102
4425.53009,0.00114
4424.56571,0.00123
4423.60134,0.00127
4422.63696,0.00129
4421.67258,0.00129
4420.70820,0.00124
4419.74382,0.00115
4418.77945,0.00108
4417.81507,0.00104
4416.85069,0.00102
4415.88631,0.00101
4414.92194,0.00104
4413.95756,0.00110
4412.99318,0.00113
4412.02880,0.00114
4411.06442,0.00115
4410.10005,0.00115
4409.13567,0.00114
4408.17129,0.00116
4407.20691,0.00120
4406.24253,0.00123
4405.27816,0.00123
4404.31378,0.00122
4403.34940,0.00120
4402.38502,0.00118
4401.42065,0.00117
4400.45627,0.00120
4399.49189,0.00127
4398.52751,0.00134
4397.56313,0.00139
4396.59876,0.00138
4395.63438,0.00134
4394.67000,0.00133
4393.70562,0.00136
4392.74124,0.00139
4391.77687,0.00142
4390.81249,0.00144
4389.84811,0.00147
4388.88373,0.00151
4387.91935,0.00155
4386.95498,0.00155
4385.99060,0.00146
4385.02622,0.00133
4384.06184,0.00123
4383.09747,0.00120
4382.13309,0.00120
4381.16871,0.00121
4380.20433,0.00122
4379.23995,0.00123
4378.27558,0.00122
4377.31120,0.00124
4376.34682,0.00128
4375.38244,0.00132
4374.41806,0.00134
4373.45369,0.00135
4372.48931,0.00135
4371.52493,0.00132
4370.56055,0.00127
4369.59618,0.00119
4368.63180,0.00111
4367.66742,0.00104
4366.70304,0.00099
4365.73866,0.00096
4364.77429,0.00096
4363.80991,0.00099
4362.84553,0.00103
4361.88115,0.00105
4360.91677,0.00102
4359.95240,0.00097
4358.98802,0.00095
4358.02364,0.00094
4357.05926,0.00092
4356.09488,0.00088
4355.13051,0.00082
4354.16613,0.00079
4353.20175,0.00082
4352.23737,0.00088
4351.27300,0.00096
4350.30862,0.00104
4349.34424,0.00113
4348.37986,0.00126
4347.41548,0.00141
4346.45111,0.00154
4345.48673,0.00161
4344.52235,0.00158
4343.55797,0.00152
4342.59359,0.00145
4341.62922,0.00138
4340.66484,0.00129
4339.70046,0.00121
4338.73608,0.00114
4337.77171,0.00109
4336.80733,0.00109
4335.84295,0.00114
4334.87857,0.00121
4333.91419,0.00127
4332.94982,0.00130
4331.98544,0.00131
4331.02106,0.00130
4330.05668,0.00126
4329.09230,0.00115
4328.12793,0.00098
4327.16355,0.00082
4326.19917,0.00074
4325.23479,0.00074
4324.27041,0.00079
4323.30604,0.00086
4322.34166,0.00095
4321.37728,0.00106
4320.41290,0.00115
4319.44853,0.00115
4318.48415,0.00108
4317.51977,0.00101
4316.55539,0.00095
4315.59101,0.00094
4314.62664,0.00100
4313.66226,0.00106
4312.69788,0.00109
4311.73350,0.00112
4310.76912,0.00116
4309.80475,0.00119
4308.84037,0.00118
4307.87599,0.00114
4306.91161,0.00112
4305.94724,0.00112
4304.98286,0.00112
4304.01848,0.00111
4303.05410,0.00108
4302.08972,0.00100
4301.12535,0.00091
4300.16097,0.00086
4299.19659,0.00084
4298.23221,0.00081
4297.26783,0.00079
4296.30346,0.00082
4295.33908,0.00090
4294.37470,0.00098
4293.41032,0.00100
4292.44594,0.00093
4291.48157,0.00081
4290.51719,0.00070
4289.55281,0.00066
4288.58843,0.00067
4287.62406,0.00071
4286.65968,0.00079
4285.69530,0.00089
4284.73092,0.00102
4283.76654,0.00115
4282.80217,0.00124
4281.83779,0.00126
4280.87341,0.00124
4279.90903,0.00123
4278.94465,0.00126
4277.98028,0.00128
4277.01590,0.00125
4276.05152,0.00121
4275.08714,0.00117
4274.12276,0.00117
4273.15839,0.00117
4272.19401,0.00117
4271.22963,0.00117
4270.26525,0.00116
4269.30088,0.00115
4268.33650,0.00115
4267.37212,0.00115
4266.40774,0.00110
4265.44336,0.00098
4264.47899,0.00086
4263.51461,0.00081
4262.55023,0.00084
4261.58585,0.00093
4260.62147,0.00102
4259.65710,0.00109
4258.69272,0.00112
4257.72834,0.00112
4256.76396,0.00113
4255.79959,0.00114
4254.83521,0.00110
4253.87083,0.00103
4252.90645,0.00097
4251.94207,0.00097
4250.97770,0.00100
4250.01332,0.00104
4249.04894,0.00108
4248.08456,0.00109
4247.12018,0.00108
4246.15581,0.00109
4245.19143,0.00117
4244.22705,0.00130
4243.26267,0.00144
4242.29829,0.00153
4241.33392,0.00156
4240.36954,0.00147
4239.40516,0.00132
4238.44078,0.00119
4237.47641,0.00106
4236.51203,0.00092
4235.54765,0.00083
4234.58327,0.00083
4233.61889,0.00093
4232.65452,0.00106
4231.69014,0.00114
4230.72576,0.00114
4229.76138,0.00103
4228.79700,0.00089
4227.83263,0.00083
4226.86825,0.00085
4225.90387,0.00087
4224.93949,0.00084
4223.97512,0.00081
4223.01074,0.00086
4222.04636,0.00092
4221.08198,0.00097
4220.11760,0.00100
4219.15323,0.00101
4218.18885,0.00103
4217.22447,0.00109
4216.26009,0.00119
4215.29571,0.00126
4214.33134,0.00127
4213.36696,0.00122
4212.40258,0.00117
4211.43820,0.00116
4210.47382,0.00115
4209.50945,0.00109
4208.54507,0.00102
4207.58069,0.00095
4206.61631,0.00090
4205.65194,0.00091
4204.68756,0.00092
4203.72318,0.00088
4202.75880,0.00080
4201.79442,0.00073
4200.83005,0.00069
4199.86567,0.00066
4198.90129,0.00063
4197.93691,0.00059
4196.97253,0.00056
4196.00816,0.00058
4195.04378,0.00073
4194.07940,0.00098
4193.11502,0.00120
4192.15065,0.00133
4191.18627,0.00136
4190.22189,0.00135
4189.25751,0.00135
4188.29313,0.00133
4187.32876,0.00125
4186.36438,0.00109
4185.40000,0.00092
4184.43562,0.00082
4183.47124,0.00085
4182.50687,0.00095
4181.54249,0.00105
4180.57811,0.00111
4179.61373,0.00116
4178.64935,0.00124
4177.68498,0.00130
4176.72060,0.00130
4175.75622,0.00123
4174.79184,0.00109
4173.82747,0.00093
4172.86309,0.00079
4171.89871,0.00070
4170.93433,0.00065
4169.96995,0.00062
4169.00558,0.00066
4168.04120,0.00073
4167.07682,0.00083
4166.11244,0.00094
4165.14806,0.00108
4164.18369,0.00125
4163.21931,0.00140
4162.25493,0.00148
4161.29055,0.00147
4160.32618,0.00137
4159.36180,0.00122
4158.39742,0.00107
4157.43304,0.00093
4156.46866,0.00079
4155.50429,0.00070
4154.53991,0.00069
4153.57553,0.00076
4152.61115,0.00087
4151.64677,0.00098
4150.68240,0.00108
4149.71802,0.00115
4148.75364,0.00118
4147.78926,0.00119
4146.82488,0.00122
4145.86051,0.00123
4144.89613,0.00122
4143.93175,0.00122
4142.96737,0.00126
4142.00300,0.00128
4141.03862,0.00126
4140.07424,0.00123
4139.10986,0.00121
4138.14548,0.00119
4137.18111,0.00113
4136.21673,0.00106
4135.25235,0.00100
4134.28797,0.00098
4133.32359,0.00100
4132.35922,0.00104
4131.39484,0.00109
4130.43046,0.00113
4129.46608,0.00116
4128.50171,0.00116
4127.53733,0.00112
4126.57295,0.00107
4125.60857,0.00099
4124.64419,0.00090
4123.67982,0.00085
4122.71544,0.00090
4121.75106,0.00101
4120.78668,0.00111
4119.82230,0.00118
4118.85793,0.00124
4117.89355,0.00127
4116.92917,0.00128
4115.96479,0.00129
4115.00041,0.00128
4114.03604,0.00124
4113.07166,0.00121
4112.10728,0.00121
4111.14290,0.00123
4110.17853,0.00127
4109.21415,0.00128
4108.24977,0.00125
4107.28539,0.00119
4106.32101,0.00111
4105.35664,0.00103
4104.39226,0.00098
4103.42788,0.00093
4102.46350,0.00089
4101.49912,0.00085
4100.53475,0.00080
4099.57037,0.00076
4098.60599,0.00076
4097.64161,0.00076
4096.67724,0.00076
4095.71286,0.00076
4094.74848,0.00077
4093.78410,0.00083
4092.81972,0.00093
4091.85535,0.00104
4090.89097,0.00111
4089.92659,0.00115
4088.96221,0.00117
4087.99783,0.00117
4087.03346,0.00116
4086.06908,0.00111
4085.10470,0.00105
4084.14032,0.00097
4083.17594,0.00089
4082.21157,0.00085
4081.24719,0.00086
4080.28281,0.00089
4079.31843,0.00087
4078.35406,0.00085
4077.38968,0.00086
4076.42530,0.00091
4075.46092,0.00096
4074.49654,0.00097
4073.53217,0.00093
4072.56779,0.00089
4071.60341,0.00087
4070.63903,0.00087
4069.67465,0.00089
4068.71028,0.00092
4067.74590,0.00095
4066.78152,0.00101
4065.81714,0.00107
4064.85276,0.00113
4063.88839,0.00117
4062.92401,0.00114
4061.95963,0.00109
4060.99525,0.00103
4060.03088,0.00098
4059.06650,0.00092
4058.10212,0.00088
4057.13774,0.00088
4056.17336,0.00094
4055.20899,0.00103
4054.24461,0.00110
4053.28023,0.00114
4052.31585,0.00115
4051.35147,0.00113
4050.38710,0.00113
4049.42272,0.00115
4048.45834,0.00113
4047.49396,0.00105
4046.52959,0.00097
4045.56521,0.00092
4044.60083,0.00087
4043.63645,0.00081
4042.67207,0.00077
4041.70770,0.00073
4040.74332,0.00071
4039.77894,0.00072
4038.81456,0.00076
4037.85018,0.00083
4036.88581,0.00088
4035.92143,0.00092
4034.95705,0.00097
4033.99267,0.00100
4033.02829,0.00100
4032.06392,0.00097
4031.09954,0.00096
4030.13516,0.00095
4029.17078,0.00095
4028.20641,0.00093
4027.24203,0.00094
4026.27765,0.00096
4025.31327,0.00101
4024.34889,0.00104
4023.38452,0.00105
4022.42014,0.00106
4021.45576,0.00105
4020.49138,0.00101
4019.52700,0.00095
4018.56263,0.00093
4017.59825,0.00094
4016.63387,0.00097
4015.66949,0.00100
4014.70512,0.00100
4013.74074,0.00099
4012.77636,0.00098
4011.81198,0.00097
4010.84760,0.00095
4009.88323,0.00090
4008.91885,0.00086
4007.95447,0.00087
4006.99009,0.00091
4006.02571,0.00098
4005.06134,0.00107
4004.09696,0.00112
4003.13258,0.00113
4002.16820,0.00111
4001.20382,0.00109
4000.23945,0.00105
3999.27507,0.00099
3998.31069,0.00092
3997.34631,0.00086
3996.38194,0.00080
3995.41756,0.00075
3994.45318,0.00071
3993.48880,0.00071
3992.52442,0.00072
3991.56005,0.00075
3990.59567,0.00079
3989.63129,0.00085
3988.66691,0.00093
3987.70253,0.00101
3986.73816,0.00107
3985.77378,0.00107
3984.80940,0.00105
3983.84502,0.00101
3982.88065,0.00098
3981.91627,0.00096
3980.95189,0.00097
3979.98751,0.00098
3979.02313,0.00097
3978.05876,0.00096
3977.09438,0.00099
3976.13000,0.00102
3975.16562,0.00103
3974.20124,0.00102
3973.23687,0.00099
3972.27249,0.00094
3971.30811,0.00086
3970.34373,0.00079
3969.37935,0.00076
3968.41498,0.00075
3967.45060,0.00074
3966.48622,0.00076
3965.52184,0.00083
3964.55747,0.00090
3963.59309,0.00097
3962.62871,0.00103
3961.66433,0.00105
3960.69995,0.00102
3959.73558,0.00097
3958.77120,0.00095
3957.80682,0.00097
3956.84244,0.00102
3955.87806,0.00104
3954.91369,0.00102
3953.94931,0.00099
3952.98493,0.00097
3952.02055,0.00096
3951.05618,0.00093
3950.09180,0.00090
3949.12742,0.00089
3948.16304,0.00091
3947.19866,0.00097
3946.23429,0.00101
3945.26991,0.00101
3944.30553,0.00097
3943.34115,0.00091
3942.37677,0.00088
3941.41240,0.00086
3940.44802,0.00083
3939.48364,0.00081
3938.51926,0.00082
3937.55488,0.00085
3936.59051,0.00086
3935.62613,0.00084
3934.66175,0.00080
3933.69737,0.00075
3932.73300,0.00073
3931.76862,0.00076
3930.80424,0.00081
3929.83986,0.00082
3928.87548,0.00082
3927.91111,0.00084
3926.94673,0.00087
3925.98235,0.00088
3925.01797,0.00089
3924.05359,0.00090
3923.08922,0.00091
3922.12484,0.00093
3921.16046,0.00093
3920.19608,0.00093
3919.23171,0.00091
3918.26733,0.00090
3917.30295,0.00089
3916.33857,0.00090
3915.37419,0.00094
3914.40982,0.00099
3913.44544,0.00105
3912.48106,0.00111
3911.51668,0.00117
3910.55230,0.00122
3909.58793,0.00124
3908.62355,0.00123
3907.65917,0.00120
3906.69479,0.00115
3905.73041,0.00108
3904.76604,0.00099
3903.80166,0.00091
3902.83728,0.00085
3901.87290,0.00082
3900.90853,0.00082
3899.94415,0.00084
3898.97977,0.00086
3898.01539,0.00090
3897.05101,0.00093
3896.08664,0.00091
3895.12226,0.00087
3894.15788,0.00086
3893.19350,0.00087
3892.22912,0.00088
3891.26475,0.00090
3890.30037,0.00090
3889.33599,0.00088
3888.37161,0.00083
3887.40724,0.00081
3886.44286,0.00084
3885.47848,0.00088
3884.51410,0.00088
3883.54972,0.00089
3882.58535,0.00092
3881.62097,0.00095
3880.65659,0.00093
3879.69221,0.00087
3878.72783,0.00082
3877.76346,0.00079
3876.79908,0.00079
3875.83470,0.00085
3874.87032,0.00093
3873.90594,0.00098
3872.94157,0.00101
3871.97719,0.00101
3871.01281,0.00096
3870.04843,0.00087
3869.08406,0.00080
3868.11968,0.00075
3867.15530,0.00072
3866.19092,0.00073
3865.22654,0.00076
3864.26217,0.00080
3863.29779,0.00081
3862.33341,0.00083
3861.36903,0.00086
3860.40465,0.00090
3859.44028,0.00092
3858.47590,0.00094
3857.51152,0.00098
3856.54714,0.00100
3855.58276,0.00101
3854.61839,0.00100
3853.65401,0.00099
3852.68963,0.00099
3851.72525,0.00098
3850.76088,0.00100
3849.79650,0.00104
3848.83212,0.00111
3847.86774,0.00116
3846.90336,0.00119
3845.93899,0.00119
3844.97461,0.00117
3844.01023,0.00114
3843.04585,0.00109
3842.08147,0.00104
3841.11710,0.00096
3840.15272,0.00088
3839.18834,0.00081
3838.22396,0.00079
3837.25959,0.00081
3836.29521,0.00087
3835.33083,0.00093
3834.36645,0.00097
3833.40207,0.00101
3832.43770,0.00104
3831.47332,0.00105
3830.50894,0.00103
3829.54456,0.00101
3828.58018,0.00099
3827.61581,0.00096
3826.65143,0.00092
3825.68705,0.00093
3824.72267,0.00097
3823.75829,0.00100
3822.79392,0.00101
3821.82954,0.00103
3820.86516,0.00102
3819.90078,0.00099
3818.93641,0.00098
3817.97203,0.00098
3817.00765,0.00096
3816.04327,0.00091
3815.07889,0.00088
3814.11452,0.00090
3813.15014,0.00092
3812.18576,0.00089
3811.22138,0.00084
3810.25700,0.00080
3809.29263,0.00076
3808.32825,0.00074
3807.36387,0.00073
3806.39949,0.00072
3805.43512,0.00070
3804.47074,0.00070
3803.50636,0.00071
3802.54198,0.00071
3801.57760,0.00072
3800.61323,0.00075
3799.64885,0.00081
3798.68447,0.00090
3797.72009,0.00097
3796.75571,0.00101
3795.79134,0.00102
3794.82696,0.00101
3793.86258,0.00099
3792.89820,0.00098
3791.93382,0.00094
3790.96945,0.00091
3790.00507,0.00089
3789.04069,0.00088
3788.07631,0.00088
3787.11194,0.00091
3786.14756,0.00094
3785.18318,0.00099
3784.21880,0.00103
3783.25442,0.00109
3782.29005,0.00113
3781.32567,0.00112
3780.36129,0.00106
3779.39691,0.00098
3778.43253,0.00090
3777.46816,0.00083
3776.50378,0.00080
3775.53940,0.00083
3774.57502,0.00091
3773.61065,0.00098
3772.64627,0.00102
3771.68189,0.00105
3770.71751,0.00105
3769.75313,0.00100
3768.78876,0.00094
3767.82438,0.00090
3766.86000,0.00089
3765.89562,0.00086
3764.93124,0.00083
3763.96687,0.00080
3763.00249,0.00076
3762.03811,0.00071
3761.07373,0.00068
3760.10935,0.00071
3759.14498,0.00081
3758.18060,0.00091
3757.21622,0.00100
3756.25184,0.00110
3755.28747,0.00117
3754.32309,0.00117
3753.35871,0.00109
3752.39433,0.00097
3751.42995,0.00083
3750.46558,0.00071
3749.50120,0.00060
3748.53682,0.00053
3747.57244,0.00055
3746.60806,0.00063
3745.64369,0.00073
3744.67931,0.00082
3743.71493,0.00089
3742.75055,0.00092
3741.78618,0.00092
3740.82180,0.00092
3739.85742,0.00093
3738.89304,0.00092
3737.92866,0.00084
3736.96429,0.00076
3735.99991,0.00070
3735.03553,0.00065
3734.07115,0.00060
3733.10677,0.00058
3732.14240,0.00061
3731.17802,0.00069
3730.21364,0.00078
3729.24926,0.00087
3728.28488,0.00095
3727.32051,0.00099
3726.35613,0.00100
3725.39175,0.00099
3724.42737,0.00096
3723.46300,0.00093
3722.49862,0.00094
3721.53424,0.00099
3720.56986,0.00104
3719.60548,0.00105
3718.64111,0.00101
3717.67673,0.00092
3716.71235,0.00083
3715.74797,0.00077
3714.78359,0.00074
3713.81922,0.00072
3712.85484,0.00073
3711.89046,0.00078
3710.92608,0.00087
3709.96171,0.00093
3708.99733,0.00097
3708.03295,0.00098
3707.06857,0.00094
3706.10419,0.00086
3705.13982,0.00081
3704.17544,0.00078
3703.21106,0.00076
3702.24668,0.00074
3701.28230,0.00072
3700.31793,0.00075
3699.35355,0.00077
3698.38917,0.00077
3697.42479,0.00076
3696.46041,0.00073
3695.49604,0.00069
3694.53166,0.00066
3693.56728,0.00065
3692.60290,0.00065
3691.63853,0.00066
3690.67415,0.00069
3689.70977,0.00073
3688.74539,0.00079
3687.78101,0.00084
3686.81664,0.00086
3685.85226,0.00085
3684.88788,0.00086
3683.92350,0.00089
3682.95912,0.00093
3681.99475,0.00095
3681.03037,0.00095
3680.06599,0.00093
3679.10161,0.00089
3678.13724,0.00084
3677.17286,0.00077
3676.20848,0.00068
3675.24410,0.00060
3674.27972,0.00055
3673.31535,0.00055
3672.35097,0.00059
3671.38659,0.00065
3670.42221,0.00073
3669.45783,0.00081
3668.49346,0.00085
3667.52908,0.00085
3666.56470,0.00082
3665.60032,0.00077
3664.63594,0.00069
3663.67157,0.00061
3662.70719,0.00056
3661.74281,0.00056
3660.77843,0.00059
3659.81406,0.00064
3658.84968,0.00070
3657.88530,0.00076
3656.92092,0.00079
3655.95654,0.00078
3654.99217,0.00071
3654.02779,0.00064
3653.06341,0.00059
3652.09903,0.00057
3651.13465,0.00057
3650.17028,0.00061
3649.20590,0.00067
3648.24152,0.00072
3647.27714,0.00075
3646.31276,0.00077
3645.34839,0.00078
3644.38401,0.00076
3643.41963,0.00073
3642.45525,0.00073
3641.49088,0.00077
3640.52650,0.00077
3639.56212,0.00072
3638.59774,0.00066
3637.63336,0.00062
3636.66899,0.00060
3635.70461,0.00059
3634.74023,0.00062
3633.77585,0.00065
3632.81147,0.00067
3631.84710,0.00068
3630.88272,0.00068
3629.91834,0.00068
3628.95396,0.00067
3627.98959,0.00066
3627.02521,0.00070
3626.06083,0.00079
3625.09645,0.00088
3624.13207,0.00098
3623.16770,0.00106
3622.20332,0.00111
3621.23894,0.00114
3620.27456,0.00112
3619.31018,0.00106
3618.34581,0.00095
3617.38143,0.00082
3616.41705,0.00070
3615.45267,0.00064
3614.48829,0.00061
3613.52392,0.00061
3612.55954,0.00065
3611.59516,0.00075
3610.63078,0.00092
3609.66641,0.00110
3608.70203,0.00122
3607.73765,0.00127
3606.77327,0.00128
3605.80889,0.00127
3604.84452,0.00124
3603.88014,0.00118
3602.91576,0.00110
3601.95138,0.00099
3600.98700,0.00086
3600.02263,0.00075
3599.05825,0.00069
3598.09387,0.00065
3597.12949,0.00062
3596.16512,0.00063
3595.20074,0.00069
3594.23636,0.00080
3593.27198,0.00091
3592.30760,0.00100
3591.34323,0.00103
3590.37885,0.00102
3589.41447,0.00097
3588.45009,0.00090
3587.48571,0.00081
3586.52134,0.00072
3585.55696,0.00066
3584.59258,0.00063
3583.62820,0.00066
3582.66382,0.00075
3581.69945,0.00084
3580.73507,0.00093
3579.77069,0.00104
3578.80631,0.00116
3577.84194,0.00126
3576.87756,0.00131
3575.91318,0.00130
3574.94880,0.00123
3573.98442,0.00113
3573.02005,0.00102
3572.05567,0.00092
3571.09129,0.00082
3570.12691,0.00069
3569.16253,0.00059
3568.19816,0.00056
3567.23378,0.00062
3566.26940,0.00072
3565.30502,0.00084
3564.34065,0.00092
3563.37627,0.00098
3562.41189,0.00101
3561.44751,0.00101
3560.48313,0.00101
3559.51876,0.00099
3558.55438,0.00095
3557.59000,0.00090
3556.62562,0.00090
3555.66124,0.00094
3554.69687,0.00099
3553.73249,0.00101
3552.76811,0.00102
3551.80373,0.00102
3550.83935,0.00101
3549.87498,0.00100
3548.91060,0.00101
3547.94622,0.00102
3546.98184,0.00100
3546.01747,0.00097
3545.05309,0.00094
3544.08871,0.00091
3543.12433,0.00087
3542.15995,0.00081
3541.19558,0.00076
3540.23120,0.00075
3539.26682,0.00078
3538.30244,0.00085
3537.33806,0.00090
3536.37369,0.00095
3535.40931,0.00099
3534.44493,0.00106
3533.48055,0.00113
3532.51618,0.00119
3531.55180,0.00123
3530.58742,0.00123
3529.62304,0.00121
3528.65866,0.00115
3527.69429,0.00109
3526.72991,0.00103
3525.76553,0.00100
3524.80115,0.00096
3523.83677,0.00094
3522.87240,0.00095
3521.90802,0.00099
3520.94364,0.00104
3519.97926,0.00109
3519.01488,0.00112
3518.05051,0.00112
3517.08613,0.00108
3516.12175,0.00101
3515.15737,0.00095
3514.19300,0.00090
3513.22862,0.00087
3512.26424,0.00087
3511.29986,0.00087
3510.33548,0.00087
3509.37111,0.00088
3508.40673,0.00094
3507.44235,0.00100
3506.47797,0.00102
3505.51359,0.00101
3504.54922,0.00100
3503.58484,0.00101
3502.62046,0.00102
3501.65608,0.00103
3500.69171,0.00102
3499.72733,0.00098
3498.76295,0.00093
3497.79857,0.00090
3496.83419,0.00089
3495.86982,0.00087
3494.90544,0.00083
3493.94106,0.00082
3492.97668,0.00086
3492.01230,0.00092
3491.04793,0.00099
3490.08355,0.00106
3489.11917,0.00110
3488.15479,0.00108
3487.19041,0.00103
3486.22604,0.00100
3485.26166,0.00098
3484.29728,0.00097
3483.33290,0.00098
3482.36853,0.00102
3481.40415,0.00108
3480.43977,0.00115
3479.47539,0.00118
3478.51101,0.00119
3477.54664,0.00115
3476.58226,0.00109
3475.61788,0.00105
3474.65350,0.00105
3473.68912,0.00110
3472.72475,0.00117
3471.76037,0.00124
3470.79599,0.00132
3469.83161,0.00138
3468.86724,0.00138
3467.90286,0.00132
3466.93848,0.00121
3465.97410,0.00110
3465.00972,0.00100
3464.04535,0.00091
3463.08097,0.00084
3462.11659,0.00081
3461.15221,0.00080
3460.18783,0.00080
3459.22346,0.00084
3458.25908,0.00090
3457.29470,0.00093
3456.33032,0.00094
3455.36594,0.00094
3454.40157,0.00094
3453.43719,0.00092
3452.47281,0.00089
3451.50843,0.00087
3450.54406,0.00088
3449.57968,0.00089
3448.61530,0.00090
3447.65092,0.00091
3446.68654,0.00094
3445.72217,0.00098
3444.75779,0.00106
3443.79341,0.00115
3442.82903,0.00123
3441.86465,0.00124
3440.90028,0.00122
3439.93590,0.00119
3438.97152,0.00117
3438.00714,0.00113
3437.04276,0.00105
3436.07839,0.00099
3435.11401,0.00098
3434.14963,0.00100
3433.18525,0.00104
3432.22088,0.00107
3431.25650,0.00108
3430.29212,0.00106
3429.32774,0.00104
3428.36336,0.00102
3427.39899,0.00100
3426.43461,0.00096
3425.47023,0.00093
3424.50585,0.00093
3423.54147,0.00096
3422.57710,0.00099
3421.61272,0.00100
3420.64834,0.00100
3419.68396,0.00102
3418.71959,0.00104
3417.75521,0.00105
3416.79083,0.00104
3415.82645,0.00103
3414.86207,0.00100
3413.89770,0.00093
3412.93332,0.00087
3411.96894,0.00083
3411.00456,0.00082
3410.04018,0.00086
3409.07581,0.00093
3408.11143,0.00101
3407.14705,0.00109
3406.18267,0.00114
3405.21829,0.00117
3404.25392,0.00118
3403.28954,0.00116
3402.32516,0.00109
3401.36078,0.00104
3400.39641,0.00103
3399.43203,0.00108
3398.46765,0.00115
3397.50327,0.00123
3396.53889,0.00130
3395.57452,0.00139
3394.61014,0.00148
3393.64576,0.00158
3392.68138,0.00167
3391.71700,0.00175
3390.75263,0.00179
3389.78825,0.00179
3388.82387,0.00175
3387.85949,0.00168
3386.89512,0.00159
3385.93074,0.00146
3384.96636,0.00131
3384.00198,0.00118
3383.03760,0.00109
3382.07323,0.00103
3381.10885,0.00100
3380.14447,0.00097
3379.18009,0.00098
3378.21571,0.00101
3377.25134,0.00104
3376.28696,0.00103
3375.32258,0.00101
3374.35820,0.00099
3373.39382,0.00095
3372.42945,0.00091
3371.46507,0.00089
3370.50069,0.00088
3369.53631,0.00090
3368.57194,0.00094
3367.60756,0.00103
3366.64318,0.00111
3365.67880,0.00117
3364.71442,0.00119
3363.75005,0.00119
3362.78567,0.00118
3361.82129,0.00115
3360.85691,0.00110
3359.89253,0.00104
3358.92816,0.00096
3357.96378,0.00088
3356.99940,0.00081
3356.03502,0.00075
3355.07065,0.00075
3354.10627,0.00080
3353.14189,0.00085
3352.17751,0.00090
3351.21313,0.00092
3350.24876,0.00094
3349.28438,0.00099
3348.32000,0.00105
3347.35562,0.00108
3346.39124,0.00105
3345.42687,0.00102
3344.46249,0.00100
3343.49811,0.00102
3342.53373,0.00103
3341.56935,0.00101
3340.60498,0.00095
3339.64060,0.00090
3338.67622,0.00090
3337.71184,0.00095
3336.74747,0.00101
3335.78309,0.00104
3334.81871,0.00104
3333.85433,0.00105
3332.88995,0.00107
3331.92558,0.00107
3330.96120,0.00106
3329.99682,0.00102
3329.03244,0.00099
3328.06806,0.00096
3327.10369,0.00097
3326.13931,0.00101
3325.17493,0.00105
3324.21055,0.00109
3323.24618,0.00111
3322.28180,0.00113
3321.31742,0.00112
3320.35304,0.00109
3319.38866,0.00105
3318.42429,0.00100
3317.45991,0.00093
3316.49553,0.00087
3315.53115,0.00086
3314.56677,0.00088
3313.60240,0.00090
3312.63802,0.00093
3311.67364,0.00097
3310.70926,0.00101
3309.74488,0.00104
3308.78051,0.00105
3307.81613,0.00107
3306.85175,0.00108
3305.88737,0.00107
3304.92300,0.00107
3303.95862,0.00110
3302.99424,0.00113
3302.02986,0.00113
3301.06548,0.00113
3300.10111,0.00115
3299.13673,0.00118
3298.17235,0.00118
3297.20797,0.00117
3296.24359,0.00115
3295.27922,0.00113
3294.31484,0.00111
3293.35046,0.00109
3292.38608,0.00109
3291.42171,0.00108
3290.45733,0.00106
3289.49295,0.00106
3288.52857,0.00106
3287.56419,0.00105
3286.59982,0.00101
3285.63544,0.00096
3284.67106,0.00092
3283.70668,0.00091
3282.74230,0.00092
3281.77793,0.00095
3280.81355,0.00098
3279.84917,0.00100
3278.88479,0.00101
3277.92041,0.00102
3276.95604,0.00102
3275.99166,0.00101
3275.02728,0.00098
3274.06290,0.00095
3273.09853,0.00093
3272.13415,0.00092
3271.16977,0.00092
3270.20539,0.00090
3269.24101,0.00085
3268.27664,0.00078
3267.31226,0.00070
3266.34788,0.00064
3265.38350,0.00061
3264.41912,0.00062
3263.45475,0.00064
3262.49037,0.00069
3261.52599,0.00078
3260.56161,0.00088
3259.59724,0.00095
3258.63286,0.00099
3257.66848,0.00100
3256.70410,0.00099
3255.73972,0.00095
3254.77535,0.00091
3253.81097,0.00087
3252.84659,0.00082
3251.88221,0.00077
3250.91783,0.00077
3249.95346,0.00080
3248.98908,0.00083
3248.02470,0.00083
3247.06032,0.00086
3246.09594,0.00091
3245.13157,0.00097
3244.16719,0.00100
3243.20281,0.00102
3242.23843,0.00101
3241.27406,0.00097
3240.30968,0.00092
3239.34530,0.00088
3238.38092,0.00086
3237.41654,0.00087
3236.45217,0.00088
3235.48779,0.00091
3234.52341,0.00093
3233.55903,0.00094
3232.59465,0.00094
3231.63028,0.00093
3230.66590,0.00090
3229.70152,0.00084
3228.73714,0.00077
3227.77276,0.00077
3226.80839,0.00082
3225.84401,0.00089
3224.87963,0.00094
3223.91525,0.00098
3222.95088,0.00099
3221.98650,0.00096
3221.02212,0.00090
3220.05774,0.00084
3219.09336,0.00080
3218.12899,0.00078
3217.16461,0.00079
3216.20023,0.00083
3215.23585,0.00087
3214.27147,0.00091
3213.30710,0.00094
3212.34272,0.00096
3211.37834,0.00094
3210.41396,0.00089
3209.44959,0.00086
3208.48521,0.00086
3207.52083,0.00087
3206.55645,0.00087
3205.59207,0.00086
3204.62770,0.00086
3203.66332,0.00087
3202.69894,0.00088
3201.73456,0.00087
3200.77018,0.00084
3199.80581,0.00082
3198.84143,0.00084
3197.87705,0.00088
3196.91267,0.00091
3195.94829,0.00094
3194.98392,0.00097
3194.01954,0.00101
3193.05516,0.00106
3192.09078,0.00108
3191.12641,0.00106
3190.16203,0.00104
3189.19765,0.00103
3188.23327,0.00104
3187.26889,0.00106
3186.30452,0.00103
3185.34014,0.00097
3184.37576,0.00093
3183.41138,0.00092
3182.44700,0.00090
3181.48263,0.00085
3180.51825,0.00080
3179.55387,0.00079
3178.58949,0.00082
3177.62512,0.00087
3176.66074,0.00092
3175.69636,0.00095
3174.73198,0.00093
3173.76760,0.00090
3172.80323,0.00088
3171.83885,0.00088
3170.87447,0.00088
3169.91009,0.00087
3168.94571,0.00085
3167.98134,0.00084
3167.01696,0.00086
3166.05258,0.00090
3165.08820,0.00096
3164.12382,0.00101
3163.15945,0.00105
3162.19507,0.00106
3161.23069,0.00104
3160.26631,0.00102
3159.30194,0.00100
3158.33756,0.00097
3157.37318,0.00094
3156.40880,0.00091
3155.44442,0.00088
3154.48005,0.00085
3153.51567,0.00082
3152.55129,0.00081
3151.58691,0.00080
3150.62253,0.00077
3149.65816,0.00072
3148.69378,0.00067
3147.72940,0.00064
3146.76502,0.00066
3145.80065,0.00070
3144.83627,0.00075
3143.87189,0.00079
3142.90751,0.00082
3141.94313,0.00083
3140.97876,0.00086
3140.01438,0.00090
3139.05000,0.00091
3138.08562,0.00088
3137.12124,0.00083
3136.15687,0.00080
3135.19249,0.00077
3134.22811,0.00076
3133.26373,0.00078
3132.29935,0.00079
3131.33498,0.00080
3130.37060,0.00079
3129.40622,0.00081
3128.44184,0.00083
3127.47747,0.00082
3126.51309,0.00080
3125.54871,0.00079
3124.58433,0.00080
3123.61995,0.00081
3122.65558,0.00084
3121.69120,0.00088
3120.72682,0.00091
3119.76244,0.00092
3118.79806,0.00090
3117.83369,0.00090
3116.86931,0.00091
3115.90493,0.00094
3114.94055,0.00097
3113.97618,0.00101
3113.01180,0.00105
3112.04742,0.00108
3111.08304,0.00109
3110.11866,0.00109
3109.15429,0.00106
3108.18991,0.00100
3107.22553,0.00095
3106.26115,0.00094
3105.29677,0.00096
3104.33240,0.00097
3103.36802,0.00095
3102.40364,0.00092
3101.43926,0.00089
3100.47488,0.00086
3099.51051,0.00082
3098.54613,0.00079
3097.58175,0.00078
3096.61737,0.00080
3095.65300,0.00084
3094.68862,0.00088
3093.72424,0.00091
3092.75986,0.00092
3091.79548,0.00092
3090.83111,0.00092
3089.86673,0.00092
3088.90235,0.00090
3087.93797,0.00088
3086.97359,0.00090
3086.00922,0.00097
3085.04484,0.00103
3084.08046,0.00105
3083.11608,0.00104
3082.15171,0.00100
3081.18733,0.00095
3080.22295,0.00089
3079.25857,0.00082
3078.29419,0.00075
3077.32982,0.00070
3076.36544,0.00068
3075.40106,0.00071
3074.43668,0.00079
3073.47230,0.00087
3072.50793,0.00091
3071.54355,0.00092
3070.57917,0.00089
3069.61479,0.00086
3068.65041,0.00083
3067.68604,0.00080
3066.72166,0.00076
3065.75728,0.00075
3064.79290,0.00075
3063.82853,0.00078
3062.86415,0.00081
3061.89977,0.00086
3060.93539,0.00089
3059.97101,0.00090
3059.00664,0.00091
3058.04226,0.00091
3057.07788,0.00092
3056.11350,0.00092
3055.14912,0.00089
3054.18475,0.00086
3053.22037,0.00083
3052.25599,0.00079
3051.29161,0.00078
3050.32724,0.00079
3049.36286,0.00081
3048.39848,0.00081
3047.43410,0.00080
3046.46972,0.00081
3045.50535,0.00085
3044.54097,0.00089
3043.57659,0.00091
3042.61221,0.00093
3041.64783,0.00095
3040.68346,0.00097
3039.71908,0.00097
3038.75470,0.00097
3037.79032,0.00096
3036.82594,0.00092
3035.86157,0.00087
3034.89719,0.00082
3033.93281,0.00076
3032.96843,0.00071
3032.00406,0.00069
3031.03968,0.00069
3030.07530,0.00069
3029.11092,0.00069
3028.14654,0.00070
3027.18217,0.00074
3026.21779,0.00080
3025.25341,0.00085
3024.28903,0.00088
3023.32465,0.00086
3022.36028,0.00081
3021.39590,0.00077
3020.43152,0.00076
3019.46714,0.00076
3018.50276,0.00076
3017.53839,0.00076
3016.57401,0.00078
3015.60963,0.00082
3014.64525,0.00087
3013.68088,0.00092
3012.71650,0.00097
3011.75212,0.00100
3010.78774,0.00101
3009.82336,0.00099
3008.85899,0.00092
3007.89461,0.00086
3006.93023,0.00082
3005.96585,0.00080
3005.00147,0.00078
3004.03710,0.00076
3003.07272,0.00076
3002.10834,0.00080
3001.14396,0.00086
3000.17959,0.00092
2999.21521,0.00093
2998.25083,0.00092
2997.28645,0.00090
2996.32207,0.00089
2995.35770,0.00088
2994.39332,0.00083
2993.42894,0.00078
2992.46456,0.00073
2991.50018,0.00072
2990.53581,0.00072
2989.57143,0.00073
2988.60705,0.00072
2987.64267,0.00072
2986.67829,0.00074
2985.71392,0.00079
2984.74954,0.00083
2983.78516,0.00085
2982.82078,0.00087
2981.85641,0.00088
2980.89203,0.00090
2979.92765,0.00091
2978.96327,0.00092
2977.99889,0.00091
2977.03452,0.00091
2976.07014,0.00091
2975.10576,0.00093
2974.14138,0.00096
2973.17700,0.00098
2972.21263,0.00101
2971.24825,0.00105
2970.28387,0.00110
2969.31949,0.00112
2968.35512,0.00113
2967.39074,0.00113
2966.42636,0.00115
2965.46198,0.00118
2964.49760,0.00121
2963.53323,0.00122
2962.56885,0.00119
2961.60447,0.00117
2960.64009,0.00115
2959.67571,0.00115
2958.71134,0.00114
2957.74696,0.00114
2956.78258,0.00114
2955.81820,0.00114
2954.85382,0.00116
2953.88945,0.00118
2952.92507,0.00119
2951.96069,0.00121
2950.99631,0.00120
2950.03194,0.00118
2949.06756,0.00115
2948.10318,0.00114
2947.13880,0.00114
2946.17442,0.00115
2945.21005,0.00118
2944.24567,0.00123
2943.28129,0.00128
2942.31691,0.00134
2941.35253,0.00141
2940.38816,0.00146
2939.42378,0.00150
2938.45940,0.00152
2937.49502,0.00154
2936.53065,0.00156
2935.56627,0.00159
2934.60189,0.00162
2933.63751,0.00168
2932.67313,0.00175
2931.70876,0.00182
2930.74438,0.00189
2929.78000,0.00196
2928.81562,0.00203
2927.85124,0.00211
2926.88687,0.00217
2925.92249,0.00220
2924.95811,0.00219
2923.99373,0.00216
2923.02935,0.00211
2922.06498,0.00202
2921.10060,0.00193
2920.13622,0.00185
2919.17184,0.00179
2918.20747,0.00175
2917.24309,0.00172
2916.27871,0.00170
2915.31433,0.00167
2914.34995,0.00164
2913.38558,0.00161
2912.42120,0.00157
2911.45682,0.00152
2910.49244,0.00146
2909.52806,0.00141
2908.56369,0.00137
2907.59931,0.00133
2906.63493,0.00131
2905.67055,0.00131
2904.70618,0.00131
2903.74180,0.00130
2902.77742,0.00129
2901.81304,0.00129
2900.84866,0.00130
2899.88429,0.00130
2898.91991,0.00128
2897.95553,0.00124
2896.99115,0.00119
2896.02677,0.00114
2895.06240,0.00110
2894.09802,0.00107
2893.13364,0.00104
2892.16926,0.00100
2891.20488,0.00097
2890.24051,0.00097
2889.27613,0.00098
2888.31175,0.00100
2887.34737,0.00101
2886.38300,0.00102
2885.41862,0.00103
2884.45424,0.00104
2883.48986,0.00104
2882.52548,0.00102
2881.56111,0.00099
2880.59673,0.00095
2879.63235,0.00093
2878.66797,0.00093
2877.70359,0.00094
2876.73922,0.00096
2875.77484,0.00098
2874.81046,0.00101
2873.84608,0.00104
2872.88171,0.00105
2871.91733,0.00104
2870.95295,0.00101
2869.98857,0.00096
2869.02419,0.00091
2868.05982,0.00088
2867.09544,0.00089
2866.13106,0.00094
2865.16668,0.00100
2864.20230,0.00106
2863.23793,0.00112
2862.27355,0.00118
2861.30917,0.00124
2860.34479,0.00131
2859.38041,0.00136
2858.41604,0.00139
2857.45166,0.00142
2856.48728,0.00145
2855.52290,0.00147
2854.55853,0.00150
2853.59415,0.00152
2852.62977,0.00150
2851.66539,0.00145
2850.70101,0.00139
2849.73664,0.00133
2848.77226,0.00127
2847.80788,0.00122
2846.84350,0.00117
2845.87912,0.00113
2844.91475,0.00109
2843.95037,0.00106
2842.98599,0.00103
2842.02161,0.00099
2841.05724,0.00092
2840.09286,0.00084
2839.12848,0.00080
2838.16410,0.00077
2837.19972,0.00074
2836.23535,0.00073
2835.27097,0.00073
2834.30659,0.00075
2833.34221,0.00078
2832.37783,0.00080
2831.41346,0.00080
2830.44908,0.00078
2829.48470,0.00076
2828.52032,0.00077
2827.55594,0.00080
2826.59157,0.00083
2825.62719,0.00084
2824.66281,0.00085
2823.69843,0.00085
2822.73406,0.00085
2821.76968,0.00085
2820.80530,0.00085
2819.84092,0.00082
2818.87654,0.00078
2817.91217,0.00075
2816.94779,0.00073
2815.98341,0.00071
2815.01903,0.00068
2814.05465,0.00066
2813.09028,0.00065
2812.12590,0.00066
2811.16152,0.00067
2810.19714,0.00069
2809.23276,0.00069
2808.26839,0.00069
2807.30401,0.00068
2806.33963,0.00065
2805.37525,0.00061
2804.41088,0.00058
2803.44650,0.00056
2802.48212,0.00055
2801.51774,0.00056
2800.55336,0.00058
2799.58899,0.00060
2798.62461,0.00062
2797.66023,0.00064
2796.69585,0.00065
2795.73147,0.00065
2794.76710,0.00064
2793.80272,0.00065
2792.83834,0.00068
2791.87396,0.00071
2790.90959,0.00074
2789.94521,0.00077
2788.98083,0.00079
2788.01645,0.00080
2787.05207,0.00080
2786.08770,0.00077
2785.12332,0.00073
2784.15894,0.00069
2783.19456,0.00067
2782.23018,0.00068
2781.26581,0.00070
2780.30143,0.00071
2779.33705,0.00071
2778.37267,0.00071
2777.40829,0.00069
2776.44392,0.00068
2775.47954,0.00066
2774.51516,0.00064
2773.55078,0.00063
2772.58641,0.00064
2771.62203,0.00065
2770.65765,0.00067
2769.69327,0.00069
2768.72889,0.00069
2767.76452,0.00070
2766.80014,0.00070
2765.83576,0.00070
2764.87138,0.00070
2763.90700,0.00070
2762.94263,0.00070
2761.97825,0.00069
2761.01387,0.00068
2760.04949,0.00066
2759.08512,0.00065
2758.12074,0.00063
2757.15636,0.00063
2756.19198,0.00062
2755.22760,0.00062
2754.26323,0.00061
2753.29885,0.00063
2752.33447,0.00065
2751.37009,0.00068
2750.40571,0.00070
2749.44134,0.00072
2748.47696,0.00073
2747.51258,0.00074
2746.54820,0.00074
2745.58382,0.00074
2744.61945,0.00074
2743.65507,0.00073
2742.69069,0.00073
2741.72631,0.00074
2740.76194,0.00075
2739.79756,0.00076
2738.83318,0.00076
2737.86880,0.00074
2736.90442,0.00071
2735.94005,0.00068
2734.97567,0.00064
2734.01129,0.00063
2733.04691,0.00062
2732.08253,0.00061
2731.11816,0.00062
2730.15378,0.00063
2729.18940,0.00064
2728.22502,0.00064
2727.26065,0.00064
2726.29627,0.00063
2725.33189,0.00061
2724.36751,0.00060
2723.40313,0.00058
2722.43876,0.00057
2721.47438,0.00057
2720.51000,0.00059
2719.54562,0.00061
2718.58124,0.00062
2717.61687,0.00061
2716.65249,0.00060
2715.68811,0.00060
2714.72373,0.00061
2713.75935,0.00062
2712.79498,0.00062
2711.83060,0.00060
2710.86622,0.00059
2709.90184,0.00059
2708.93747,0.00059
2707.97309,0.00059
2707.00871,0.00059
2706.04433,0.00058
2705.07995,0.00059
2704.11558,0.00062
2703.15120,0.00063
2702.18682,0.00063
2701.22244,0.00063
2700.25806,0.00063
2699.29369,0.00063
2698.32931,0.00063
2697.36493,0.00064
2696.40055,0.00065
2695.43618,0.00066
2694.47180,0.00065
2693.50742,0.00065
2692.54304,0.00064
2691.57866,0.00064
2690.61429,0.00063
2689.64991,0.00063
2688.68553,0.00064
2687.72115,0.00065
2686.75677,0.00066
2685.79240,0.00067
2684.82802,0.00067
2683.86364,0.00066
2682.89926,0.00065
2681.93488,0.00064
2680.97051,0.00061
2680.00613,0.00059
2679.04175,0.00057
2678.07737,0.00056
2677.11300,0.00056
2676.14862,0.00055
2675.18424,0.00055
2674.21986,0.00055
2673.25548,0.00057
2672.29111,0.00058
2671.32673,0.00059
2670.36235,0.00058
2669.39797,0.00056
2668.43359,0.00054
2667.46922,0.00053
2666.50484,0.00052
2665.54046,0.00050
2664.57608,0.00049
2663.61171,0.00048
2662.64733,0.00048
2661.68295,0.00048
2660.71857,0.00049
2659.75419,0.00051
2658.78982,0.00052
2657.82544,0.00053
2656.86106,0.00056
2655.89668,0.00059
2654.93230,0.00061
2653.96793,0.00063
2653.00355,0.00066
2652.03917,0.00066
2651.07479,0.00065
2650.11041,0.00067
2649.14604,0.00069
2648.18166,0.00071
2647.21728,0.00070
2646.25290,0.00067
2645.28853,0.00064
2644.32415,0.00061
2643.35977,0.00060
2642.39539,0.00060
2641.43101,0.00060
2640.46664,0.00058
2639.50226,0.00058
2638.53788,0.00061
2637.57350,0.00063
2636.60912,0.00064
2635.64475,0.00063
2634.68037,0.00062
2633.71599,0.00060
2632.75161,0.00060
2631.78724,0.00062
2630.82286,0.00062
2629.85848,0.00059
2628.89410,0.00056
2627.92972,0.00052
2626.96535,0.00050
2626.00097,0.00049
2625.03659,0.00049
2624.07221,0.00051
2623.10783,0.00053
2622.14346,0.00058
2621.17908,0.00063
2620.21470,0.00068
2619.25032,0.00070
2618.28594,0.00068
2617.32157,0.00064
2616.35719,0.00058
2615.39281,0.00052
2614.42843,0.00047
2613.46406,0.00044
2612.49968,0.00042
2611.53530,0.00041
2610.57092,0.00042
2609.60654,0.00046
2608.64217,0.00050
2607.67779,0.00053
2606.71341,0.00053
2605.74903,0.00054
2604.78465,0.00055
2603.82028,0.00056
2602.85590,0.00057
2601.89152,0.00060
2600.92714,0.00062
2599.96276,0.00062
2598.99839,0.00061
2598.03401,0.00064
2597.06963,0.00070
2596.10525,0.00075
2595.14088,0.00077
2594.17650,0.00082
2593.21212,0.00086
2592.24774,0.00085
2591.28336,0.00081
2590.31899,0.00074
2589.35461,0.00063
2588.39023,0.00052
2587.42585,0.00046
2586.46147,0.00045
2585.49710,0.00047
2584.53272,0.00048
2583.56834,0.00050
2582.60396,0.00053
2581.63959,0.00057
2580.67521,0.00059
2579.71083,0.00058
2578.74645,0.00055
2577.78207,0.00051
2576.81770,0.00048
2575.85332,0.00047
2574.88894,0.00048
2573.92456,0.00050
2572.96018,0.00054
2571.99581,0.00056
2571.03143,0.00058
2570.06705,0.00060
2569.10267,0.00060
2568.13829,0.00055
2567.17392,0.00051
2566.20954,0.00048
2565.24516,0.00047
2564.28078,0.00045
2563.31641,0.00042
2562.35203,0.00039
2561.38765,0.00036
2560.42327,0.00034
2559.45889,0.00030
2558.49452,0.00025
2557.53014,0.00020
2556.56576,0.00019
2555.60138,0.00026
2554.63700,0.00036
2553.67263,0.00044
2552.70825,0.00046
2551.74387,0.00044
2550.77949,0.00042
2549.81512,0.00041
2548.85074,0.00041
2547.88636,0.00041
2546.92198,0.00043
2545.95760,0.00049
2544.99323,0.00057
2544.02885,0.00065
2543.06447,0.00067
2542.10009,0.00065
2541.13571,0.00059
2540.17134,0.00051
2539.20696,0.00041
2538.24258,0.00029
2537.27820,0.00019
2536.31382,0.00016
2535.34945,0.00020
2534.38507,0.00027
2533.42069,0.00033
2532.45631,0.00039
2531.49194,0.00043
2530.52756,0.00047
2529.56318,0.00050
2528.59880,0.00052
2527.63442,0.00052
2526.67005,0.00050
2525.70567,0.00047
2524.74129,0.00044
2523.77691,0.00040
2522.81253,0.00036
2521.84816,0.00035
2520.88378,0.00038
2519.91940,0.00042
2518.95502,0.00048
2517.99065,0.00053
2517.02627,0.00060
2516.06189,0.00067
2515.09751,0.00073
2514.13313,0.00074
2513.16876,0.00070
2512.20438,0.00066
2511.24000,0.00066
2510.27562,0.00073
2509.31124,0.00081
2508.34687,0.00085
2507.38249,0.00083
2506.41811,0.00077
2505.45373,0.00068
2504.48935,0.00059
2503.52498,0.00050
2502.56060,0.00041
2501.59622,0.00031
2500.63184,0.00027
2499.66747,0.00028
2498.70309,0.00032
2497.73871,0.00036
2496.77433,0.00042
2495.80995,0.00049
2494.84558,0.00057
2493.88120,0.00059
2492.91682,0.00056
2491.95244,0.00052
2490.98806,0.00050
2490.02369,0.00049
2489.05931,0.00049
2488.09493,0.00045
2487.13055,0.00039
2486.16618,0.00036
2485.20180,0.00039
2484.23742,0.00044
2483.27304,0.00044
2482.30866,0.00037
2481.34429,0.00028
2480.37991,0.00022
2479.41553,0.00021
2478.45115,0.00021
2477.48677,0.00019
2476.52240,0.00018
2475.55802,0.00023
2474.59364,0.00032
2473.62926,0.00041
2472.66488,0.00046
2471.70051,0.00045
2470.73613,0.00040
2469.77175,0.00033
2468.80737,0.00028
2467.84300,0.00027
2466.87862,0.00027
2465.91424,0.00028
2464.94986,0.00031
2463.98548,0.00035
2463.02111,0.00038
2462.05673,0.00039
2461.09235,0.00037
2460.12797,0.00034
2459.16359,0.00031
2458.19922,0.00030
2457.23484,0.00033
2456.27046,0.00041
2455.30608,0.00048
2454.34171,0.00053
2453.37733,0.00055
2452.41295,0.00056
2451.44857,0.00058
2450.48419,0.00061
2449.51982,0.00063
2448.55544,0.00065
2447.59106,0.00066
2446.62668,0.00067
2445.66230,0.00066
2444.69793,0.00062
2443.73355,0.00057
2442.76917,0.00053
2441.80479,0.00048
2440.84041,0.00044
2439.87604,0.00042
2438.91166,0.00039
2437.94728,0.00036
2436.98290,0.00036
2436.01853,0.00039
2435.05415,0.00039
2434.08977,0.00036
2433.12539,0.00032
2432.16101,0.00030
2431.19664,0.00030
2430.23226,0.00030
2429.26788,0.00028
2428.30350,0.00026
2427.33912,0.00026
2426.37475,0.00029
2425.41037,0.00036
2424.44599,0.00042
2423.48161,0.00046
2422.51724,0.00049
2421.55286,0.00052
2420.58848,0.00053
2419.62410,0.00051
2418.65972,0.00048
2417.69535,0.00046
2416.73097,0.00043
2415.76659,0.00041
2414.80221,0.00038
2413.83783,0.00037
2412.87346,0.00036
2411.90908,0.00038
2410.94470,0.00042
2409.98032,0.00048
2409.01594,0.00052
2408.05157,0.00053
2407.08719,0.00051
2406.12281,0.00046
2405.15843,0.00040
2404.19406,0.00031
2403.22968,0.00024
2402.26530,0.00019
2401.30092,0.00017
2400.33654,0.00019
2399.37217,0.00028
2398.40779,0.00042
2397.44341,0.00053
2396.47903,0.00060
2395.51465,0.00061
2394.55028,0.00060
2393.58590,0.00057
2392.62152,0.00055
2391.65714,0.00051
2390.69276,0.00046
2389.72839,0.00041
2388.76401,0.00040
2387.79963,0.00041
2386.83525,0.00045
2385.87088,0.00048
2384.90650,0.00050
2383.94212,0.00054
2382.97774,0.00057
2382.01336,0.00060
2381.04899,0.00064
2380.08461,0.00069
2379.12023,0.00072
2378.15585,0.00074
2377.19147,0.00078
2376.22710,0.00082
2375.26272,0.00084
2374.29834,0.00085
2373.33396,0.00089
2372.36959,0.00095
2371.40521,0.00104
2370.44083,0.00115
2369.47645,0.00124
2368.51207,0.00129
2367.54770,0.00131
2366.58332,0.00134
2365.61894,0.00136
2364.65456,0.00136
2363.69018,0.00134
2362.72581,0.00134
2361.76143,0.00139
2360.79705,0.00147
2359.83267,0.00155
2358.86829,0.00158
2357.90392,0.00156
2356.93954,0.00151
2355.97516,0.00145
2355.01078,0.00136
2354.04641,0.00123
2353.08203,0.00107
2352.11765,0.00093
2351.15327,0.00084
2350.18889,0.00080
2349.22452,0.00079
2348.26014,0.00080
2347.29576,0.00084
2346.33138,0.00090
2345.36700,0.00096
2344.40263,0.00102
2343.43825,0.00108
2342.47387,0.00110
2341.50949,0.00111
2340.54512,0.00111
2339.58074,0.00112
2338.61636,0.00114
2337.65198,0.00116
2336.68760,0.00118
2335.72323,0.00120
2334.75885,0.00121
2333.79447,0.00121
2332.83009,0.00121
2331.86571,0.00119
2330.90134,0.00116
2329.93696,0.00112
2328.97258,0.00111
2328.00820,0.00111
2327.04382,0.00112
2326.07945,0.00113
2325.11507,0.00114
2324.15069,0.00116
2323.18631,0.00116
2322.22194,0.00114
2321.25756,0.00110
2320.29318,0.00102
2319.32880,0.00096
2318.36442,0.00092
2317.40005,0.00090
2316.43567,0.00087
2315.47129,0.00084
2314.50691,0.00080
2313.54253,0.00079
2312.57816,0.00079
2311.61378,0.00078
2310.64940,0.00076
2309.68502,0.00070
2308.72065,0.00062
2307.75627,0.00054
2306.79189,0.00051
2305.82751,0.00051
2304.86313,0.00053
2303.89876,0.00055
2302.93438,0.00058
2301.97000,0.00062
2301.00562,0.00068
2300.04124,0.00072
2299.07687,0.00072
2298.11249,0.00067
2297.14811,0.00060
2296.18373,0.00054
2295.21935,0.00053
2294.25498,0.00055
2293.29060,0.00059
2292.32622,0.00063
2291.36184,0.00064
2290.39747,0.00063
2289.43309,0.00063
2288.46871,0.00065
2287.50433,0.00070
2286.53995,0.00070
2285.57558,0.00063
2284.61120,0.00053
2283.64682,0.00043
2282.68244,0.00034
2281.71806,0.00027
2280.75369,0.00024
2279.78931,0.00024
2278.82493,0.00025
2277.86055,0.00030
2276.89618,0.00041
2275.93180,0.00055
2274.96742,0.00065
2274.00304,0.00068
2273.03866,0.00072
2272.07429,0.00079
2271.10991,0.00084
2270.14553,0.00086
2269.18115,0.00088
2268.21677,0.00092
2267.25240,0.00097
2266.28802,0.00101
2265.32364,0.00104
2264.35926,0.00109
2263.39488,0.00110
2262.43051,0.00103
2261.46613,0.00087
2260.50175,0.00063
2259.53737,0.00039
2258.57300,0.00022
2257.60862,0.00016
2256.64424,0.00021
2255.67986,0.00035
2254.71548,0.00051
2253.75111,0.00064
2252.78673,0.00068
2251.82235,0.00064
2250.85797,0.00050
2249.89359,0.00027
2248.92922,0.00006
2247.96484,-0.00006
2247.00046,-0.00008
2246.03608,-0.00006
2245.07171,-0.00002
2244.10733,0.00007
2243.14295,0.00016
2242.17857,0.00019
2241.21419,0.00018
2240.24982,0.00024
2239.28544,0.00039
2238.32106,0.00057
2237.35668,0.00067
2236.39230,0.00070
2235.42793,0.00067
2234.46355,0.00060
2233.49917,0.00054
2232.53479,0.00053
2231.57041,0.00050
2230.60604,0.00046
2229.64166,0.00045
2228.67728,0.00052
2227.71290,0.00054
2226.74853,0.00040
2225.78415,0.00018
2224.81977,0.00004
2223.85539,0.00004
2222.89101,0.00010
2221.92664,0.00014
2220.96226,0.00015
2219.99788,0.00015
2219.03350,0.00017
2218.06912,0.00023
2217.10475,0.00027
2216.14037,0.00025
2215.17599,0.00018
2214.21161,0.00022
2213.24724,0.00052
2212.28286,0.00104
2211.31848,0.00150
2210.35410,0.00173
2209.38972,0.00179
2208.42535,0.00182
2207.46097,0.00184
2206.49659,0.00185
2205.53221,0.00183
2204.56783,0.00178
2203.60346,0.00172
2202.63908,0.00173
2201.67470,0.00189
2200.71032,0.00211
2199.74594,0.00221
2198.78157,0.00220
2197.81719,0.00215
2196.85281,0.00212
2195.88843,0.00212
2194.92406,0.00211
2193.95968,0.00211
2192.99530,0.00210
2192.03092,0.00210
2191.06654,0.00210
2190.10217,0.00209
2189.13779,0.00209
2188.17341,0.00208
2187.20903,0.00208
2186.24465,0.00208
2185.28028,0.00207
2184.31590,0.00207
2183.35152,0.00206
2182.38714,0.00206
2181.42276,0.00206
2180.45839,0.00205
2179.49401,0.00205
2178.52963,0.00204
2177.56525,0.00204
2176.60088,0.00204
2175.63650,0.00203
2174.67212,0.00203
2173.70774,0.00202
2172.74336,0.00202
2171.77899,0.00202
2170.81461,0.00201
2169.85023,0.00201
2168.88585,0.00200
2167.92147,0.00200
2166.95710,0.00200
2165.99272,0.00199
2165.02834,0.00199
2164.06396,0.00198
2163.09959,0.00198
2162.13521,0.00198
2161.17083,0.00197
2160.20645,0.00197
2159.24207,0.00196
2158.27770,0.00196
2157.31332,0.00196
2156.34894,0.00195
2155.38456,0.00195
2154.42018,0.00194
2153.45581,0.00194
2152.49143,0.00194
2151.52705,0.00193
2150.56267,0.00193
2149.59829,0.00192
2148.63392,0.00192
2147.66954,0.00192
2146.70516,0.00191
2145.74078,0.00191
2144.77641,0.00190
2143.81203,0.00190
2142.84765,0.00189
2141.88327,0.00189
2140.91889,0.00189
2139.95452,0.00188
2138.99014,0.00188
2138.02576,0.00187
2137.06138,0.00187
2136.09700,0.00187
2135.13263,0.00186
2134.16825,0.00186
2133.20387,0.00185
2132.23949,0.00185
2131.27512,0.00185
2130.31074,0.00184
2129.34636,0.00184
2128.38198,0.00183
2127.41760,0.00183
2126.45323,0.00183
2125.48885,0.00182
2124.52447,0.00182
2123.56009,0.00181
2122.59571,0.00181
2121.63134,0.00181
2120.66696,0.00180
2119.70258,0.00180
2118.73820,0.00179
2117.77382,0.00179
2116.80945,0.00179
2115.84507,0.00178
2114.88069,0.00178
2113.91631,0.00177
2112.95194,0.00177
2111.98756,0.00177
2111.02318,0.00176
2110.05880,0.00176
2109.09442,0.00175
2108.13005,0.00175
2107.16567,0.00175
2106.20129,0.00174
2105.23691,0.00174
2104.27253,0.00173
2103.30816,0.00173
2102.34378,0.00173
2101.37940,0.00172
2100.41502,0.00172
2099.45065,0.00171
2098.48627,0.00171
2097.52189,0.00171
2096.55751,0.00170
2095.59313,0.00170
2094.62876,0.00169
2093.66438,0.00169
2092.70000,0.00169
2091.73562,0.00168
2090.77124,0.00168
2089.80687,0.00167
2088.84249,0.00167
2087.87811,0.00167
2086.91373,0.00166
2085.94935,0.00166
2084.98498,0.00165
2084.02060,0.00165
2083.05622,0.00165
2082.09184,0.00164
2081.12747,0.00164
2080.16309,0.00163
2079.19871,0.00163
2078.23433,0.00163
2077.26995,0.00162
2076.30558,0.00162
2075.34120,0.00161
2074.37682,0.00161
2073.41244,0.00160
2072.44806,0.00160
2071.48369,0.00160
2070.51931,0.00159
2069.55493,0.00159
2068.59055,0.00158
2067.62618,0.00158
2066.66180,0.00158
2065.69742,0.00157
2064.73304,0.00157
2063.76866,0.00156
2062.80429,0.00156
2061.83991,0.00156
2060.87553,0.00155
2059.91115,0.00155
2058.94677,0.00154
2057.98240,0.00154
2057.01802,0.00154
2056.05364,0.00153
2055.08926,0.00153
2054.12488,0.00152
2053.16051,0.00152
2052.19613,0.00152
2051.23175,0.00151
2050.26737,0.00151
2049.30300,0.00150
2048.33862,0.00150
2047.37424,0.00150
2046.40986,0.00149
2045.44548,0.00149
2044.48111,0.00148
2043.51673,0.00148
2042.55235,0.00148
2041.58797,0.00147
2040.62359,0.00147
2039.65922,0.00146
2038.69484,0.00146
2037.73046,0.00146
2036.76608,0.00145
2035.80171,0.00145
2034.83733,0.00144
2033.87295,0.00144
2032.90857,0.00144
2031.94419,0.00143
2030.97982,0.00143
2030.01544,0.00142
2029.05106,0.00142
2028.08668,0.00142
2027.12230,0.00141
2026.15793,0.00141
2025.19355,0.00140
2024.22917,0.00140
2023.26479,0.00140
2022.30041,0.00139
2021.33604,0.00139
2020.37166,0.00138
2019.40728,0.00138
2018.44290,0.00138
2017.47853,0.00137
2016.51415,0.00137
2015.54977,0.00136
2014.58539,0.00136
2013.62101,0.00136
2012.65664,0.00135
2011.69226,0.00135
2010.72788,0.00134
2009.76350,0.00134
2008.79912,0.00133
2007.83475,0.00133
2006.87037,0.00133
2005.90599,0.00132
2004.94161,0.00132
2003.97724,0.00131
2003.01286,0.00131
2002.04848,0.00131
2001.08410,0.00130
2000.11972,0.00130
1999.15535,0.00129
1998.19097,0.00129
1997.22659,0.00129
1996.26221,0.00128
1995.29783,0.00128
1994.33346,0.00127
1993.36908,0.00127
1992.40470,0.00127
1991.44032,0.00126
1990.47594,0.00126
1989.51157,0.00125
1988.54719,0.00125
1987.58281,0.00125
1986.61843,0.00124
1985.65406,0.00124
1984.68968,0.00123
1983.72530,0.00123
1982.76092,0.00123
1981.79654,0.00122
1980.83217,0.00122
1979.86779,0.00121
1978.90341,0.00121
1977.93903,0.00121
1976.97465,0.00120
1976.01028,0.00120
1975.04590,0.00119
1974.08152,0.00119
1973.11714,0.00119
1972.15276,0.00118
1971.18839,0.00118
1970.22401,0.00117
1969.25963,0.00117
1968.29525,0.00117
1967.33088,0.00116
1966.36650,0.00116
1965.40212,0.00115
1964.43774,0.00115
1963.47336,0.00115
1962.50899,0.00114
1961.54461,0.00114
1960.58023,0.00114
1959.61585,0.00115
1958.65147,0.00119
1957.68710,0.00123
1956.72272,0.00118
1955.75834,0.00099
1954.79396,0.00070
1953.82959,0.00041
1952.86521,0.00023
1951.90083,0.00012
1950.93645,0.00008
1949.97207,0.00015
1949.00770,0.00030
1948.04332,0.00047
1947.07894,0.00059
1946.11456,0.00062
1945.15018,0.00060
1944.18581,0.00058
1943.22143,0.00055
1942.25705,0.00051
1941.29267,0.00054
1940.32829,0.00061
1939.36392,0.00066
1938.39954,0.00067
1937.43516,0.00061
1936.47078,0.00047
1935.50641,0.00027
1934.54203,0.00012
1933.57765,0.00015
1932.61327,0.00034
1931.64889,0.00048
1930.68452,0.00052
1929.72014,0.00055
1928.75576,0.00063
1927.79138,0.00065
1926.82700,0.00060
1925.86263,0.00055
1924.89825,0.00053
1923.93387,0.00051
1922.96949,0.00051
1922.00512,0.00054
1921.04074,0.00060
1920.07636,0.00057
1919.11198,0.00046
1918.14760,0.00037
1917.18323,0.00033
1916.21885,0.00030
1915.25447,0.00028
1914.29009,0.00034
1913.32571,0.00043
1912.36134,0.00046
1911.39696,0.00042
1910.43258,0.00037
1909.46820,0.00031
1908.50382,0.00024
1907.53945,0.00019
1906.57507,0.00017
1905.61069,0.00017
1904.64631,0.00019
1903.68194,0.00022
1902.71756,0.00025
1901.75318,0.00027
1900.78880,0.00024
1899.82442,0.00019
1898.86005,0.00016
1897.89567,0.00015
1896.93129,0.00018
1895.96691,0.00023
1895.00253,0.00029
1894.03816,0.00031
1893.07378,0.00030
1892.10940,0.00025
1891.14502,0.00020
1890.18065,0.00015
1889.21627,0.00009
1888.25189,0.00006
1887.28751,0.00007
1886.32313,0.00009
1885.35876,0.00011
1884.39438,0.00011
1883.43000,0.00012
1882.46562,0.00017
1881.50124,0.00022
1880.53687,0.00023
1879.57249,0.00018
1878.60811,0.00015
1877.64373,0.00018
1876.67935,0.00024
1875.71498,0.00030
1874.75060,0.00034
1873.78622,0.00036
1872.82184,0.00036
1871.85747,0.00037
1870.89309,0.00040
1869.92871,0.00038
1868.96433,0.00030
1867.99995,0.00021
1867.03558,0.00018
1866.07120,0.00018
1865.10682,0.00021
1864.14244,0.00024
1863.17806,0.00027
1862.21369,0.00029
1861.24931,0.00028
1860.28493,0.00027
1859.32055,0.00028
1858.35618,0.00029
1857.39180,0.00029
1856.42742,0.00029
1855.46304,0.00028
1854.49866,0.00025
1853.53429,0.00023
1852.56991,0.00020
1851.60553,0.00015
1850.64115,0.00010
1849.67677,0.00004
1848.71240,-0.00001
1847.74802,-0.00003
1846.78364,-0.00001
1845.81926,0.00001
1844.85488,0.00002
1843.89051,0.00004
1842.92613,0.00005
1841.96175,0.00007
1840.99737,0.00008
1840.03300,0.00010
1839.06862,0.00013
1838.10424,0.00017
1837.13986,0.00020
1836.17548,0.00023
1835.21111,0.00025
1834.24673,0.00025
1833.28235,0.00023
1832.31797,0.00023
1831.35359,0.00022
1830.38922,0.00020
1829.42484,0.00021
1828.46046,0.00024
1827.49608,0.00028
1826.53171,0.00030
1825.56733,0.00031
1824.60295,0.00029
1823.63857,0.00027
1822.67419,0.00025
1821.70982,0.00023
1820.74544,0.00021
1819.78106,0.00019
1818.81668,0.00018
1817.85230,0.00017
1816.88793,0.00014
1815.92355,0.00011
1814.95917,0.00009
1813.99479,0.00009
1813.03041,0.00011
1812.06604,0.00016
1811.10166,0.00023
1810.13728,0.00027
1809.17290,0.00030
1808.20853,0.00032
1807.24415,0.00033
1806.27977,0.00032
1805.31539,0.00029
1804.35101,0.00027
1803.38664,0.00024
1802.42226,0.00022
1801.45788,0.00019
1800.49350,0.00017
1799.52912,0.00014
1798.56475,0.00011
1797.60037,0.00009
1796.63599,0.00009
1795.67161,0.00010
1794.70724,0.00013
1793.74286,0.00017
1792.77848,0.00021
1791.81410,0.00026
1790.84972,0.00030
1789.88535,0.00034
1788.92097,0.00036
1787.95659,0.00035
1786.99221,0.00034
1786.02783,0.00032
1785.06346,0.00030
1784.09908,0.00030
1783.13470,0.00030
1782.17032,0.00029
1781.20594,0.00028
1780.24157,0.00027
1779.27719,0.00028
1778.31281,0.00028
1777.34843,0.00027
1776.38406,0.00025
1775.41968,0.00023
1774.45530,0.00023
1773.49092,0.00025
1772.52654,0.00028
1771.56217,0.00031
1770.59779,0.00033
1769.63341,0.00034
1768.66903,0.00035
1767.70465,0.00035
1766.74028,0.00035
1765.77590,0.00033
1764.81152,0.00030
1763.84714,0.00028
1762.88276,0.00027
1761.91839,0.00026
1760.95401,0.00026
1759.98963,0.00026
1759.02525,0.00028
1758.06088,0.00029
1757.09650,0.00032
1756.13212,0.00034
1755.16774,0.00037
1754.20336,0.00040
1753.23899,0.00043
1752.27461,0.00046
1751.31023,0.00048
1750.34585,0.00049
1749.38147,0.00050
1748.41710,0.00051
1747.45272,0.00053
1746.48834,0.00055
1745.52396,0.00057
1744.55959,0.00059
1743.59521,0.00060
1742.63083,0.00060
1741.66645,0.00060
1740.70207,0.00058
1739.73770,0.00056
1738.77332,0.00052
1737.80894,0.00048
1736.84456,0.00044
1735.88018,0.00041
1734.91581,0.00039
1733.95143,0.00038
1732.98705,0.00038
1732.02267,0.00039
1731.05829,0.00041
1730.09392,0.00044
1729.12954,0.00046
1728.16516,0.00048
1727.20078,0.00049
1726.23641,0.00049
1725.27203,0.00048
1724.30765,0.00047
1723.34327,0.00045
1722.37889,0.00041
1721.41452,0.00037
1720.45014,0.00032
1719.48576,0.00028
1718.52138,0.00026
1717.55700,0.00025
1716.59263,0.00024
1715.62825,0.00024
1714.66387,0.00025
1713.69949,0.00028
1712.73512,0.00031
1711.77074,0.00034
1710.80636,0.00035
1709.84198,0.00036
1708.87760,0.00037
1707.91323,0.00039
1706.94885,0.00040
1705.98447,0.00040
1705.02009,0.00037
1704.05571,0.00035
1703.09134,0.00034
1702.12696,0.00034
1701.16258,0.00033
1700.19820,0.00030
1699.23382,0.00028
1698.26945,0.00028
1697.30507,0.00030
1696.34069,0.00033
1695.37631,0.00036
1694.41194,0.00037
1693.44756,0.00038
1692.48318,0.00041
1691.51880,0.00045
1690.55442,0.00049
1689.59005,0.00050
1688.62567,0.00048
1687.66129,0.00046
1686.69691,0.00045
1685.73253,0.00044
1684.76816,0.00044
1683.80378,0.00045
1682.83940,0.00046
1681.87502,0.00049
1680.91065,0.00053
1679.94627,0.00055
1678.98189,0.00056
1678.01751,0.00055
1677.05313,0.00053
1676.08876,0.00052
1675.12438,0.00051
1674.16000,0.00051
1673.19562,0.00051
1672.23124,0.00051
1671.26687,0.00051
1670.30249,0.00053
1669.33811,0.00054
1668.37373,0.00054
1667.40935,0.00054
1666.44498,0.00054
1665.48060,0.00056
1664.51622,0.00059
1663.55184,0.00062
1662.58747,0.00064
1661.62309,0.00063
1660.65871,0.00062
1659.69433,0.00061
1658.72995,0.00058
1657.76558,0.00052
1656.80120,0.00045
1655.83682,0.00040
1654.87244,0.00038
1653.90806,0.00040
1652.94369,0.00043
1651.97931,0.00047
1651.01493,0.00050
1650.05055,0.00052
1649.08618,0.00054
1648.12180,0.00056
1647.15742,0.00054
1646.19304,0.00051
1645.22866,0.00048
1644.26429,0.00047
1643.29991,0.00048
1642.33553,0.00051
1641.37115,0.00052
1640.40677,0.00050
1639.44240,0.00046
1638.47802,0.00043
1637.51364,0.00041
1636.54926,0.00039
1635.58488,0.00039
1634.62051,0.00039
1633.65613,0.00040
1632.69175,0.00042
1631.72737,0.00045
1630.76300,0.00047
1629.79862,0.00048
1628.83424,0.00046
1627.86986,0.00042
1626.90548,0.00039
1625.94111,0.00037
1624.97673,0.00036
1624.01235,0.00036
1623.04797,0.00036
1622.08359,0.00036
1621.11922,0.00034
1620.15484,0.00033
1619.19046,0.00032
1618.22608,0.00031
1617.26171,0.00029
1616.29733,0.00028
1615.33295,0.00028
1614.36857,0.00028
1613.40419,0.00031
1612.43982,0.00034
1611.47544,0.00036
1610.51106,0.00037
1609.54668,0.00037
1608.58230,0.00036
1607.61793,0.00035
1606.65355,0.00034
1605.68917,0.00033
1604.72479,0.00032
1603.76041,0.00032
1602.79604,0.00033
1601.83166,0.00035
1600.86728,0.00036
1599.90290,0.00036
1598.93853,0.00036
1597.97415,0.00035
1597.00977,0.00035
1596.04539,0.00034
1595.08101,0.00033
1594.11664,0.00033
1593.15226,0.00035
1592.18788,0.00037
1591.22350,0.00039
1590.25912,0.00040
1589.29475,0.00042
1588.33037,0.00044
1587.36599,0.00045
1586.40161,0.00046
1585.43724,0.00047
1584.47286,0.00047
1583.50848,0.00048
1582.54410,0.00048
1581.57972,0.00048
1580.61535,0.00046
1579.65097,0.00043
1578.68659,0.00041
1577.72221,0.00041
1576.75783,0.00042
1575.79346,0.00043
1574.82908,0.00045
1573.86470,0.00047
1572.90032,0.00050
1571.93594,0.00054
1570.97157,0.00057
1570.00719,0.00059
1569.04281,0.00061
1568.07843,0.00062
1567.11406,0.00063
1566.14968,0.00063
1565.18530,0.00063
1564.22092,0.00061
1563.25654,0.00058
1562.29217,0.00054
1561.32779,0.00052
1560.36341,0.00052
1559.39903,0.00052
1558.43465,0.00054
1557.47028,0.00057
1556.50590,0.00059
1555.54152,0.00062
1554.57714,0.00064
1553.61276,0.00065
1552.64839,0.00065
1551.68401,0.00066
1550.71963,0.00067
1549.75525,0.00069
1548.79088,0.00070
1547.82650,0.00070
1546.86212,0.00070
1545.89774,0.00069
1544.93336,0.00068
1543.96899,0.00066
1543.00461,0.00063
1542.04023,0.00062
1541.07585,0.00063
1540.11147,0.00065
1539.14710,0.00068
1538.18272,0.00070
1537.21834,0.00072
1536.25396,0.00075
1535.28959,0.00078
1534.32521,0.00080
1533.36083,0.00081
1532.39645,0.00080
1531.43207,0.00079
1530.46770,0.00077
1529.50332,0.00076
1528.53894,0.00074
1527.57456,0.00073
1526.61018,0.00071
1525.64581,0.00068
1524.68143,0.00066
1523.71705,0.00066
1522.75267,0.00066
1521.78829,0.00067
1520.82392,0.00068
1519.85954,0.00069
1518.89516,0.00071
1517.93078,0.00072
1516.96641,0.00075
1516.00203,0.00076
1515.03765,0.00076
1514.07327,0.00075
1513.10889,0.00074
1512.14452,0.00072
1511.18014,0.00070
1510.21576,0.00067
1509.25138,0.00064
1508.28700,0.00062
1507.32263,0.00062
1506.35825,0.00063
1505.39387,0.00065
1504.42949,0.00068
1503.46512,0.00071
1502.50074,0.00073
1501.53636,0.00074
1500.57198,0.00074
1499.60760,0.00072
1498.64323,0.00070
1497.67885,0.00070
1496.71447,0.00070
1495.75009,0.00071
1494.78571,0.00072
1493.82134,0.00073
1492.85696,0.00074
1491.89258,0.00075
1490.92820,0.00076
1489.96382,0.00076
1488.99945,0.00076
1488.03507,0.00076
1487.07069,0.00076
1486.10631,0.00076
1485.14194,0.00075
1484.17756,0.00076
1483.21318,0.00076
1482.24880,0.00077
1481.28442,0.00078
1480.32005,0.00078
1479.35567,0.00080
1478.39129,0.00081
1477.42691,0.00083
1476.46253,0.00082
1475.49816,0.00080
1474.53378,0.00079
1473.56940,0.00078
1472.60502,0.00080
1471.64065,0.00083
1470.67627,0.00087
1469.71189,0.00090
1468.74751,0.00094
1467.78313,0.00099
1466.81876,0.00103
1465.85438,0.00106
1464.89000,0.00107
1463.92562,0.00105
1462.96124,0.00104
1461.99687,0.00104
1461.03249,0.00104
1460.06811,0.00103
1459.10373,0.00103
1458.13935,0.00103
1457.17498,0.00104
1456.21060,0.00105
1455.24622,0.00104
1454.28184,0.00103
1453.31747,0.00102
1452.35309,0.00102
1451.38871,0.00101
1450.42433,0.00101
1449.45995,0.00101
1448.49558,0.00101
1447.53120,0.00102
1446.56682,0.00104
1445.60244,0.00105
1444.63806,0.00105
1443.67369,0.00103
1442.70931,0.00102
1441.74493,0.00101
1440.78055,0.00099
1439.81618,0.00098
1438.85180,0.00098
1437.88742,0.00098
1436.92304,0.00100
1435.95866,0.00102
1434.99429,0.00103
1434.02991,0.00104
1433.06553,0.00105
1432.10115,0.00106
1431.13677,0.00106
1430.17240,0.00106
1429.20802,0.00106
1428.24364,0.00107
1427.27926,0.00109
1426.31488,0.00111
1425.35051,0.00112
1424.38613,0.00112
1423.42175,0.00110
1422.45737,0.00109
1421.49300,0.00108
1420.52862,0.00106
1419.56424,0.00105
1418.59986,0.00104
1417.63548,0.00104
1416.67111,0.00106
1415.70673,0.00108
1414.74235,0.00110
1413.77797,0.00113
1412.81359,0.00114
1411.84922,0.00115
1410.88484,0.00115
1409.92046,0.00113
1408.95608,0.00112
1407.99171,0.00111
1407.02733,0.00110
1406.06295,0.00110
1405.09857,0.00110
1404.13419,0.00110
1403.16982,0.00109
1402.20544,0.00107
1401.24106,0.00105
1400.27668,0.00103
1399.31230,0.00100
1398.34793,0.00097
1397.38355,0.00096
1396.41917,0.00096
1395.45479,0.00097
1394.49041,0.00099
1393.52604,0.00100
1392.56166,0.00099
1391.59728,0.00097
1390.63290,0.00095
1389.66853,0.00094
1388.70415,0.00094
1387.73977,0.00094
1386.77539,0.00094
1385.81101,0.00094
1384.84664,0.00094
1383.88226,0.00094
1382.91788,0.00094
1381.95350,0.00093
1380.98912,0.00091
1380.02475,0.00089
1379.06037,0.00087
1378.09599,0.00086
1377.13161,0.00086
1376.16724,0.00086
1375.20286,0.00087
1374.23848,0.00087
1373.27410,0.00087
1372.30972,0.00086
1371.34535,0.00086
1370.38097,0.00087
1369.41659,0.00087
1368.45221,0.00088
1367.48783,0.00088
1366.52346,0.00088
1365.55908,0.00089
1364.59470,0.00090
1363.63032,0.00090
1362.66594,0.00089
1361.70157,0.00087
1360.73719,0.00085
1359.77281,0.00082
1358.80843,0.00080
1357.84406,0.00077
1356.87968,0.00075
1355.91530,0.00073
1354.95092,0.00072
1353.98654,0.00072
1353.02217,0.00073
1352.05779,0.00075
1351.09341,0.00076
1350.12903,0.00077
1349.16465,0.00078
1348.20028,0.00078
1347.23590,0.00078
1346.27152,0.00079
1345.30714,0.00080
1344.34276,0.00080
1343.37839,0.00080
1342.41401,0.00080
1341.44963,0.00080
1340.48525,0.00079
1339.52088,0.00077
1338.55650,0.00076
1337.59212,0.00075
1336.62774,0.00075
1335.66336,0.00075
1334.69899,0.00075
1333.73461,0.00075
1332.77023,0.00074
1331.80585,0.00073
1330.84147,0.00071
1329.87710,0.00068
1328.91272,0.00066
1327.94834,0.00065
1326.98396,0.00064
1326.01959,0.00064
1325.05521,0.00063
1324.09083,0.00063
1323.12645,0.00063
1322.16207,0.00063
1321.19770,0.00064
1320.23332,0.00064
1319.26894,0.00065
1318.30456,0.00066
1317.34018,0.00067
1316.37581,0.00068
1315.41143,0.00068
1314.44705,0.00068
1313.48267,0.00067
1312.51829,0.00066
1311.55392,0.00065
1310.58954,0.00065
1309.62516,0.00065
1308.66078,0.00065
1307.69641,0.00064
1306.73203,0.00063
1305.76765,0.00062
1304.80327,0.00061
1303.83889,0.00060
1302.87452,0.00059
1301.91014,0.00057
1300.94576,0.00056
1299.98138,0.00055
1299.01700,0.00056
1298.05263,0.00057
1297.08825,0.00058
1296.12387,0.00057
1295.15949,0.00058
1294.19512,0.00059
1293.23074,0.00061
1292.26636,0.00062
1291.30198,0.00063
1290.33760,0.00063
1289.37323,0.00063
1288.40885,0.00063
1287.44447,0.00063
1286.48009,0.00062
1285.51571,0.00062
1284.55134,0.00061
1283.58696,0.00062
1282.62258,0.00062
1281.65820,0.00063
1280.69382,0.00063
1279.72945,0.00063
1278.76507,0.00063
1277.80069,0.00062
1276.83631,0.00061
1275.87194,0.00060
1274.90756,0.00059
1273.94318,0.00058
1272.97880,0.00059
1272.01442,0.00059
1271.05005,0.00058
1270.08567,0.00058
1269.12129,0.00059
1268.15691,0.00058
1267.19253,0.00057
1266.22816,0.00056
1265.26378,0.00056
1264.29940,0.00056
1263.33502,0.00056
1262.37065,0.00058
1261.40627,0.00059
1260.44189,0.00059
1259.47751,0.00061
1258.51313,0.00063
1257.54876,0.00064
1256.58438,0.00063
1255.62000,0.00061
1254.65562,0.00058
1253.69124,0.00056
1252.72687,0.00054
1251.76249,0.00054
1250.79811,0.00054
1249.83373,0.00054
1248.86935,0.00055
1247.90498,0.00057
1246.94060,0.00059
1245.97622,0.00059
1245.01184,0.00058
1244.04747,0.00057
1243.08309,0.00056
1242.11871,0.00056
1241.15433,0.00055
1240.18995,0.00055
1239.22558,0.00056
1238.26120,0.00057
1237.29682,0.00060
1236.33244,0.00062
1235.36806,0.00064
1234.40369,0.00066
1233.43931,0.00067
1232.47493,0.00067
1231.51055,0.00067
1230.54618,0.00064
1229.58180,0.00061
1228.61742,0.00057
1227.65304,0.00054
1226.68866,0.00052
1225.72429,0.00050
1224.75991,0.00049
1223.79553,0.00049
1222.83115,0.00050
1221.86677,0.00050
1220.90240,0.00051
1219.93802,0.00051
1218.97364,0.00051
1218.00926,0.00052
1217.04488,0.00051
1216.08051,0.00050
1215.11613,0.00049
1214.15175,0.00049
1213.18737,0.00049
1212.22300,0.00050
1211.25862,0.00052
1210.29424,0.00053
1209.32986,0.00053
1208.36548,0.00055
1207.40111,0.00057
1206.43673,0.00059
1205.47235,0.00060
1204.50797,0.00060
1203.54359,0.00060
1202.57922,0.00059
1201.61484,0.00059
1200.65046,0.00059
1199.68608,0.00059
1198.72171,0.00059
1197.75733,0.00059
1196.79295,0.00059
1195.82857,0.00060
1194.86419,0.00060
1193.89982,0.00059
1192.93544,0.00058
1191.97106,0.00056
1191.00668,0.00055
1190.04230,0.00055
1189.07793,0.00054
1188.11355,0.00053
1187.14917,0.00053
1186.18479,0.00052
1185.22041,0.00053
1184.25604,0.00053
1183.29166,0.00053
1182.32728,0.00054
1181.36290,0.00054
1180.39853,0.00055
1179.43415,0.00056
1178.46977,0.00056
1177.50539,0.00055
1176.54101,0.00054
1175.57664,0.00054
1174.61226,0.00055
1173.64788,0.00056
1172.68350,0.00057
1171.71912,0.00057
1170.75475,0.00057
1169.79037,0.00059
1168.82599,0.00061
1167.86161,0.00063
1166.89724,0.00065
1165.93286,0.00066
1164.96848,0.00067
1164.00410,0.00067
1163.03972,0.00067
1162.07535,0.00066
1161.11097,0.00063
1160.14659,0.00060
1159.18221,0.00059
1158.21783,0.00057
1157.25346,0.00056
1156.28908,0.00055
1155.32470,0.00054
1154.36032,0.00055
1153.39594,0.00055
1152.43157,0.00057
1151.46719,0.00058
1150.50281,0.00059
1149.53843,0.00060
1148.57406,0.00062
1147.60968,0.00064
1146.64530,0.00064
1145.68092,0.00065
1144.71654,0.00066
1143.75217,0.00067
1142.78779,0.00067
1141.82341,0.00066
1140.85903,0.00064
1139.89465,0.00062
1138.93028,0.00060
1137.96590,0.00058
1137.00152,0.00057
1136.03714,0.00057
1135.07276,0.00059
1134.10839,0.00063
1133.14401,0.00066
1132.17963,0.00068
1131.21525,0.00067
1130.25088,0.00066
1129.28650,0.00066
1128.32212,0.00066
1127.35774,0.00065
1126.39336,0.00063
1125.42899,0.00061
1124.46461,0.00061
1123.50023,0.00060
1122.53585,0.00059
1121.57147,0.00057
1120.60710,0.00055
1119.64272,0.00055
1118.67834,0.00058
1117.71396,0.00062
1116.74959,0.00065
1115.78521,0.00067
1114.82083,0.00069
1113.85645,0.00071
1112.89207,0.00074
1111.92770,0.00075
1110.96332,0.00075
1109.99894,0.00075
1109.03456,0.00075
1108.07018,0.00075
1107.10581,0.00076
1106.14143,0.00076
1105.17705,0.00076
1104.21267,0.00075
1103.24829,0.00074
1102.28392,0.00075
1101.31954,0.00076
1100.35516,0.00077
1099.39078,0.00077
1098.42641,0.00076
1097.46203,0.00075
1096.49765,0.00075
1095.53327,0.00076
1094.56889,0.00076
1093.60452,0.00075
1092.64014,0.00071
1091.67576,0.00067
1090.71138,0.00063
1089.74700,0.00061
1088.78263,0.00059
1087.81825,0.00059
1086.85387,0.00060
1085.88949,0.00061
1084.92512,0.00063
1083.96074,0.00066
1082.99636,0.00067
1082.03198,0.00068
1081.06760,0.00068
1080.10323,0.00069
1079.13885,0.00069
1078.17447,0.00069
1077.21009,0.00070
1076.24571,0.00071
1075.28134,0.00073
1074.31696,0.00075
1073.35258,0.00076
1072.38820,0.00077
1071.42382,0.00076
1070.45945,0.00075
1069.49507,0.00076
1068.53069,0.00078
1067.56631,0.00080
1066.60194,0.00081
1065.63756,0.00082
1064.67318,0.00082
1063.70880,0.00085
1062.74442,0.00088
1061.78005,0.00089
1060.81567,0.00087
1059.85129,0.00084
1058.88691,0.00080
1057.92253,0.00078
1056.95816,0.00077
1055.99378,0.00076
1055.02940,0.00075
1054.06502,0.00075
1053.10065,0.00076
1052.13627,0.00078
1051.17189,0.00081
1050.20751,0.00082
1049.24313,0.00083
1048.27876,0.00082
1047.31438,0.00081
1046.35000,0.00081
1045.38562,0.00082
1044.42124,0.00083
1043.45687,0.00083
1042.49249,0.00083
1041.52811,0.00081
1040.56373,0.00078
1039.59935,0.00076
1038.63498,0.00075
1037.67060,0.00073
1036.70622,0.00071
1035.74184,0.00070
1034.77747,0.00073
1033.81309,0.00078
1032.84871,0.00083
1031.88433,0.00088
1030.91995,0.00091
1029.95558,0.00092
1028.99120,0.00094
1028.02682,0.00096
1027.06244,0.00098
1026.09806,0.00098
1025.13369,0.00097
1024.16931,0.00096
1023.20493,0.00094
1022.24055,0.00093
1021.27618,0.00092
1020.31180,0.00093
1019.34742,0.00094
1018.38304,0.00096
1017.41866,0.00097
1016.45429,0.00099
1015.48991,0.00101
1014.52553,0.00103
1013.56115,0.00103
1012.59677,0.00103
1011.63240,0.00101
1010.66802,0.00101
1009.70364,0.00103
1008.73926,0.00105
1007.77488,0.00107
1006.81051,0.00107
1005.84613,0.00104
1004.88175,0.00101
1003.91737,0.00098
1002.95300,0.00095
1001.98862,0.00092
1001.02424,0.00089
1000.05986,0.00089
999.09548,0.00091
998.13111,0.00095
997.16673,0.00099
996.20235,0.00102
995.23797,0.00103
994.27359,0.00103
993.30922,0.00100
992.34484,0.00096
991.38046,0.00092
990.41608,0.00088
989.45171,0.00086
988.48733,0.00085
987.52295,0.00087
986.55857,0.00089
985.59419,0.00092
984.62982,0.00094
983.66544,0.00095
982.70106,0.00096
981.73668,0.00095
980.77230,0.00093
979.80793,0.00089
978.84355,0.00086
977.87917,0.00081
976.91479,0.00078
975.95041,0.00077
974.98604,0.00077
974.02166,0.00079
973.05728,0.00082
972.09290,0.00085
971.12853,0.00087
970.16415,0.00088
969.19977,0.00088
968.23539,0.00087
967.27101,0.00083
966.30664,0.00077
965.34226,0.00072
964.37788,0.00070
963.41350,0.00070
962.44912,0.00071
961.48475,0.00074
960.52037,0.00076
959.55599,0.00077
958.59161,0.00078
957.62724,0.00080
956.66286,0.00081
955.69848,0.00078
954.73410,0.00074
953.76972,0.00068
952.80535,0.00064
951.84097,0.00062
950.87659,0.00061
949.91221,0.00062
948.94783,0.00061
947.98346,0.00059
947.01908,0.00059
946.05470,0.00059
945.09032,0.00059
944.12594,0.00057
943.16157,0.00053
942.19719,0.00049
941.23281,0.00047
940.26843,0.00048
939.30406,0.00050
938.33968,0.00052
937.37530,0.00053
936.41092,0.00054
935.44654,0.00056
934.48217,0.00059
933.51779,0.00060
932.55341,0.00059
931.58903,0.00054
930.62465,0.00049
929.66028,0.00045
928.69590,0.00044
927.73152,0.00047
926.76714,0.00050
925.80276,0.00054
924.83839,0.00059
923.87401,0.00064
922.90963,0.00068
921.94525,0.00067
920.98088,0.00061
920.01650,0.00052
919.05212,0.00044
918.08774,0.00039
917.12336,0.00037
916.15899,0.00038
915.19461,0.00039
914.23023,0.00041
913.26585,0.00045
912.30147,0.00052
911.33710,0.00057
910.37272,0.00060
909.40834,0.00061
908.44396,0.00062
907.47959,0.00062
906.51521,0.00061
905.55083,0.00060
904.58645,0.00058
903.62207,0.00055
902.65770,0.00052
901.69332,0.00049
900.72894,0.00048
899.76456,0.00049
898.80018,0.00052
897.83581,0.00056
896.87143,0.00057
895.90705,0.00055
894.94267,0.00051
893.97829,0.00048
893.01392,0.00048
892.04954,0.00049
891.08516,0.00049
890.12078,0.00051
889.15641,0.00054
888.19203,0.00058
887.22765,0.00061
886.26327,0.00063
885.29889,0.00062
884.33452,0.00059
883.37014,0.00057
882.40576,0.00058
881.44138,0.00062
880.47700,0.00066
879.51263,0.00071
878.54825,0.00076
877.58387,0.00080
876.61949,0.00082
875.65512,0.00082
874.69074,0.00081
873.72636,0.00078
872.76198,0.00075
871.79760,0.00074
870.83323,0.00071
869.86885,0.00065
868.90447,0.00055
867.94009,0.00045
866.97571,0.00038
866.01134,0.00036
865.04696,0.00035
864.08258,0.00036
863.11820,0.00038
862.15382,0.00042
861.18945,0.00047
860.22507,0.00054
859.26069,0.00059
858.29631,0.00060
857.33194,0.00057
856.36756,0.00054
855.40318,0.00052
854.43880,0.00050
853.47442,0.00047
852.51005,0.00044
851.54567,0.00040
850.58129,0.00037
849.61691,0.00038
848.65253,0.00042
847.68816,0.00047
846.72378,0.00051
845.75940,0.00055
844.79502,0.00059
843.83065,0.00061
842.86627,0.00060
841.90189,0.00057
840.93751,0.00053
839.97313,0.00049
839.00876,0.00046
838.04438,0.00043
837.08000,0.00042
836.11562,0.00042
835.15124,0.00042
834.18687,0.00043
833.22249,0.00044
832.25811,0.00042
831.29373,0.00039
830.32935,0.00037
829.36498,0.00037
828.40060,0.00035
827.43622,0.00033
826.47184,0.00032
825.50747,0.00033
824.54309,0.00033
823.57871,0.00033
822.61433,0.00030
821.64995,0.00028
820.68558,0.00027
819.72120,0.00031
818.75682,0.00038
817.79244,0.00046
816.82806,0.00053
815.86369,0.00060
814.89931,0.00067
813.93493,0.00070
812.97055,0.00069
812.00618,0.00063
811.04180,0.00054
810.07742,0.00045
809.11304,0.00038
808.14866,0.00033
807.18429,0.00031
806.21991,0.00032
805.25553,0.00034
804.29115,0.00038
803.32677,0.00041
802.36240,0.00042
801.39802,0.00043
800.43364,0.00045
799.46926,0.00046
798.50488,0.00043
797.54051,0.00037
796.57613,0.00030
795.61175,0.00024
794.64737,0.00021
793.68300,0.00019
792.71862,0.00018
791.75424,0.00018
790.78986,0.00021
789.82548,0.00026
788.86111,0.00031
787.89673,0.00035
786.93235,0.00038
785.96797,0.00040
785.00359,0.00041
784.03922,0.00042
783.07484,0.00043
782.11046,0.00044
781.14608,0.00044
780.18171,0.00045
779.21733,0.00046
778.25295,0.00044
777.28857,0.00040
776.32419,0.00036
775.35982,0.00034
774.39544,0.00033
773.43106,0.00032
772.46668,0.00031
771.50230,0.00029
770.53793,0.00029
769.57355,0.00031
768.60917,0.00035
767.64479,0.00040
766.68041,0.00042
765.71604,0.00041
764.75166,0.00038
763.78728,0.00034
762.82290,0.00030
761.85853,0.00026
760.89415,0.00021
759.92977,0.00016
758.96539,0.00013
758.00101,0.00015
757.03664,0.00020
756.07226,0.00027
755.10788,0.00037
754.14350,0.00047
753.17912,0.00052
752.21475,0.00053
751.25037,0.00052
750.28599,0.00047
749.32161,0.00041
748.35724,0.00035
747.39286,0.00033
746.42848,0.00033
745.46410,0.00034
744.49972,0.00040
743.53535,0.00049
742.57097,0.00057
741.60659,0.00061
740.64221,0.00063
739.67783,0.00062
738.71346,0.00057
737.74908,0.00053
736.78470,0.00050
735.82032,0.00047
734.85594,0.00041
733.89157,0.00038
732.92719,0.00038
731.96281,0.00040
730.99843,0.00042
730.03406,0.00044
729.06968,0.00046
728.10530,0.00047
727.14092,0.00048
726.17654,0.00049
725.21217,0.00048
724.24779,0.00046
723.28341,0.00046
722.31903,0.00046
721.35465,0.00045
720.39028,0.00042
719.42590,0.00040
718.46152,0.00042
717.49714,0.00045
716.53276,0.00048
715.56839,0.00049
714.60401,0.00050
713.63963,0.00052
712.67525,0.00055
711.71088,0.00058
710.74650,0.00056
709.78212,0.00052
708.81774,0.00048
707.85336,0.00048
706.88899,0.00048
705.92461,0.00046
704.96023,0.00044
703.99585,0.00041
703.03147,0.00039
702.06710,0.00039
701.10272,0.00041
700.13834,0.00044
699.17396,0.00046
698.20959,0.00050
697.24521,0.00054
696.28083,0.00059
695.31645,0.00062
694.35207,0.00064
693.38770,0.00065
692.42332,0.00066
691.45894,0.00065
690.49456,0.00065
689.53018,0.00064
688.56581,0.00063
687.60143,0.00060
686.63705,0.00055
685.67267,0.00051
684.70829,0.00046
683.74392,0.00043
682.77954,0.00042
681.81516,0.00042
680.85078,0.00044
679.88641,0.00045
678.92203,0.00047
677.95765,0.00048
676.99327,0.00049
676.02889,0.00051
675.06452,0.00052
674.10014,0.00053
673.13576,0.00058
672.17138,0.00068
671.20700,0.00080
670.24263,0.00090
669.27825,0.00098
668.31387,0.00103
667.34949,0.00103
666.38512,0.00099
665.42074,0.00089
664.45636,0.00076
663.49198,0.00062
662.52760,0.00050
661.56323,0.00043
660.59885,0.00039
659.63447,0.00036
658.67009,0.00035
657.70571,0.00039
656.74134,0.00046
655.77696,0.00053
654.81258,0.00056
653.84820,0.00058
652.88382,0.00060
651.91945,0.00063
650.95507,0.00065
649.99069,0.00066
649.02631,0.00068
648.06194,0.00069
647.09756,0.00068
646.13318,0.00055
645.16880,0.00035
644.20442,0.00063
643.24005,0.00194
642.27567,0.00403
641.31129,0.00615
640.34691,0.00777
639.38253,0.00876
638.41816,0.00909
637.45378,0.00873
636.48940,0.00766
635.52502,0.00597
634.56065,0.00383
633.59627,0.00180
632.63189,0.00063
631.66751,0.00054
630.70313,0.00086
629.73876,0.00096
628.77438,0.00078
627.81000,0.00053
626.84562,0.00027
625.88124,-0.00018
624.91687,-0.00086
623.95249,-0.00154
622.98811,-0.00188
622.02373,-0.00167
621.05935,-0.00091
620.09498,0.00009
619.13060,0.00099
618.16622,0.00185
617.20184,0.00283
616.23747,0.00377
615.27309,0.00454
614.30871,0.00490
613.34433,0.00459
612.37995,0.00387
611.41558,0.00317
610.45120,0.00263
609.48682,0.00227
608.52244,0.00195
607.55806,0.00158
606.59369,0.00133
605.62931,0.00120
604.66493,0.00106
603.70055,0.00109
602.73618,0.00113
601.77180,0.00087
600.80742,0.00048
599.84304,0.00021
598.87866,0.00007
597.91429,0.00014
596.94991,0.00033
595.98553,0.00050
595.02115,0.00058
594.05677,0.00061
593.09240,0.00071
592.12802,0.00089
591.16364,0.00107
590.19926,0.00115
589.23488,0.00115
588.27051,0.00112
587.30613,0.00107
586.34175,0.00103
585.37737,0.00100
584.41300,0.00096
583.44862,0.00091
582.48424,0.00086
581.51986,0.00084
580.55548,0.00085
579.59111,0.00082
578.62673,0.00070
577.66235,0.00053
576.69797,0.00042
575.73359,0.00042
574.76922,0.00047
573.80484,0.00056
572.84046,0.00064
571.87608,0.00068
570.91171,0.00069
569.94733,0.00072
568.98295,0.00077
568.01857,0.00079
567.05419,0.00077
566.08982,0.00072
565.12544,0.00066
564.16106,0.00061
563.19668,0.00060
562.23230,0.00060
561.26793,0.00059
560.30355,0.00053
559.33917,0.00046
558.37479,0.00040
557.41041,0.00037
556.44604,0.00039
555.48166,0.00048
554.51728,0.00059
553.55290,0.00063
552.58853,0.00064
551.62415,0.00064
550.65977,0.00064
549.69539,0.00060
548.73101,0.00055
547.76664,0.00048
546.80226,0.00042
545.83788,0.00040
544.87350,0.00044
543.90912,0.00053
542.94475,0.00055
541.98037,0.00049
541.01599,0.00038
540.05161,0.00025
539.08724,0.00014
538.12286,0.00007
537.15848,0.00007
536.19410,0.00011
535.22972,0.00015
534.26535,0.00022
533.30097,0.00030
532.33659,0.00036
531.37221,0.00043
530.40783,0.00050
529.44346,0.00059
528.47908,0.00067
527.51470,0.00076
526.55032,0.00088
525.58594,0.00100
524.62157,0.00106
523.65719,0.00099
522.69281,0.00085
521.72843,0.00072
520.76406,0.00061
519.79968,0.00052
518.83530,0.00049
517.87092,0.00050
516.90654,0.00055
515.94217,0.00062
514.97779,0.00072
514.01341,0.00080
513.04903,0.00078
512.08465,0.00066
511.12028,0.00055
510.15590,0.00050
509.19152,0.00047
508.22714,0.00043
507.26276,0.00038
506.29839,0.00033
505.33401,0.00032
504.36963,0.00039
503.40525,0.00052
502.44088,0.00063
501.47650,0.00071
500.51212,0.00079
499.54774,0.00088
498.58336,0.00097
497.61899,0.00101
496.65461,0.00096
495.69023,0.00084
494.72585,0.00071
493.76147,0.00064
492.79710,0.00062
491.83272,0.00059
490.86834,0.00056
489.90396,0.00055
488.93959,0.00057
487.97521,0.00057
487.01083,0.00054
486.04645,0.00047
485.08207,0.00040
484.11770,0.00036
483.15332,0.00033
482.18894,0.00032
481.22456,0.00036
480.26018,0.00046
479.29581,0.00062
478.33143,0.00080
477.36705,0.00092
476.40267,0.00095
475.43829,0.00092
474.47392,0.00086
473.50954,0.00077
472.54516,0.00067
471.58078,0.00054
470.61641,0.00042
469.65203,0.00036
468.68765,0.00036
467.72327,0.00040
466.75889,0.00044
465.79452,0.00047
464.83014,0.00053
463.86576,0.00061
462.90138,0.00068
461.93700,0.00069
460.97263,0.00067
460.00825,0.00067
459.04387,0.00067
458.07949,0.00064
457.11512,0.00064
456.15074,0.00067
455.18636,0.00070
454.22198,0.00071
453.25760,0.00069
452.29323,0.00065
451.32885,0.00058
450.36447,0.00047
449.40009,0.00039
448.43571,0.00039
447.47134,0.00047
446.50696,0.00059
445.54258,0.00073
444.57820,0.00086
443.61382,0.00095
442.64945,0.00099
441.68507,0.00097
440.72069,0.00090
439.75631,0.00078
438.79194,0.00067
437.82756,0.00057
436.86318,0.00051
435.89880,0.00047
434.93442,0.00044
433.97005,0.00043
433.00567,0.00045
432.04129,0.00052
431.07691,0.00060
430.11253,0.00068
429.14816,0.00076
428.18378,0.00080
427.21940,0.00078
426.25502,0.00071
425.29065,0.00060
424.32627,0.00047
423.36189,0.00034
422.39751,0.00025
421.43313,0.00019
420.46876,0.00017
419.50438,0.00018
418.54000,0.00026
417.57562,0.00037
416.61124,0.00044
415.64687,0.00045
414.68249,0.00044
413.71811,0.00044
412.75373,0.00046
411.78935,0.00049
410.82498,0.00049
409.86060,0.00046
408.89622,0.00043
407.93184,0.00044
406.96747,0.00049
406.00309,0.00052
405.03871,0.00049
404.07433,0.00042
403.10995,0.00036
402.14558,0.00035
401.18120,0.00036
400.21682,0.00035
399.25244,0.00029
398.28806,0.00020
397.32369,0.00014
396.35931,0.00010
395.39493,0.00010
394.43055,0.00014
393.46618,0.00024
392.50180,0.00040
391.53742,0.00056
390.57304,0.00069
389.60866,0.00077
388.64429,0.00077
387.67991,0.00070
386.71553,0.00059
385.75115,0.00049
384.78677,0.00041
383.82240,0.00039
382.85802,0.00045
381.89364,0.00056
380.92926,0.00068
379.96488,0.00079
379.00051,0.00085
378.03613,0.00084
377.07175,0.00076
376.10737,0.00064
375.14300,0.00052
374.17862,0.00042
373.21424,0.00034
372.24986,0.00028
371.28548,0.00027
370.32111,0.00029
369.35673,0.00032
368.39235,0.00038
367.42797,0.00043
366.46359,0.00043
365.49922,0.00041
364.53484,0.00041
363.57046,0.00045
362.60608,0.00047
361.64171,0.00051
360.67733,0.00059
359.71295,0.00066
358.74857,0.00066
357.78419,0.00063
356.81982,0.00061
355.85544,0.00062
354.89106,0.00057
353.92668,0.00048
352.96230,0.00039
351.99793,0.00035
351.03355,0.00035
350.06917,0.00040
349.10479,0.00047
348.14041,0.00047
347.17604,0.00046
346.21166,0.00050
345.24728,0.00058
344.28290,0.00065
343.31853,0.00065
342.35415,0.00060
341.38977,0.00056
340.42539,0.00060
339.46101,0.00068
338.49664,0.00076
337.53226,0.00078
336.56788,0.00076
335.60350,0.00074
334.63912,0.00076
333.67475,0.00077
332.71037,0.00075
331.74599,0.00070
330.78161,0.00066
329.81724,0.00066
328.85286,0.00068
327.88848,0.00069
326.92410,0.00073
325.95972,0.00083
324.99535,0.00103
324.03097,0.00130
323.06659,0.00155
322.10221,0.00172
321.13783,0.00184
320.17346,0.00193
319.20908,0.00197
318.24470,0.00197
317.28032,0.00196
316.31594,0.00191
315.35157,0.00184
314.38719,0.00181
313.42281,0.00185
312.45843,0.00188
311.49406,0.00179
310.52968,0.00164
309.56530,0.00150
308.60092,0.00142
307.63654,0.00141
306.67217,0.00148
305.70779,0.00162
304.74341,0.00176
303.77903,0.00185
302.81465,0.00194
301.85028,0.00202
300.88590,0.00204
299.92152,0.00199
298.95714,0.00187
297.99276,0.00171
297.02839,0.00159
296.06401,0.00155
295.09963,0.00156
294.13525,0.00161
293.17088,0.00168
292.20650,0.00175
291.24212,0.00184
290.27774,0.00193
289.31336,0.00200
288.34899,0.00199
287.38461,0.00184
286.42023,0.00158
285.45585,0.00136
284.49147,0.00126
283.52710,0.00124
282.56272,0.00122
281.59834,0.00116
280.63396,0.00116
279.66959,0.00128
278.70521,0.00148
277.74083,0.00165
276.77645,0.00170
275.81207,0.00166
274.84770,0.00163
273.88332,0.00166
272.91894,0.00169
271.95456,0.00162
270.99018,0.00148
270.02581,0.00134
269.06143,0.00130
268.09705,0.00131
267.13267,0.00133
266.16829,0.00135
265.20392,0.00135
264.23954,0.00135
263.27516,0.00133
262.31078,0.00127
261.34641,0.00114
260.38203,0.00101
259.41765,0.00096
258.45327,0.00099
257.48889,0.00102
256.52452,0.00104
255.56014,0.00110
254.59576,0.00119
253.63138,0.00116
252.66700,0.00098
251.70263,0.00073
250.73825,0.00054
249.77387,0.00047
248.80949,0.00046
247.84512,0.00050
246.88074,0.00057
245.91636,0.00069
244.95198,0.00089
243.98760,0.00115
243.02323,0.00136
242.05885,0.00141
241.09447,0.00137
240.13009,0.00138
239.16571,0.00151
238.20134,0.00158
237.23696,0.00144
236.27258,0.00112
235.30820,0.00076
234.34382,0.00046
233.37945,0.00026
232.41507,0.00014
231.45069,0.00009
230.48631,0.00020
229.52194,0.00043
228.55756,0.00075
227.59318,0.00112
226.62880,0.00129
225.66442,0.00109
224.70005,0.00063
223.73567,0.00016
222.77129,-0.00020
221.80691,-0.00045
220.84253,-0.00066
219.87816,-0.00072
218.91378,-0.00053
217.94940,-0.00014
216.98502,0.00041
216.02065,0.00105
215.05627,0.00148
214.09189,0.00161
213.12751,0.00171
212.16313,0.00190
211.19876,0.00200
210.23438,0.00191
209.27000,0.00169
208.30562,0.00155
207.34124,0.00148
206.37687,0.00136
205.41249,0.00123
204.44811,0.00116
203.48373,0.00105
202.51935,0.00095
201.55498,0.00100
200.59060,0.00109
199.62622,0.00118
198.66184,0.00129
197.69747,0.00150
196.73309,0.00189
195.76871,0.00237
194.80433,0.00278
193.83995,0.00309
192.87558,0.00339
191.91120,0.00372
190.94682,0.00408
189.98244,0.00439
189.01806,0.00463
188.05369,0.00484
187.08931,0.00502
186.12493,0.00533
185.16055,0.00596
184.19618,0.00676
183.23180,0.00741
182.26742,0.00797
181.30304,0.00887
180.33866,0.01027
179.37429,0.01188
178.40991,0.01336
177.44553,0.01468
176.48115,0.01596
175.51677,0.01702
174.55240,0.01758
173.58802,0.01760
172.62364,0.01709
171.65926,0.01626
170.69488,0.01527
169.73051,0.01411
168.76613,0.01278
167.80175,0.01143
166.83737,0.01018
165.87300,0.00899
164.90862,0.00780
163.94424,0.00662
162.97986,0.00559
162.01548,0.00477
161.05111,0.00431
160.08673,0.00437
159.12235,0.00463
158.15797,0.00457
157.19359,0.00408
156.22922,0.00358
155.26484,0.00340
154.30046,0.00326
153.33608,0.00304
152.37171,0.00301
151.40733,0.00317
150.44295,0.00324
149.47857,0.00333
148.51419,0.00360
147.54982,0.00379
146.58544,0.00340
145.62106,0.00243
144.65668,0.00152
143.69230,0.00098
142.72793,0.00046
141.76355,-0.00006
140.79917,-0.00042
139.83479,-0.00064
138.87041,-0.00071
137.90604,-0.00072
136.94166,-0.00084
135.97728,-0.00109
135.01290,-0.00147
134.04853,-0.00196
133.08415,-0.00235
132.11977,-0.00261
131.15539,-0.00278
130.19101,-0.00277
129.22664,-0.00262
128.26226,-0.00245
127.29788,-0.00221
126.33350,-0.00176
125.36912,-0.00114
124.40475,-0.00052
123.44037,-0.00014
122.47599,-0.00007
121.51161,-0.00027
120.54724,-0.00060
119.58286,-0.00091
118.61848,-0.00114
117.65410,-0.00132
116.68972,-0.00122
115.72535,-0.00066
114.76097,0.00011
113.79659,0.00074
112.83221,0.00120
111.86783,0.00168
110.90346,0.00195
109.93908,0.00142
108.97470,0.00031
108.01032,-0.00064
107.04594,-0.00121
106.08157,-0.00173
105.11719,-0.00240
104.15281,-0.00240
103.18843,-0.00240
102.22406,-0.00240
101.25968,-0.00240
100.29530,-0.00240
99.33092,-0.00240
