3998.31069,0.29207
3997.34631,0.29218
3996.38194,0.29235
3995.41756,0.29198
3994.45318,0.29143
3993.48880,0.29135
3992.52442,0.29208
3991.56005,0.29246
3990.59567,0.29204
3989.63129,0.29189
3988.66691,0.29233
3987.70253,0.29259
3986.73816,0.29181
3985.77378,0.29135
3984.80940,0.29161
3983.84502,0.29135
3982.88065,0.29119
3981.91627,0.29204
3980.95189,0.29281
3979.98751,0.29241
3979.02313,0.29207
3978.05876,0.29216
3977.09438,0.29226
3976.13000,0.29233
3975.16562,0.29181
3974.20124,0.29133
3973.23687,0.29129
3972.27249,0.29112
3971.30811,0.29126
3970.34373,0.29200
3969.37935,0.29194
3968.41498,0.29124
3967.45060,0.29147
3966.48622,0.29154
3965.52184,0.29152
3964.55747,0.29223
3963.59309,0.29238
3962.62871,0.29215
3961.66433,0.29174
3960.69995,0.29084
3959.73558,0.29082
3958.77120,0.29162
3957.80682,0.29238
3956.84244,0.29284
3955.87806,0.29253
3954.91369,0.29224
3953.94931,0.29217
3952.98493,0.29194
3952.02055,0.29195
3951.05618,0.29206
3950.09180,0.29218
3949.12742,0.29222
3948.16304,0.29207
3947.19866,0.29159
3946.23429,0.29146
3945.26991,0.29201
3944.30553,0.29199
3943.34115,0.29236
3942.37677,0.29292
3941.41240,0.29230
3940.44802,0.29178
3939.48364,0.29178
3938.51926,0.29206
3937.55488,0.29233
3936.59051,0.29232
3935.62613,0.29239
3934.66175,0.29255
3933.69737,0.29278
3932.73300,0.29280
3931.76862,0.29245
3930.80424,0.29217
3929.83986,0.29192
3928.87548,0.29175
3927.91111,0.29219
3926.94673,0.29235
3925.98235,0.29196
3925.01797,0.29200
3924.05359,0.29227
3923.08922,0.29263
3922.12484,0.29264
3921.16046,0.29214
3920.19608,0.29144
3919.23171,0.29154
3918.26733,0.29256
3917.30295,0.29206
3916.33857,0.29126
3915.37419,0.29167
3914.40982,0.29183
3913.44544,0.29187
3912.48106,0.29191
3911.51668,0.29225
3910.55230,0.29195
3909.58793,0.29113
3908.62355,0.29153
3907.65917,0.29200
3906.69479,0.29183
3905.73041,0.29129
3904.76604,0.29130
3903.80166,0.29212
3902.83728,0.29206
3901.87290,0.29134
3900.90853,0.29120
3899.94415,0.29182
3898.97977,0.29211
3898.01539,0.29184
3897.05101,0.29158
3896.08664,0.29126
3895.12226,0.29131
3894.15788,0.29180
3893.19350,0.29240
3892.22912,0.29233
3891.26475,0.29151
3890.30037,0.29100
3889.33599,0.29124
3888.37161,0.29197
3887.40724,0.29196
3886.44286,0.29158
3885.47848,0.29164
3884.51410,0.29177
3883.54972,0.29175
3882.58535,0.29162
3881.62097,0.29175
3880.65659,0.29170
3879.69221,0.29182
3878.72783,0.29188
3877.76346,0.29137
3876.79908,0.29134
3875.83470,0.29117
3874.87032,0.29096
3873.90594,0.29112
3872.94157,0.29109
3871.97719,0.29103
3871.01281,0.29114
3870.04843,0.29161
3869.08406,0.29136
3868.11968,0.29094
3867.15530,0.29126
3866.19092,0.29133
3865.22654,0.29114
3864.26217,0.29093
3863.29779,0.29118
3862.33341,0.29133
3861.36903,0.29102
3860.40465,0.29111
3859.44028,0.29143
3858.47590,0.29191
3857.51152,0.29185
3856.54714,0.29124
3855.58276,0.29118
3854.61839,0.29151
3853.65401,0.29156
3852.68963,0.29135
3851.72525,0.29133
3850.76088,0.29131
3849.79650,0.29146
3848.83212,0.29130
3847.86774,0.29048
3846.90336,0.29022
3845.93899,0.29037
3844.97461,0.29068
3844.01023,0.29095
3843.04585,0.29074
3842.08147,0.29072
3841.11710,0.29063
3840.15272,0.29065
3839.18834,0.29097
3838.22396,0.29099
3837.25959,0.29113
3836.29521,0.29106
3835.33083,0.29069
3834.36645,0.29083
3833.40207,0.29094
3832.43770,0.29048
3831.47332,0.29047
3830.50894,0.29077
3829.54456,0.29027
3828.58018,0.28981
3827.61581,0.28997
3826.65143,0.29021
3825.68705,0.29038
3824.72267,0.29025
3823.75829,0.29015
3822.79392,0.29009
3821.82954,0.28981
3820.86516,0.28984
3819.90078,0.28997
3818.93641,0.28982
3817.97203,0.28984
3817.00765,0.29048
3816.04327,0.29061
3815.07889,0.28978
3814.11452,0.28971
3813.15014,0.29004
3812.18576,0.28992
3811.22138,0.28986
3810.25700,0.29027
3809.29263,0.29078
3808.32825,0.29048
3807.36387,0.29011
3806.39949,0.29040
3805.43512,0.29048
3804.47074,0.28995
3803.50636,0.28995
3802.54198,0.29055
3801.57760,0.29023
3800.61323,0.29009
3799.64885,0.29013
3798.68447,0.28981
3797.72009,0.29008
3796.75571,0.28988
3795.79134,0.28933
3794.82696,0.28875
3793.86258,0.28869
3792.89820,0.28987
3791.93382,0.29036
3790.96945,0.28987
3790.00507,0.28947
3789.04069,0.28949
3788.07631,0.28932
3787.11194,0.28887
3786.14756,0.28925
3785.18318,0.28966
3784.21880,0.28973
3783.25442,0.28935
3782.29005,0.28877
3781.32567,0.28856
3780.36129,0.28820
3779.39691,0.28829
3778.43253,0.28854
3777.46816,0.28862
3776.50378,0.28884
3775.53940,0.28880
3774.57502,0.28932
3773.61065,0.28998
3772.64627,0.28975
3771.68189,0.28912
3770.71751,0.28871
3769.75313,0.28875
3768.78876,0.28876
3767.82438,0.28834
3766.86000,0.28793
3765.89562,0.28781
3764.93124,0.28823
3763.96687,0.28880
3763.00249,0.28878
3762.03811,0.28871
3761.07373,0.28888
3760.10935,0.28874
3759.14498,0.28851
3758.18060,0.28862
3757.21622,0.28871
3756.25184,0.28813
3755.28747,0.28796
3754.32309,0.28848
3753.35871,0.28864
3752.39433,0.28864
3751.42995,0.28813
3750.46558,0.28797
3749.50120,0.28851
3748.53682,0.28835
3747.57244,0.28800
3746.60806,0.28794
3745.64369,0.28788
3744.67931,0.28753
3743.71493,0.28769
3742.75055,0.28844
3741.78618,0.28825
3740.82180,0.28771
3739.85742,0.28766
3738.89304,0.28757
3737.92866,0.28711
3736.96429,0.28699
3735.99991,0.28779
3735.03553,0.28823
3734.07115,0.28775
3733.10677,0.28728
3732.14240,0.28798
3731.17802,0.28890
3730.21364,0.28861
3729.24926,0.28822
3728.28488,0.28795
3727.32051,0.28791
3726.35613,0.28810
3725.39175,0.28734
3724.42737,0.28688
3723.46300,0.28734
3722.49862,0.28746
3721.53424,0.28743
3720.56986,0.28771
3719.60548,0.28772
3718.64111,0.28699
3717.67673,0.28649
3716.71235,0.28659
3715.74797,0.28669
3714.78359,0.28689
3713.81922,0.28680
3712.85484,0.28687
3711.89046,0.28718
3710.92608,0.28686
3709.96171,0.28683
3708.99733,0.28712
3708.03295,0.28703
3707.06857,0.28693
3706.10419,0.28708
3705.13982,0.28730
3704.17544,0.28740
3703.21106,0.28794
3702.24668,0.28803
3701.28230,0.28759
3700.31793,0.28802
3699.35355,0.28856
3698.38917,0.28837
3697.42479,0.28756
3696.46041,0.28721
3695.49604,0.28777
3694.53166,0.28782
3693.56728,0.28758
3692.60290,0.28750
3691.63853,0.28731
3690.67415,0.28771
3689.70977,0.28840
3688.74539,0.28854
3687.78101,0.28851
3686.81664,0.28850
3685.85226,0.28868
3684.88788,0.28915
3683.92350,0.28912
3682.95912,0.28914
3681.99475,0.28971
3681.03037,0.29037
3680.06599,0.29097
3679.10161,0.29132
3678.13724,0.29187
3677.17286,0.29200
3676.20848,0.29168
3675.24410,0.29263
3674.27972,0.29372
3673.31535,0.29461
3672.35097,0.29587
3671.38659,0.29638
3670.42221,0.29683
3669.45783,0.29747
3668.49346,0.29789
3667.52908,0.29884
3666.56470,0.29994
3665.60032,0.30075
3664.63594,0.30108
3663.67157,0.30142
3662.70719,0.30250
3661.74281,0.30382
3660.77843,0.30541
3659.81406,0.30688
3658.84968,0.30792
3657.88530,0.30880
3656.92092,0.30936
3655.95654,0.31059
3654.99217,0.31202
3654.02779,0.31281
3653.06341,0.31448
3652.09903,0.31600
3651.13465,0.31651
3650.17028,0.31793
3649.20590,0.31951
3648.24152,0.32046
3647.27714,0.32155
3646.31276,0.32264
3645.34839,0.32378
3644.38401,0.32507
3643.41963,0.32675
3642.45525,0.32806
3641.49088,0.32854
3640.52650,0.32883
3639.56212,0.32972
3638.59774,0.33184
3637.63336,0.33281
3636.66899,0.33322
3635.70461,0.33500
3634.74023,0.33572
3633.77585,0.33603
3632.81147,0.33716
3631.84710,0.33827
3630.88272,0.33925
3629.91834,0.34030
3628.95396,0.34199
3627.98959,0.34296
3627.02521,0.34329
3626.06083,0.34404
3625.09645,0.34464
3624.13207,0.34512
3623.16770,0.34550
3622.20332,0.34628
3621.23894,0.34741
3620.27456,0.34826
3619.31018,0.34900
3618.34581,0.34990
3617.38143,0.35077
3616.41705,0.35056
3615.45267,0.35033
3614.48829,0.35113
3613.52392,0.35168
3612.55954,0.35200
3611.59516,0.35214
3610.63078,0.35211
3609.66641,0.35249
3608.70203,0.35315
3607.73765,0.35362
3606.77327,0.35358
3605.80889,0.35391
3604.84452,0.35449
3603.88014,0.35453
3602.91576,0.35491
3601.95138,0.35550
3600.98700,0.35587
3600.02263,0.35613
3599.05825,0.35605
3598.09387,0.35567
3597.12949,0.35555
3596.16512,0.35615
3595.20074,0.35680
3594.23636,0.35688
3593.27198,0.35653
3592.30760,0.35661
3591.34323,0.35756
3590.37885,0.35810
3589.41447,0.35816
3588.45009,0.35821
3587.48571,0.35783
3586.52134,0.35782
3585.55696,0.35854
3584.59258,0.35903
3583.62820,0.35899
3582.66382,0.35918
3581.69945,0.36006
3580.73507,0.36027
3579.77069,0.35968
3578.80631,0.35993
3577.84194,0.36095
3576.87756,0.36197
3575.91318,0.36238
3574.94880,0.36241
3573.98442,0.36279
3573.02005,0.36325
3572.05567,0.36415
3571.09129,0.36477
3570.12691,0.36483
3569.16253,0.36548
3568.19816,0.36611
3567.23378,0.36662
3566.26940,0.36730
3565.30502,0.36791
3564.34065,0.36848
3563.37627,0.36880
3562.41189,0.36918
3561.44751,0.36997
3560.48313,0.37101
3559.51876,0.37163
3558.55438,0.37202
3557.59000,0.37305
3556.62562,0.37398
3555.66124,0.37421
3554.69687,0.37509
3553.73249,0.37649
3552.76811,0.37704
3551.80373,0.37753
3550.83935,0.37812
3549.87498,0.37887
3548.91060,0.38058
3547.94622,0.38174
3546.98184,0.38228
3546.01747,0.38341
3545.05309,0.38469
3544.08871,0.38544
3543.12433,0.38594
3542.15995,0.38698
3541.19558,0.38782
3540.23120,0.38839
3539.26682,0.38942
3538.30244,0.39002
3537.33806,0.38989
3536.37369,0.39074
3535.40931,0.39266
3534.44493,0.39349
3533.48055,0.39390
3532.51618,0.39499
3531.55180,0.39584
3530.58742,0.39642
3529.62304,0.39708
3528.65866,0.39833
3527.69429,0.39960
3526.72991,0.39992
3525.76553,0.40023
3524.80115,0.40095
3523.83677,0.40153
3522.87240,0.40227
3521.90802,0.40319
3520.94364,0.40368
3519.97926,0.40446
3519.01488,0.40569
3518.05051,0.40645
3517.08613,0.40695
3516.12175,0.40749
3515.15737,0.40828
3514.19300,0.40908
3513.22862,0.40977
3512.26424,0.41061
3511.29986,0.41110
3510.33548,0.41155
3509.37111,0.41236
3508.40673,0.41324
3507.44235,0.41396
3506.47797,0.41429
3505.51359,0.41445
3504.54922,0.41464
3503.58484,0.41500
3502.62046,0.41590
3501.65608,0.41691
3500.69171,0.41769
3499.72733,0.41828
3498.76295,0.41840
3497.79857,0.41853
3496.83419,0.41907
3495.86982,0.41970
3494.90544,0.42016
3493.94106,0.42015
3492.97668,0.42027
3492.01230,0.42061
3491.04793,0.42110
3490.08355,0.42199
3489.11917,0.42209
3488.15479,0.42175
3487.19041,0.42219
3486.22604,0.42281
3485.26166,0.42317
3484.29728,0.42390
3483.33290,0.42499
3482.36853,0.42506
3481.40415,0.42489
3480.43977,0.42558
3479.47539,0.42573
3478.51101,0.42537
3477.54664,0.42559
3476.58226,0.42592
3475.61788,0.42599
3474.65350,0.42703
3473.68912,0.42843
3472.72475,0.42838
3471.76037,0.42841
3470.79599,0.42904
3469.83161,0.42892
3468.86724,0.42844
3467.90286,0.42836
3466.93848,0.42855
3465.97410,0.42881
3465.00972,0.42937
3464.04535,0.42951
3463.08097,0.42961
3462.11659,0.43018
3461.15221,0.43012
3460.18783,0.43033
3459.22346,0.43123
3458.25908,0.43156
3457.29470,0.43126
3456.33032,0.43134
3455.36594,0.43207
3454.40157,0.43235
3453.43719,0.43263
3452.47281,0.43309
3451.50843,0.43279
3450.54406,0.43250
3449.57968,0.43245
3448.61530,0.43232
3447.65092,0.43251
3446.68654,0.43290
3445.72217,0.43291
3444.75779,0.43273
3443.79341,0.43302
3442.82903,0.43334
3441.86465,0.43319
3440.90028,0.43337
3439.93590,0.43366
3438.97152,0.43314
3438.00714,0.43310
3437.04276,0.43362
3436.07839,0.43399
3435.11401,0.43470
3434.14963,0.43497
3433.18525,0.43489
3432.22088,0.43479
3431.25650,0.43473
3430.29212,0.43469
3429.32774,0.43444
3428.36336,0.43502
3427.39899,0.43535
3426.43461,0.43506
3425.47023,0.43525
3424.50585,0.43529
3423.54147,0.43543
3422.57710,0.43535
3421.61272,0.43521
3420.64834,0.43556
3419.68396,0.43567
3418.71959,0.43591
3417.75521,0.43640
3416.79083,0.43646
3415.82645,0.43611
3414.86207,0.43606
3413.89770,0.43650
3412.93332,0.43676
3411.96894,0.43653
3411.00456,0.43630
3410.04018,0.43619
3409.07581,0.43589
3408.11143,0.43595
3407.14705,0.43614
3406.18267,0.43607
3405.21829,0.43597
3404.25392,0.43587
3403.28954,0.43614
3402.32516,0.43584
3401.36078,0.43489
3400.39641,0.43506
3399.43203,0.43613
3398.46765,0.43654
3397.50327,0.43630
3396.53889,0.43605
3395.57452,0.43572
3394.61014,0.43577
3393.64576,0.43616
3392.68138,0.43620
3391.71700,0.43592
3390.75263,0.43556
3389.78825,0.43540
3388.82387,0.43532
3387.85949,0.43568
3386.89512,0.43634
3385.93074,0.43672
3384.96636,0.43618
3384.00198,0.43507
3383.03760,0.43519
3382.07323,0.43572
3381.10885,0.43551
3380.14447,0.43523
3379.18009,0.43527
3378.21571,0.43552
3377.25134,0.43505
3376.28696,0.43470
3375.32258,0.43483
3374.35820,0.43457
3373.39382,0.43474
3372.42945,0.43490
3371.46507,0.43445
3370.50069,0.43460
3369.53631,0.43554
3368.57194,0.43592
3367.60756,0.43604
3366.64318,0.43621
3365.67880,0.43519
3364.71442,0.43451
3363.75005,0.43527
3362.78567,0.43568
3361.82129,0.43518
3360.85691,0.43451
3359.89253,0.43421
3358.92816,0.43424
3357.96378,0.43433
3356.99940,0.43474
3356.03502,0.43523
3355.07065,0.43524
3354.10627,0.43500
3353.14189,0.43453
3352.17751,0.43410
3351.21313,0.43400
3350.24876,0.43403
3349.28438,0.43426
3348.32000,0.43432
3347.35562,0.43449
3346.39124,0.43484
3345.42687,0.43457
3344.46249,0.43406
3343.49811,0.43387
3342.53373,0.43412
3341.56935,0.43421
3340.60498,0.43399
3339.64060,0.43408
3338.67622,0.43433
3337.71184,0.43398
3336.74747,0.43321
3335.78309,0.43338
3334.81871,0.43373
3333.85433,0.43360
3332.88995,0.43355
3331.92558,0.43322
3330.96120,0.43300
3329.99682,0.43291
3329.03244,0.43290
3328.06806,0.43286
3327.10369,0.43258
3326.13931,0.43279
3325.17493,0.43272
3324.21055,0.43226
3323.24618,0.43230
3322.28180,0.43268
3321.31742,0.43288
3320.35304,0.43246
3319.38866,0.43218
3318.42429,0.43243
3317.45991,0.43225
3316.49553,0.43185
3315.53115,0.43206
3314.56677,0.43227
3313.60240,0.43195
3312.63802,0.43185
3311.67364,0.43209
3310.70926,0.43220
3309.74488,0.43218
3308.78051,0.43189
3307.81613,0.43149
3306.85175,0.43129
3305.88737,0.43113
3304.92300,0.43076
3303.95862,0.43052
3302.99424,0.43090
3302.02986,0.43129
3301.06548,0.43092
3300.10111,0.43045
3299.13673,0.43061
3298.17235,0.43073
3297.20797,0.43025
3296.24359,0.43040
3295.27922,0.43091
3294.31484,0.43037
3293.35046,0.42965
3292.38608,0.42933
3291.42171,0.42935
3290.45733,0.42965
3289.49295,0.43012
3288.52857,0.43036
3287.56419,0.43008
3286.59982,0.43001
3285.63544,0.42978
3284.67106,0.42952
3283.70668,0.42960
3282.74230,0.42939
3281.77793,0.42928
3280.81355,0.42883
3279.84917,0.42867
3278.88479,0.42910
3277.92041,0.42866
3276.95604,0.42835
3275.99166,0.42895
3275.02728,0.42945
3274.06290,0.42904
3273.09853,0.42819
3272.13415,0.42794
3271.16977,0.42827
3270.20539,0.42861
3269.24101,0.42847
3268.27664,0.42829
3267.31226,0.42847
3266.34788,0.42842
3265.38350,0.42825
3264.41912,0.42812
3263.45475,0.42750
3262.49037,0.42717
3261.52599,0.42765
3260.56161,0.42792
3259.59724,0.42782
3258.63286,0.42761
3257.66848,0.42765
3256.70410,0.42789
3255.73972,0.42735
3254.77535,0.42662
3253.81097,0.42665
3252.84659,0.42667
3251.88221,0.42644
3250.91783,0.42668
3249.95346,0.42675
3248.98908,0.42617
3248.02470,0.42593
3247.06032,0.42606
3246.09594,0.42624
3245.13157,0.42622
3244.16719,0.42586
3243.20281,0.42576
3242.23843,0.42584
3241.27406,0.42593
3240.30968,0.42587
3239.34530,0.42529
3238.38092,0.42493
3237.41654,0.42544
3236.45217,0.42583
3235.48779,0.42533
3234.52341,0.42497
3233.55903,0.42512
3232.59465,0.42510
3231.63028,0.42520
3230.66590,0.42535
3229.70152,0.42544
3228.73714,0.42558
3227.77276,0.42509
3226.80839,0.42447
3225.84401,0.42437
3224.87963,0.42421
3223.91525,0.42426
3222.95088,0.42414
3221.98650,0.42382
3221.02212,0.42431
3220.05774,0.42473
3219.09336,0.42441
3218.12899,0.42411
3217.16461,0.42418
3216.20023,0.42414
3215.23585,0.42380
3214.27147,0.42344
3213.30710,0.42322
3212.34272,0.42330
3211.37834,0.42312
3210.41396,0.42241
3209.44959,0.42216
3208.48521,0.42278
3207.52083,0.42310
3206.55645,0.42259
3205.59207,0.42231
3204.62770,0.42234
3203.66332,0.42232
3202.69894,0.42206
3201.73456,0.42156
3200.77018,0.42117
3199.80581,0.42085
3198.84143,0.42119
3197.87705,0.42152
3196.91267,0.42106
3195.94829,0.42085
3194.98392,0.42102
3194.01954,0.42136
3193.05516,0.42133
3192.09078,0.42061
3191.12641,0.41997
3190.16203,0.41978
3189.19765,0.41986
3188.23327,0.41964
3187.26889,0.41925
3186.30452,0.41930
3185.34014,0.41939
3184.37576,0.41901
3183.41138,0.41863
3182.44700,0.41850
3181.48263,0.41826
3180.51825,0.41818
3179.55387,0.41823
3178.58949,0.41797
3177.62512,0.41740
3176.66074,0.41701
3175.69636,0.41710
3174.73198,0.41724
3173.76760,0.41728
3172.80323,0.41722
3171.83885,0.41697
3170.87447,0.41628
3169.91009,0.41553
3168.94571,0.41545
3167.98134,0.41544
3167.01696,0.41529
3166.05258,0.41528
3165.08820,0.41523
3164.12382,0.41503
3163.15945,0.41433
3162.19507,0.41384
3161.23069,0.41379
3160.26631,0.41385
3159.30194,0.41396
3158.33756,0.41354
3157.37318,0.41316
3156.40880,0.41336
3155.44442,0.41331
3154.48005,0.41249
3153.51567,0.41195
3152.55129,0.41211
3151.58691,0.41188
3150.62253,0.41178
3149.65816,0.41175
3148.69378,0.41112
3147.72940,0.41077
3146.76502,0.41088
3145.80065,0.41122
3144.83627,0.41107
3143.87189,0.41038
3142.90751,0.41024
3141.94313,0.41011
3140.97876,0.40962
3140.01438,0.40924
3139.05000,0.40910
3138.08562,0.40905
3137.12124,0.40902
3136.15687,0.40868
3135.19249,0.40798
3134.22811,0.40756
3133.26373,0.40728
3132.29935,0.40705
3131.33498,0.40692
3130.37060,0.40686
3129.40622,0.40687
3128.44184,0.40643
3127.47747,0.40615
3126.51309,0.40605
3125.54871,0.40579
3124.58433,0.40555
3123.61995,0.40507
3122.65558,0.40469
3121.69120,0.40401
3120.72682,0.40373
3119.76244,0.40411
3118.79806,0.40377
3117.83369,0.40357
3116.86931,0.40316
3115.90493,0.40224
3114.94055,0.40202
3113.97618,0.40211
3113.01180,0.40210
3112.04742,0.40156
3111.08304,0.40123
3110.11866,0.40137
3109.15429,0.40099
3108.18991,0.40071
3107.22553,0.40066
3106.26115,0.40048
3105.29677,0.40011
3104.33240,0.39941
3103.36802,0.39890
3102.40364,0.39900
3101.43926,0.39904
3100.47488,0.39859
3099.51051,0.39829
3098.54613,0.39795
3097.58175,0.39770
3096.61737,0.39754
3095.65300,0.39735
3094.68862,0.39751
3093.72424,0.39689
3092.75986,0.39623
3091.79548,0.39614
3090.83111,0.39574
3089.86673,0.39566
3088.90235,0.39538
3087.93797,0.39484
3086.97359,0.39461
3086.00922,0.39466
3085.04484,0.39474
3084.08046,0.39398
3083.11608,0.39340
3082.15171,0.39334
3081.18733,0.39298
3080.22295,0.39224
3079.25857,0.39157
3078.29419,0.39170
3077.32982,0.39191
3076.36544,0.39178
3075.40106,0.39157
3074.43668,0.39096
3073.47230,0.39040
3072.50793,0.39011
3071.54355,0.38990
3070.57917,0.38956
3069.61479,0.38907
3068.65041,0.38881
3067.68604,0.38866
3066.72166,0.38839
3065.75728,0.38813
3064.79290,0.38783
3063.82853,0.38753
3062.86415,0.38713
3061.89977,0.38674
3060.93539,0.38649
3059.97101,0.38633
3059.00664,0.38628
3058.04226,0.38551
3057.07788,0.38446
3056.11350,0.38441
3055.14912,0.38434
3054.18475,0.38380
3053.22037,0.38353
3052.25599,0.38318
3051.29161,0.38262
3050.32724,0.38230
3049.36286,0.38205
3048.39848,0.38162
3047.43410,0.38137
3046.46972,0.38129
3045.50535,0.38097
3044.54097,0.38055
3043.57659,0.38018
3042.61221,0.37989
3041.64783,0.37979
3040.68346,0.37946
3039.71908,0.37901
3038.75470,0.37917
3037.79032,0.37906
3036.82594,0.37821
3035.86157,0.37751
3034.89719,0.37726
3033.93281,0.37707
3032.96843,0.37654
3032.00406,0.37633
3031.03968,0.37618
3030.07530,0.37554
3029.11092,0.37522
3028.14654,0.37499
3027.18217,0.37468
3026.21779,0.37446
3025.25341,0.37412
3024.28903,0.37375
3023.32465,0.37321
3022.36028,0.37297
3021.39590,0.37291
3020.43152,0.37235
3019.46714,0.37192
3018.50276,0.37181
3017.53839,0.37151
3016.57401,0.37092
3015.60963,0.37022
3014.64525,0.36970
3013.68088,0.36937
3012.71650,0.36935
3011.75212,0.36923
3010.78774,0.36889
3009.82336,0.36879
3008.85899,0.36848
3007.89461,0.36805
3006.93023,0.36764
3005.96585,0.36697
3005.00147,0.36669
3004.03710,0.36658
3003.07272,0.36613
3002.10834,0.36564
3001.14396,0.36538
3000.17959,0.36520
2999.21521,0.36489
2998.25083,0.36468
2997.28645,0.36438
2996.32207,0.36421
2995.35770,0.36412
2994.39332,0.36359
2993.42894,0.36291
2992.46456,0.36215
2991.50018,0.36158
2990.53581,0.36147
2989.57143,0.36137
2988.60705,0.36087
2987.64267,0.36052
2986.67829,0.36071
2985.71392,0.36039
2984.74954,0.35964
2983.78516,0.35927
2982.82078,0.35894
2981.85641,0.35851
2980.89203,0.35818
2979.92765,0.35786
2978.96327,0.35756
2977.99889,0.35735
2977.03452,0.35696
2976.07014,0.35647
2975.10576,0.35602
2974.14138,0.35577
2973.17700,0.35576
2972.21263,0.35559
2971.24825,0.35538
2970.28387,0.35514
2969.31949,0.35472
2968.35512,0.35425
2967.39074,0.35377
2966.42636,0.35346
2965.46198,0.35320
2964.49760,0.35283
2963.53323,0.35250
2962.56885,0.35210
2961.60447,0.35172
2960.64009,0.35151
2959.67571,0.35127
2958.71134,0.35081
2957.74696,0.35034
2956.78258,0.35022
2955.81820,0.35046
2954.85382,0.35045
2953.88945,0.35017
2952.92507,0.34993
2951.96069,0.34957
2950.99631,0.34909
2950.03194,0.34884
2949.06756,0.34862
2948.10318,0.34800
2947.13880,0.34736
2946.17442,0.34713
2945.21005,0.34700
2944.24567,0.34678
2943.28129,0.34652
2942.31691,0.34631
2941.35253,0.34615
2940.38816,0.34590
2939.42378,0.34550
2938.45940,0.34544
2937.49502,0.34557
2936.53065,0.34548
2935.56627,0.34517
2934.60189,0.34445
2933.63751,0.34408
2932.67313,0.34386
2931.70876,0.34338
2930.74438,0.34339
2929.78000,0.34335
2928.81562,0.34315
2927.85124,0.34310
2926.88687,0.34300
2925.92249,0.34277
2924.95811,0.34240
2923.99373,0.34212
2923.02935,0.34169
2922.06498,0.34162
2921.10060,0.34181
2920.13622,0.34159
2919.17184,0.34136
2918.20747,0.34102
2917.24309,0.34083
2916.27871,0.34094
2915.31433,0.34089
2914.34995,0.34053
2913.38558,0.34015
2912.42120,0.34019
2911.45682,0.34022
2910.49244,0.34014
2909.52806,0.34002
2908.56369,0.33967
2907.59931,0.33939
2906.63493,0.33923
2905.67055,0.33920
2904.70618,0.33908
2903.74180,0.33878
2902.77742,0.33844
2901.81304,0.33819
2900.84866,0.33831
2899.88429,0.33839
2898.91991,0.33811
2897.95553,0.33786
2896.99115,0.33779
2896.02677,0.33776
2895.06240,0.33755
2894.09802,0.33737
2893.13364,0.33717
2892.16926,0.33693
2891.20488,0.33719
2890.24051,0.33705
2889.27613,0.33646
2888.31175,0.33653
2887.34737,0.33669
2886.38300,0.33662
2885.41862,0.33648
2884.45424,0.33639
2883.48986,0.33649
2882.52548,0.33638
2881.56111,0.33627
2880.59673,0.33625
2879.63235,0.33600
2878.66797,0.33560
2877.70359,0.33556
2876.73922,0.33557
2875.77484,0.33523
2874.81046,0.33518
2873.84608,0.33526
2872.88171,0.33529
2871.91733,0.33537
2870.95295,0.33540
2869.98857,0.33542
2869.02419,0.33520
2868.05982,0.33516
2867.09544,0.33526
2866.13106,0.33519
2865.16668,0.33503
2864.20230,0.33470
2863.23793,0.33462
2862.27355,0.33492
2861.30917,0.33508
2860.34479,0.33467
2859.38041,0.33425
2858.41604,0.33425
2857.45166,0.33427
2856.48728,0.33423
2855.52290,0.33413
2854.55853,0.33403
2853.59415,0.33399
2852.62977,0.33414
2851.66539,0.33437
2850.70101,0.33416
2849.73664,0.33382
2848.77226,0.33382
2847.80788,0.33425
2846.84350,0.33443
2845.87912,0.33392
2844.91475,0.33369
2843.95037,0.33390
2842.98599,0.33403
2842.02161,0.33385
2841.05724,0.33372
2840.09286,0.33408
2839.12848,0.33412
2838.16410,0.33373
2837.19972,0.33355
2836.23535,0.33353
2835.27097,0.33371
2834.30659,0.33382
2833.34221,0.33370
2832.37783,0.33380
2831.41346,0.33378
2830.44908,0.33364
2829.48470,0.33361
2828.52032,0.33328
2827.55594,0.33306
2826.59157,0.33298
2825.62719,0.33291
2824.66281,0.33295
2823.69843,0.33260
2822.73406,0.33231
2821.76968,0.33259
2820.80530,0.33280
2819.84092,0.33265
2818.87654,0.33245
2817.91217,0.33239
2816.94779,0.33243
2815.98341,0.33247
2815.01903,0.33248
2814.05465,0.33252
2813.09028,0.33246
2812.12590,0.33205
2811.16152,0.33184
2810.19714,0.33200
2809.23276,0.33195
2808.26839,0.33187
2807.30401,0.33183
2806.33963,0.33160
2805.37525,0.33156
2804.41088,0.33160
2803.44650,0.33148
2802.48212,0.33132
2801.51774,0.33115
2800.55336,0.33104
2799.58899,0.33095
2798.62461,0.33076
2797.66023,0.33065
2796.69585,0.33082
2795.73147,0.33091
2794.76710,0.33068
2793.80272,0.33043
2792.83834,0.33046
2791.87396,0.33066
2790.90959,0.33042
2789.94521,0.33018
2788.98083,0.33013
2788.01645,0.32990
2787.05207,0.32984
2786.08770,0.32974
2785.12332,0.32942
2784.15894,0.32914
2783.19456,0.32895
2782.23018,0.32895
2781.26581,0.32894
2780.30143,0.32875
2779.33705,0.32845
2778.37267,0.32837
2777.40829,0.32830
2776.44392,0.32820
2775.47954,0.32836
2774.51516,0.32832
2773.55078,0.32810
2772.58641,0.32785
2771.62203,0.32757
2770.65765,0.32746
2769.69327,0.32737
2768.72889,0.32729
2767.76452,0.32724
2766.80014,0.32705
2765.83576,0.32670
2764.87138,0.32650
2763.90700,0.32638
2762.94263,0.32610
2761.97825,0.32597
2761.01387,0.32595
2760.04949,0.32609
2759.08512,0.32615
2758.12074,0.32571
2757.15636,0.32526
2756.19198,0.32508
2755.22760,0.32492
2754.26323,0.32466
2753.29885,0.32441
2752.33447,0.32428
2751.37009,0.32415
2750.40571,0.32401
2749.44134,0.32383
2748.47696,0.32363
2747.51258,0.32361
2746.54820,0.32348
2745.58382,0.32318
2744.61945,0.32310
2743.65507,0.32278
2742.69069,0.32221
2741.72631,0.32218
2740.76194,0.32239
2739.79756,0.32234
2738.83318,0.32205
2737.86880,0.32173
2736.90442,0.32155
2735.94005,0.32139
2734.97567,0.32130
2734.01129,0.32101
2733.04691,0.32052
2732.08253,0.32022
2731.11816,0.32000
2730.15378,0.31986
2729.18940,0.31979
2728.22502,0.31955
2727.26065,0.31943
2726.29627,0.31932
2725.33189,0.31895
2724.36751,0.31873
2723.40313,0.31857
2722.43876,0.31835
2721.47438,0.31826
2720.51000,0.31805
2719.54562,0.31787
2718.58124,0.31781
2717.61687,0.31758
2716.65249,0.31726
2715.68811,0.31707
2714.72373,0.31692
2713.75935,0.31673
2712.79498,0.31658
2711.83060,0.31647
2710.86622,0.31629
2709.90184,0.31602
2708.93747,0.31582
2707.97309,0.31565
2707.00871,0.31560
2706.04433,0.31550
2705.07995,0.31508
2704.11558,0.31481
2703.15120,0.31474
2702.18682,0.31453
2701.22244,0.31439
2700.25806,0.31428
2699.29369,0.31403
2698.32931,0.31385
2697.36493,0.31371
2696.40055,0.31333
2695.43618,0.31287
2694.47180,0.31262
2693.50742,0.31242
2692.54304,0.31244
2691.57866,0.31260
2690.61429,0.31230
2689.64991,0.31181
2688.68553,0.31163
2687.72115,0.31148
2686.75677,0.31130
2685.79240,0.31115
2684.82802,0.31097
2683.86364,0.31081
2682.89926,0.31066
2681.93488,0.31055
2680.97051,0.31032
2680.00613,0.31014
2679.04175,0.31008
2678.07737,0.30985
2677.11300,0.30971
2676.14862,0.30953
2675.18424,0.30923
2674.21986,0.30902
2673.25548,0.30881
2672.29111,0.30863
2671.32673,0.30846
2670.36235,0.30845
2669.39797,0.30842
2668.43359,0.30818
2667.46922,0.30787
2666.50484,0.30768
2665.54046,0.30755
2664.57608,0.30721
2663.61171,0.30694
2662.64733,0.30677
2661.68295,0.30659
2660.71857,0.30652
2659.75419,0.30629
2658.78982,0.30588
2657.82544,0.30568
2656.86106,0.30571
2655.89668,0.30529
2654.93230,0.30477
2653.96793,0.30471
2653.00355,0.30450
2652.03917,0.30412
2651.07479,0.30382
2650.11041,0.30353
2649.14604,0.30319
2648.18166,0.30302
2647.21728,0.30290
2646.25290,0.30270
2645.28853,0.30265
2644.32415,0.30238
2643.35977,0.30199
2642.39539,0.30163
2641.43101,0.30122
2640.46664,0.30105
2639.50226,0.30084
2638.53788,0.30061
2637.57350,0.30034
2636.60912,0.30007
2635.64475,0.29994
2634.68037,0.29959
2633.71599,0.29919
2632.75161,0.29892
2631.78724,0.29882
2630.82286,0.29871
2629.85848,0.29842
2628.89410,0.29824
2627.92972,0.29809
2626.96535,0.29769
2626.00097,0.29735
2625.03659,0.29729
2624.07221,0.29709
2623.10783,0.29699
2622.14346,0.29705
2621.17908,0.29668
2620.21470,0.29618
2619.25032,0.29606
2618.28594,0.29595
2617.32157,0.29552
2616.35719,0.29535
2615.39281,0.29522
2614.42843,0.29484
2613.46406,0.29471
2612.49968,0.29448
2611.53530,0.29427
2610.57092,0.29431
2609.60654,0.29423
2608.64217,0.29412
2607.67779,0.29379
2606.71341,0.29335
2605.74903,0.29338
2604.78465,0.29320
2603.82028,0.29260
2602.85590,0.29266
2601.89152,0.29264
2600.92714,0.29238
2599.96276,0.29257
2598.99839,0.29238
2598.03401,0.29188
2597.06963,0.29134
2596.10525,0.29117
2595.14088,0.29110
2594.17650,0.29049
2593.21212,0.29050
2592.24774,0.29045
2591.28336,0.29019
2590.31899,0.29040
2589.35461,0.29012
2588.39023,0.28953
2587.42585,0.28913
2586.46147,0.28914
2585.49710,0.28932
2584.53272,0.28917
2583.56834,0.28903
2582.60396,0.28872
2581.63959,0.28853
2580.67521,0.28877
2579.71083,0.28828
2578.74645,0.28737
2577.78207,0.28722
2576.81770,0.28740
2575.85332,0.28721
2574.88894,0.28691
2573.92456,0.28699
2572.96018,0.28677
2571.99581,0.28606
2571.03143,0.28584
2570.06705,0.28579
2569.10267,0.28580
2568.13829,0.28577
2567.17392,0.28573
2566.20954,0.28567
2565.24516,0.28508
2564.28078,0.28529
2563.31641,0.28563
2562.35203,0.28507
2561.38765,0.28481
2560.42327,0.28457
2559.45889,0.28429
2558.49452,0.28390
2557.53014,0.28350
2556.56576,0.28346
2555.60138,0.28331
2554.63700,0.28308
2553.67263,0.28313
2552.70825,0.28336
2551.74387,0.28275
2550.77949,0.28211
2549.81512,0.28235
2548.85074,0.28233
2547.88636,0.28218
2546.92198,0.28177
2545.95760,0.28134
2544.99323,0.28148
2544.02885,0.28187
2543.06447,0.28186
2542.10009,0.28112
2541.13571,0.28083
2540.17134,0.28083
2539.20696,0.28063
2538.24258,0.28033
2537.27820,0.27989
2536.31382,0.27997
2535.34945,0.27976
2534.38507,0.27943
2533.42069,0.27959
2532.45631,0.27937
2531.49194,0.27917
2530.52756,0.27912
2529.56318,0.27903
2528.59880,0.27882
2527.63442,0.27853
2526.67005,0.27871
2525.70567,0.27850
2524.74129,0.27797
2523.77691,0.27792
2522.81253,0.27775
2521.84816,0.27757
2520.88378,0.27747
2519.91940,0.27733
2518.95502,0.27745
2517.99065,0.27730
2517.02627,0.27682
2516.06189,0.27695
2515.09751,0.27726
2514.13313,0.27691
2513.16876,0.27659
2512.20438,0.27641
2511.24000,0.27566
2510.27562,0.27479
2509.31124,0.27445
2508.34687,0.27427
2507.38249,0.27425
2506.41811,0.27467
2505.45373,0.27479
2504.48935,0.27465
2503.52498,0.27438
2502.56060,0.27379
2501.59622,0.27383
2500.63184,0.27400
2499.66747,0.27380
2498.70309,0.27388
2497.73871,0.27408
2496.77433,0.27398
2495.80995,0.27345
2494.84558,0.27314
2493.88120,0.27289
2492.91682,0.27298
2491.95244,0.27340
2490.98806,0.27267
2490.02369,0.27210
2489.05931,0.27206
2488.09493,0.27160
2487.13055,0.27157
2486.16618,0.27142
2485.20180,0.27102
2484.23742,0.27102
2483.27304,0.27117
2482.30866,0.27136
2481.34429,0.27149
2480.37991,0.27122
2479.41553,0.27052
2478.45115,0.27006
2477.48677,0.27006
2476.52240,0.27026
2475.55802,0.27031
2474.59364,0.26997
2473.62926,0.26973
2472.66488,0.26949
2471.70051,0.26889
2470.73613,0.26869
2469.77175,0.26879
2468.80737,0.26846
2467.84300,0.26818
2466.87862,0.26821
2465.91424,0.26827
2464.94986,0.26800
2463.98548,0.26737
2463.02111,0.26703
2462.05673,0.26685
2461.09235,0.26693
2460.12797,0.26713
2459.16359,0.26714
2458.19922,0.26695
2457.23484,0.26638
2456.27046,0.26627
2455.30608,0.26643
2454.34171,0.26627
2453.37733,0.26617
2452.41295,0.26606
2451.44857,0.26600
2450.48419,0.26566
2449.51982,0.26517
2448.55544,0.26515
2447.59106,0.26535
2446.62668,0.26540
2445.66230,0.26526
2444.69793,0.26481
2443.73355,0.26430
2442.76917,0.26422
2441.80479,0.26428
2440.84041,0.26469
2439.87604,0.26474
2438.91166,0.26398
2437.94728,0.26377
2436.98290,0.26360
2436.01853,0.26345
2435.05415,0.26389
2434.08977,0.26398
2433.12539,0.26351
2432.16101,0.26278
2431.19664,0.26217
2430.23226,0.26194
2429.26788,0.26218
2428.30350,0.26221
2427.33912,0.26162
2426.37475,0.26104
2425.41037,0.26103
2424.44599,0.26136
2423.48161,0.26109
2422.51724,0.26084
2421.55286,0.26102
2420.58848,0.26111
2419.62410,0.26126
2418.65972,0.26113
2417.69535,0.26066
2416.73097,0.26003
2415.76659,0.25993
2414.80221,0.26047
2413.83783,0.26042
2412.87346,0.25993
2411.90908,0.25981
2410.94470,0.26025
2409.98032,0.26039
2409.01594,0.25970
2408.05157,0.25906
2407.08719,0.25899
2406.12281,0.25924
2405.15843,0.25908
2404.19406,0.25860
2403.22968,0.25856
2402.26530,0.25870
2401.30092,0.25857
2400.33654,0.25852
2399.37217,0.25851
2398.40779,0.25833
2397.44341,0.25814
2396.47903,0.25792
2395.51465,0.25778
2394.55028,0.25760
2393.58590,0.25740
2392.62152,0.25730
2391.65714,0.25714
2390.69276,0.25732
2389.72839,0.25741
2388.76401,0.25733
2387.79963,0.25751
2386.83525,0.25738
2385.87088,0.25692
2384.90650,0.25639
2383.94212,0.25612
2382.97774,0.25623
2382.01336,0.25635
2381.04899,0.25641
2380.08461,0.25638
2379.12023,0.25644
2378.15585,0.25638
2377.19147,0.25618
2376.22710,0.25627
2375.26272,0.25650
2374.29834,0.25662
2373.33396,0.25635
2372.36959,0.25600
2371.40521,0.25599
2370.44083,0.25590
2369.47645,0.25583
2368.51207,0.25605
2367.54770,0.25622
2366.58332,0.25603
2365.61894,0.25587
2364.65456,0.25604
2363.69018,0.25599
2362.72581,0.25578
2361.76143,0.25569
2360.79705,0.25558
2359.83267,0.25570
2358.86829,0.25597
2357.90392,0.25594
2356.93954,0.25543
2355.97516,0.25487
2355.01078,0.25474
2354.04641,0.25463
2353.08203,0.25437
2352.11765,0.25411
2351.15327,0.25362
2350.18889,0.25315
2349.22452,0.25297
2348.26014,0.25309
2347.29576,0.25327
2346.33138,0.25342
2345.36700,0.25358
2344.40263,0.25346
2343.43825,0.25332
2342.47387,0.25326
2341.50949,0.25319
2340.54512,0.25318
2339.58074,0.25298
2338.61636,0.25285
2337.65198,0.25301
2336.68760,0.25313
2335.72323,0.25299
2334.75885,0.25273
2333.79447,0.25251
2332.83009,0.25212
2331.86571,0.25183
2330.90134,0.25172
2329.93696,0.25140
2328.97258,0.25098
2328.00820,0.25077
2327.04382,0.25059
2326.07945,0.25023
2325.11507,0.24996
2324.15069,0.24967
2323.18631,0.24925
2322.22194,0.24904
2321.25756,0.24879
2320.29318,0.24821
2319.32880,0.24755
2318.36442,0.24741
2317.40005,0.24726
2316.43567,0.24669
2315.47129,0.24647
2314.50691,0.24647
2313.54253,0.24615
2312.57816,0.24591
2311.61378,0.24582
2310.64940,0.24527
2309.68502,0.24498
2308.72065,0.24508
2307.75627,0.24488
2306.79189,0.24491
2305.82751,0.24439
2304.86313,0.24380
2303.89876,0.24399
2302.93438,0.24355
2301.97000,0.24289
2301.00562,0.24283
2300.04124,0.24293
2299.07687,0.24248
2298.11249,0.24197
2297.14811,0.24196
2296.18373,0.24170
2295.21935,0.24158
2294.25498,0.24142
2293.29060,0.24117
2292.32622,0.24113
2291.36184,0.24115
2290.39747,0.24161
2289.43309,0.24115
2288.46871,0.23996
2287.50433,0.23970
2286.53995,0.23995
2285.57558,0.24002
2284.61120,0.24003
2283.64682,0.24000
2282.68244,0.23937
2281.71806,0.23864
2280.75369,0.23829
2279.78931,0.23865
2278.82493,0.23900
2277.86055,0.23809
2276.89618,0.23709
2275.93180,0.23642
2274.96742,0.23665
2274.00304,0.23760
2273.03866,0.23749
2272.07429,0.23691
2271.10991,0.23637
2270.14553,0.23623
2269.18115,0.23609
2268.21677,0.23595
2267.25240,0.23581
2266.28802,0.23568
2265.32364,0.23554
2264.35926,0.23540
2263.39488,0.23526
2262.43051,0.23512
2261.46613,0.23498
2260.50175,0.23484
2259.53737,0.23470
2258.57300,0.23456
2257.60862,0.23442
2256.64424,0.23429
2255.67986,0.23415
2254.71548,0.23401
2253.75111,0.23387
2252.78673,0.23373
2251.82235,0.23359
2250.85797,0.23345
2249.89359,0.23331
2248.92922,0.23317
2247.96484,0.23303
2247.00046,0.23290
2246.03608,0.23276
2245.07171,0.23262
2244.10733,0.23248
2243.14295,0.23234
2242.17857,0.23220
2241.21419,0.23206
2240.24982,0.23192
2239.28544,0.23178
2238.32106,0.23164
2237.35668,0.23151
2236.39230,0.23137
2235.42793,0.23123
2234.46355,0.23109
2233.49917,0.23095
2232.53479,0.23081
2231.57041,0.23067
2230.60604,0.23053
2229.64166,0.23039
2228.67728,0.23026
2227.71290,0.23012
2226.74853,0.22998
2225.78415,0.22984
2224.81977,0.22970
2223.85539,0.22956
2222.89101,0.22942
2221.92664,0.22928
2220.96226,0.22914
2219.99788,0.22900
2219.03350,0.22887
2218.06912,0.22873
2217.10475,0.22859
2216.14037,0.22845
2215.17599,0.22831
2214.21161,0.22817
2213.24724,0.22803
2212.28286,0.22789
2211.31848,0.22775
2210.35410,0.22761
2209.38972,0.22748
2208.42535,0.22734
2207.46097,0.22720
2206.49659,0.22706
2205.53221,0.22692
2204.56783,0.22678
2203.60346,0.22664
2202.63908,0.22650
2201.67470,0.22636
2200.71032,0.22622
2199.74594,0.22609
2198.78157,0.22595
2197.81719,0.22581
2196.85281,0.22567
2195.88843,0.22553
2194.92406,0.22539
2193.95968,0.22525
2192.99530,0.22511
2192.03092,0.22497
2191.06654,0.22483
2190.10217,0.22470
2189.13779,0.22456
2188.17341,0.22442
2187.20903,0.22428
2186.24465,0.22414
2185.28028,0.22400
2184.31590,0.22386
2183.35152,0.22372
2182.38714,0.22358
2181.42276,0.22345
2180.45839,0.22331
2179.49401,0.22317
2178.52963,0.22303
2177.56525,0.22289
2176.60088,0.22275
2175.63650,0.22261
2174.67212,0.22247
2173.70774,0.22233
2172.74336,0.22219
2171.77899,0.22206
2170.81461,0.22192
2169.85023,0.22178
2168.88585,0.22164
2167.92147,0.22150
2166.95710,0.22136
2165.99272,0.22122
2165.02834,0.22108
2164.06396,0.22094
2163.09959,0.22080
2162.13521,0.22067
2161.17083,0.22053
2160.20645,0.22039
2159.24207,0.22025
2158.27770,0.22011
2157.31332,0.21997
2156.34894,0.21983
2155.38456,0.21969
2154.42018,0.21955
2153.45581,0.21941
2152.49143,0.21928
2151.52705,0.21914
2150.56267,0.21900
2149.59829,0.21886
2148.63392,0.21872
2147.66954,0.21858
2146.70516,0.21844
2145.74078,0.21830
2144.77641,0.21816
2143.81203,0.21802
2142.84765,0.21789
2141.88327,0.21775
2140.91889,0.21761
2139.95452,0.21747
2138.99014,0.21733
2138.02576,0.21719
2137.06138,0.21705
2136.09700,0.21691
2135.13263,0.21677
2134.16825,0.21663
2133.20387,0.21650
2132.23949,0.21636
2131.27512,0.21622
2130.31074,0.21608
2129.34636,0.21594
2128.38198,0.21580
2127.41760,0.21566
2126.45323,0.21552
2125.48885,0.21538
2124.52447,0.21525
2123.56009,0.21511
2122.59571,0.21497
2121.63134,0.21483
2120.66696,0.21469
2119.70258,0.21455
2118.73820,0.21441
2117.77382,0.21427
2116.80945,0.21413
2115.84507,0.21399
2114.88069,0.21386
2113.91631,0.21372
2112.95194,0.21358
2111.98756,0.21344
2111.02318,0.21330
2110.05880,0.21316
2109.09442,0.21302
2108.13005,0.21288
2107.16567,0.21274
2106.20129,0.21260
2105.23691,0.21247
2104.27253,0.21233
2103.30816,0.21219
2102.34378,0.21205
2101.37940,0.21191
2100.41502,0.21177
2099.45065,0.21163
2098.48627,0.21149
2097.52189,0.21135
2096.55751,0.21121
2095.59313,0.21108
2094.62876,0.21094
2093.66438,0.21080
2092.70000,0.21066
2091.73562,0.21052
2090.77124,0.21038
2089.80687,0.21024
2088.84249,0.21010
2087.87811,0.20996
2086.91373,0.20982
2085.94935,0.20969
2084.98498,0.20955
2084.02060,0.20941
2083.05622,0.20927
2082.09184,0.20913
2081.12747,0.20899
2080.16309,0.20885
2079.19871,0.20871
2078.23433,0.20857
2077.26995,0.20844
2076.30558,0.20830
2075.34120,0.20816
2074.37682,0.20802
2073.41244,0.20788
2072.44806,0.20774
2071.48369,0.20760
2070.51931,0.20746
2069.55493,0.20732
2068.59055,0.20718
2067.62618,0.20705
2066.66180,0.20691
2065.69742,0.20677
2064.73304,0.20663
2063.76866,0.20649
2062.80429,0.20635
2061.83991,0.20621
2060.87553,0.20607
2059.91115,0.20593
2058.94677,0.20579
2057.98240,0.20566
2057.01802,0.20552
2056.05364,0.20538
2055.08926,0.20524
2054.12488,0.20510
2053.16051,0.20496
2052.19613,0.20482
2051.23175,0.20468
2050.26737,0.20454
2049.30300,0.20440
2048.33862,0.20427
2047.37424,0.20413
2046.40986,0.20399
2045.44548,0.20385
2044.48111,0.20371
2043.51673,0.20357
2042.55235,0.20343
2041.58797,0.20329
2040.62359,0.20315
2039.65922,0.20301
2038.69484,0.20288
2037.73046,0.20274
2036.76608,0.20260
2035.80171,0.20246
2034.83733,0.20232
2033.87295,0.20218
2032.90857,0.20204
2031.94419,0.20190
2030.97982,0.20176
2030.01544,0.20162
2029.05106,0.20149
2028.08668,0.20135
2027.12230,0.20121
2026.15793,0.20107
2025.19355,0.20093
2024.22917,0.20079
2023.26479,0.20065
2022.30041,0.20051
2021.33604,0.20037
2020.37166,0.20024
2019.40728,0.20010
2018.44290,0.19996
2017.47853,0.19982
2016.51415,0.19968
2015.54977,0.19954
2014.58539,0.19940
2013.62101,0.19926
2012.65664,0.19912
2011.69226,0.19898
2010.72788,0.19885
2009.76350,0.19871
2008.79912,0.19857
2007.83475,0.19843
2006.87037,0.19829
2005.90599,0.19815
2004.94161,0.19801
2003.97724,0.19787
2003.01286,0.19773
2002.04848,0.19759
2001.08410,0.19746
2000.11972,0.19732
1999.15535,0.19718
1998.19097,0.19704
1997.22659,0.19690
1996.26221,0.19676
1995.29783,0.19662
1994.33346,0.19648
1993.36908,0.19634
1992.40470,0.19620
1991.44032,0.19607
1990.47594,0.19593
1989.51157,0.19579
1988.54719,0.19565
1987.58281,0.19551
1986.61843,0.19537
1985.65406,0.19523
1984.68968,0.19509
1983.72530,0.19495
1982.76092,0.19481
1981.79654,0.19468
1980.83217,0.19454
1979.86779,0.19440
1978.90341,0.19426
1977.93903,0.19412
1976.97465,0.19398
1976.01028,0.19384
1975.04590,0.19370
1974.08152,0.19356
1973.11714,0.19343
1972.15276,0.19329
1971.18839,0.19315
1970.22401,0.19301
1969.25963,0.19287
1968.29525,0.19273
1967.33088,0.19259
1966.36650,0.19245
1965.40212,0.19231
1964.43774,0.19217
1963.47336,0.19204
1962.50899,0.19190
1961.54461,0.19176
1960.58023,0.19162
1959.61585,0.19148
1958.65147,0.19134
1957.68710,0.19120
1956.72272,0.19106
1955.75834,0.19092
1954.79396,0.19078
1953.82959,0.19065
1952.86521,0.19051
1951.90083,0.19037
1950.93645,0.19023
1949.97207,0.19009
1949.00770,0.18995
1948.04332,0.18981
1947.07894,0.18967
1946.11456,0.18953
1945.15018,0.18939
1944.18581,0.18926
1943.22143,0.18912
1942.25705,0.18898
1941.29267,0.18884
1940.32829,0.18870
1939.36392,0.18856
1938.39954,0.18842
1937.43516,0.18828
1936.47078,0.18814
1935.50641,0.18800
1934.54203,0.18787
1933.57765,0.18773
1932.61327,0.18759
1931.64889,0.18745
1930.68452,0.18731
1929.72014,0.18717
1928.75576,0.18703
1927.79138,0.18689
1926.82700,0.18675
1925.86263,0.18681
1924.89825,0.18671
1923.93387,0.18648
1922.96949,0.18583
1922.00512,0.18582
1921.04074,0.18595
1920.07636,0.18586
1919.11198,0.18544
1918.14760,0.18523
1917.18323,0.18484
1916.21885,0.18435
1915.25447,0.18450
1914.29009,0.18432
1913.32571,0.18400
1912.36134,0.18435
1911.39696,0.18475
1910.43258,0.18439
1909.46820,0.18402
1908.50382,0.18436
1907.53945,0.18412
1906.57507,0.18317
1905.61069,0.18278
1904.64631,0.18310
1903.68194,0.18352
1902.71756,0.18350
1901.75318,0.18329
1900.78880,0.18325
1899.82442,0.18324
1898.86005,0.18293
1897.89567,0.18266
1896.93129,0.18284
1895.96691,0.18252
1895.00253,0.18202
1894.03816,0.18238
1893.07378,0.18249
1892.10940,0.18188
1891.14502,0.18118
1890.18065,0.18100
1889.21627,0.18135
1888.25189,0.18142
1887.28751,0.18146
1886.32313,0.18126
1885.35876,0.18095
1884.39438,0.18124
1883.43000,0.18140
1882.46562,0.18130
1881.50124,0.18129
1880.53687,0.18142
1879.57249,0.18171
1878.60811,0.18162
1877.64373,0.18122
1876.67935,0.18115
1875.71498,0.18117
1874.75060,0.18100
1873.78622,0.18095
1872.82184,0.18087
1871.85747,0.18101
1870.89309,0.18132
1869.92871,0.18148
1868.96433,0.18186
1867.99995,0.18170
1867.03558,0.18145
1866.07120,0.18168
1865.10682,0.18175
1864.14244,0.18191
1863.17806,0.18176
1862.21369,0.18168
1861.24931,0.18205
1860.28493,0.18217
1859.32055,0.18227
1858.35618,0.18249
1857.39180,0.18291
1856.42742,0.18334
1855.46304,0.18367
1854.49866,0.18380
1853.53429,0.18376
1852.56991,0.18411
1851.60553,0.18418
1850.64115,0.18421
1849.67677,0.18457
1848.71240,0.18470
1847.74802,0.18521
1846.78364,0.18595
1845.81926,0.18647
1844.85488,0.18673
1843.89051,0.18671
1842.92613,0.18708
1841.96175,0.18752
1840.99737,0.18780
1840.03300,0.18826
1839.06862,0.18868
1838.10424,0.18908
1837.13986,0.18945
1836.17548,0.18990
1835.21111,0.19050
1834.24673,0.19105
1833.28235,0.19140
1832.31797,0.19156
1831.35359,0.19192
1830.38922,0.19252
1829.42484,0.19298
1828.46046,0.19338
1827.49608,0.19392
1826.53171,0.19416
1825.56733,0.19427
1824.60295,0.19461
1823.63857,0.19487
1822.67419,0.19524
1821.70982,0.19558
1820.74544,0.19572
1819.78106,0.19606
1818.81668,0.19649
1817.85230,0.19673
1816.88793,0.19681
1815.92355,0.19702
1814.95917,0.19737
1813.99479,0.19773
1813.03041,0.19801
1812.06604,0.19804
1811.10166,0.19803
1810.13728,0.19804
1809.17290,0.19827
1808.20853,0.19854
1807.24415,0.19856
1806.27977,0.19867
1805.31539,0.19887
1804.35101,0.19910
1803.38664,0.19953
1802.42226,0.20002
1801.45788,0.20021
1800.49350,0.20027
1799.52912,0.20060
1798.56475,0.20100
1797.60037,0.20119
1796.63599,0.20138
1795.67161,0.20198
1794.70724,0.20257
1793.74286,0.20295
1792.77848,0.20348
1791.81410,0.20419
1790.84972,0.20486
1789.88535,0.20525
1788.92097,0.20578
1787.95659,0.20670
1786.99221,0.20775
1786.02783,0.20865
1785.06346,0.20925
1784.09908,0.21028
1783.13470,0.21168
1782.17032,0.21289
1781.20594,0.21384
1780.24157,0.21483
1779.27719,0.21603
1778.31281,0.21721
1777.34843,0.21855
1776.38406,0.22005
1775.41968,0.22142
1774.45530,0.22277
1773.49092,0.22443
1772.52654,0.22613
1771.56217,0.22748
1770.59779,0.22900
1769.63341,0.23051
1768.66903,0.23193
1767.70465,0.23351
1766.74028,0.23512
1765.77590,0.23683
1764.81152,0.23850
1763.84714,0.24017
1762.88276,0.24195
1761.91839,0.24370
1760.95401,0.24527
1759.98963,0.24681
1759.02525,0.24854
1758.06088,0.25032
1757.09650,0.25178
1756.13212,0.25309
1755.16774,0.25474
1754.20336,0.25652
1753.23899,0.25819
1752.27461,0.25954
1751.31023,0.26074
1750.34585,0.26225
1749.38147,0.26360
1748.41710,0.26487
1747.45272,0.26615
1746.48834,0.26736
1745.52396,0.26857
1744.55959,0.26955
1743.59521,0.27053
1742.63083,0.27147
1741.66645,0.27242
1740.70207,0.27334
1739.73770,0.27402
1738.77332,0.27449
1737.80894,0.27485
1736.84456,0.27550
1735.88018,0.27612
1734.91581,0.27636
1733.95143,0.27647
1732.98705,0.27648
1732.02267,0.27645
1731.05829,0.27634
1730.09392,0.27627
1729.12954,0.27623
1728.16516,0.27598
1727.20078,0.27552
1726.23641,0.27501
1725.27203,0.27445
1724.30765,0.27383
1723.34327,0.27311
1722.37889,0.27226
1721.41452,0.27141
1720.45014,0.27044
1719.48576,0.26956
1718.52138,0.26876
1717.55700,0.26778
1716.59263,0.26678
1715.62825,0.26572
1714.66387,0.26448
1713.69949,0.26315
1712.73512,0.26200
1711.77074,0.26069
1710.80636,0.25923
1709.84198,0.25802
1708.87760,0.25673
1707.91323,0.25533
1706.94885,0.25388
1705.98447,0.25239
1705.02009,0.25078
1704.05571,0.24919
1703.09134,0.24777
1702.12696,0.24630
1701.16258,0.24474
1700.19820,0.24307
1699.23382,0.24165
1698.26945,0.24031
1697.30507,0.23878
1696.34069,0.23724
1695.37631,0.23578
1694.41194,0.23452
1693.44756,0.23318
1692.48318,0.23178
1691.51880,0.23045
1690.55442,0.22918
1689.59005,0.22786
1688.62567,0.22652
1687.66129,0.22533
1686.69691,0.22417
1685.73253,0.22321
1684.76816,0.22213
1683.80378,0.22100
1682.83940,0.22000
1681.87502,0.21882
1680.91065,0.21774
1679.94627,0.21674
1678.98189,0.21582
1678.01751,0.21494
1677.05313,0.21413
1676.08876,0.21340
1675.12438,0.21248
1674.16000,0.21170
1673.19562,0.21111
1672.23124,0.21048
1671.26687,0.20985
1670.30249,0.20936
1669.33811,0.20888
1668.37373,0.20837
1667.40935,0.20802
1666.44498,0.20768
1665.48060,0.20735
1664.51622,0.20697
1663.55184,0.20672
1662.58747,0.20661
1661.62309,0.20654
1660.65871,0.20654
1659.69433,0.20651
1658.72995,0.20652
1657.76558,0.20660
1656.80120,0.20686
1655.83682,0.20709
1654.87244,0.20721
1653.90806,0.20750
1652.94369,0.20785
1651.97931,0.20830
1651.01493,0.20880
1650.05055,0.20923
1649.08618,0.20978
1648.12180,0.21053
1647.15742,0.21128
1646.19304,0.21206
1645.22866,0.21296
1644.26429,0.21397
1643.29991,0.21498
1642.33553,0.21597
1641.37115,0.21714
1640.40677,0.21840
1639.44240,0.21986
1638.47802,0.22138
1637.51364,0.22290
1636.54926,0.22457
1635.58488,0.22627
1634.62051,0.22817
1633.65613,0.22998
1632.69175,0.23183
1631.72737,0.23378
1630.76300,0.23570
1629.79862,0.23780
1628.83424,0.23986
1627.86986,0.24193
1626.90548,0.24395
1625.94111,0.24586
1624.97673,0.24781
1624.01235,0.24977
1623.04797,0.25162
1622.08359,0.25315
1621.11922,0.25460
1620.15484,0.25596
1619.19046,0.25725
1618.22608,0.25851
1617.26171,0.25959
1616.29733,0.26053
1615.33295,0.26128
1614.36857,0.26194
1613.40419,0.26257
1612.43982,0.26319
1611.47544,0.26381
1610.51106,0.26438
1609.54668,0.26493
1608.58230,0.26549
1607.61793,0.26598
1606.65355,0.26645
1605.68917,0.26711
1604.72479,0.26781
1603.76041,0.26849
1602.79604,0.26918
1601.83166,0.26992
1600.86728,0.27077
1599.90290,0.27154
1598.93853,0.27233
1597.97415,0.27327
1597.00977,0.27422
1596.04539,0.27505
1595.08101,0.27583
1594.11664,0.27669
1593.15226,0.27763
1592.18788,0.27864
1591.22350,0.27951
1590.25912,0.28025
1589.29475,0.28103
1588.33037,0.28174
1587.36599,0.28241
1586.40161,0.28294
1585.43724,0.28343
1584.47286,0.28401
1583.50848,0.28441
1582.54410,0.28464
1581.57972,0.28479
1580.61535,0.28486
1579.65097,0.28478
1578.68659,0.28461
1577.72221,0.28449
1576.75783,0.28412
1575.79346,0.28350
1574.82908,0.28293
1573.86470,0.28228
1572.90032,0.28156
1571.93594,0.28071
1570.97157,0.27977
1570.00719,0.27866
1569.04281,0.27751
1568.07843,0.27640
1567.11406,0.27504
1566.14968,0.27361
1565.18530,0.27211
1564.22092,0.27057
1563.25654,0.26903
1562.29217,0.26741
1561.32779,0.26587
1560.36341,0.26425
1559.39903,0.26250
1558.43465,0.26067
1557.47028,0.25888
1556.50590,0.25726
1555.54152,0.25565
1554.57714,0.25383
1553.61276,0.25187
1552.64839,0.25002
1551.68401,0.24827
1550.71963,0.24650
1549.75525,0.24466
1548.79088,0.24293
1547.82650,0.24124
1546.86212,0.23950
1545.89774,0.23780
1544.93336,0.23600
1543.96899,0.23428
1543.00461,0.23262
1542.04023,0.23097
1541.07585,0.22944
1540.11147,0.22792
1539.14710,0.22636
1538.18272,0.22477
1537.21834,0.22334
1536.25396,0.22194
1535.28959,0.22057
1534.32521,0.21930
1533.36083,0.21811
1532.39645,0.21694
1531.43207,0.21572
1530.46770,0.21459
1529.50332,0.21347
1528.53894,0.21246
1527.57456,0.21144
1526.61018,0.21031
1525.64581,0.20927
1524.68143,0.20831
1523.71705,0.20753
1522.75267,0.20672
1521.78829,0.20590
1520.82392,0.20514
1519.85954,0.20438
1518.89516,0.20375
1517.93078,0.20304
1516.96641,0.20241
1516.00203,0.20188
1515.03765,0.20138
1514.07327,0.20089
1513.10889,0.20043
1512.14452,0.20003
1511.18014,0.19956
1510.21576,0.19924
1509.25138,0.19907
1508.28700,0.19886
1507.32263,0.19858
1506.35825,0.19832
1505.39387,0.19820
1504.42949,0.19810
1503.46512,0.19807
1502.50074,0.19805
1501.53636,0.19811
1500.57198,0.19820
1499.60760,0.19826
1498.64323,0.19842
1497.67885,0.19858
1496.71447,0.19875
1495.75009,0.19897
1494.78571,0.19926
1493.82134,0.19953
1492.85696,0.19980
1491.89258,0.20030
1490.92820,0.20090
1489.96382,0.20136
1488.99945,0.20170
1488.03507,0.20228
1487.07069,0.20290
1486.10631,0.20343
1485.14194,0.20406
1484.17756,0.20476
1483.21318,0.20549
1482.24880,0.20616
1481.28442,0.20701
1480.32005,0.20791
1479.35567,0.20864
1478.39129,0.20950
1477.42691,0.21047
1476.46253,0.21144
1475.49816,0.21235
1474.53378,0.21343
1473.56940,0.21458
1472.60502,0.21564
1471.64065,0.21678
1470.67627,0.21784
1469.71189,0.21896
1468.74751,0.22020
1467.78313,0.22143
1466.81876,0.22269
1465.85438,0.22410
1464.89000,0.22550
1463.92562,0.22670
1462.96124,0.22803
1461.99687,0.22949
1461.03249,0.23100
1460.06811,0.23247
1459.10373,0.23392
1458.13935,0.23544
1457.17498,0.23691
1456.21060,0.23842
1455.24622,0.23999
1454.28184,0.24158
1453.31747,0.24314
1452.35309,0.24474
1451.38871,0.24645
1450.42433,0.24807
1449.45995,0.24970
1448.49558,0.25132
1447.53120,0.25288
1446.56682,0.25446
1445.60244,0.25605
1444.63806,0.25775
1443.67369,0.25948
1442.70931,0.26107
1441.74493,0.26261
1440.78055,0.26434
1439.81618,0.26610
1438.85180,0.26777
1437.88742,0.26945
1436.92304,0.27103
1435.95866,0.27259
1434.99429,0.27418
1434.02991,0.27578
1433.06553,0.27731
1432.10115,0.27881
1431.13677,0.28040
1430.17240,0.28195
1429.20802,0.28345
1428.24364,0.28485
1427.27926,0.28623
1426.31488,0.28770
1425.35051,0.28925
1424.38613,0.29078
1423.42175,0.29211
1422.45737,0.29342
1421.49300,0.29473
1420.52862,0.29602
1419.56424,0.29739
1418.59986,0.29869
1417.63548,0.29996
1416.67111,0.30121
1415.70673,0.30237
1414.74235,0.30361
1413.77797,0.30484
1412.81359,0.30594
1411.84922,0.30703
1410.88484,0.30806
1409.92046,0.30903
1408.95608,0.30999
1407.99171,0.31092
1407.02733,0.31196
1406.06295,0.31300
1405.09857,0.31392
1404.13419,0.31476
1403.16982,0.31565
1402.20544,0.31659
1401.24106,0.31731
1400.27668,0.31796
1399.31230,0.31870
1398.34793,0.31942
1397.38355,0.32013
1396.41917,0.32093
1395.45479,0.32179
1394.49041,0.32252
1393.52604,0.32314
1392.56166,0.32377
1391.59728,0.32441
1390.63290,0.32504
1389.66853,0.32561
1388.70415,0.32616
1387.73977,0.32680
1386.77539,0.32742
1385.81101,0.32794
1384.84664,0.32843
1383.88226,0.32890
1382.91788,0.32941
1381.95350,0.32987
1380.98912,0.33018
1380.02475,0.33058
1379.06037,0.33107
1378.09599,0.33151
1377.13161,0.33192
1376.16724,0.33225
1375.20286,0.33260
1374.23848,0.33294
1373.27410,0.33312
1372.30972,0.33342
1371.34535,0.33380
1370.38097,0.33402
1369.41659,0.33429
1368.45221,0.33462
1367.48783,0.33486
1366.52346,0.33502
1365.55908,0.33526
1364.59470,0.33546
1363.63032,0.33553
1362.66594,0.33564
1361.70157,0.33580
1360.73719,0.33603
1359.77281,0.33620
1358.80843,0.33622
1357.84406,0.33615
1356.87968,0.33613
1355.91530,0.33628
1354.95092,0.33640
1353.98654,0.33653
1353.02217,0.33665
1352.05779,0.33658
1351.09341,0.33651
1350.12903,0.33651
1349.16465,0.33653
1348.20028,0.33665
1347.23590,0.33673
1346.27152,0.33662
1345.30714,0.33656
1344.34276,0.33665
1343.37839,0.33673
1342.41401,0.33672
1341.44963,0.33675
1340.48525,0.33680
1339.52088,0.33692
1338.55650,0.33722
1337.59212,0.33737
1336.62774,0.33733
1335.66336,0.33736
1334.69899,0.33749
1333.73461,0.33758
1332.77023,0.33762
1331.80585,0.33787
1330.84147,0.33809
1329.87710,0.33830
1328.91272,0.33875
1327.94834,0.33912
1326.98396,0.33936
1326.01959,0.33968
1325.05521,0.34000
1324.09083,0.34032
1323.12645,0.34069
1322.16207,0.34112
1321.19770,0.34160
1320.23332,0.34211
1319.26894,0.34263
1318.30456,0.34317
1317.34018,0.34372
1316.37581,0.34436
1315.41143,0.34506
1314.44705,0.34581
1313.48267,0.34658
1312.51829,0.34726
1311.55392,0.34804
1310.58954,0.34885
1309.62516,0.34961
1308.66078,0.35045
1307.69641,0.35138
1306.73203,0.35230
1305.76765,0.35308
1304.80327,0.35395
1303.83889,0.35497
1302.87452,0.35597
1301.91014,0.35692
1300.94576,0.35790
1299.98138,0.35890
1299.01700,0.35991
1298.05263,0.36082
1297.08825,0.36173
1296.12387,0.36289
1295.15949,0.36398
1294.19512,0.36489
1293.23074,0.36584
1292.26636,0.36685
1291.30198,0.36791
1290.33760,0.36887
1289.37323,0.36981
1288.40885,0.37084
1287.44447,0.37184
1286.48009,0.37275
1285.51571,0.37366
1284.55134,0.37473
1283.58696,0.37567
1282.62258,0.37643
1281.65820,0.37734
1280.69382,0.37838
1279.72945,0.37927
1278.76507,0.38005
1277.80069,0.38082
1276.83631,0.38165
1275.87194,0.38265
1274.90756,0.38342
1273.94318,0.38395
1272.97880,0.38468
1272.01442,0.38539
1271.05005,0.38597
1270.08567,0.38664
1269.12129,0.38737
1268.15691,0.38799
1267.19253,0.38858
1266.22816,0.38920
1265.26378,0.38989
1264.29940,0.39045
1263.33502,0.39072
1262.37065,0.39108
1261.40627,0.39163
1260.44189,0.39216
1259.47751,0.39262
1258.51313,0.39309
1257.54876,0.39362
1256.58438,0.39396
1255.62000,0.39423
1254.65562,0.39457
1253.69124,0.39498
1252.72687,0.39534
1251.76249,0.39555
1250.79811,0.39587
1249.83373,0.39624
1248.86935,0.39648
1247.90498,0.39667
1246.94060,0.39694
1245.97622,0.39723
1245.01184,0.39730
1244.04747,0.39732
1243.08309,0.39746
1242.11871,0.39778
1241.15433,0.39799
1240.18995,0.39800
1239.22558,0.39816
1238.26120,0.39831
1237.29682,0.39828
1236.33244,0.39815
1235.36806,0.39802
1234.40369,0.39807
1233.43931,0.39816
1232.47493,0.39817
1231.51055,0.39823
1230.54618,0.39832
1229.58180,0.39820
1228.61742,0.39797
1227.65304,0.39788
1226.68866,0.39782
1225.72429,0.39763
1224.75991,0.39729
1223.79553,0.39689
1222.83115,0.39653
1221.86677,0.39617
1220.90240,0.39575
1219.93802,0.39518
1218.97364,0.39457
1218.00926,0.39402
1217.04488,0.39353
1216.08051,0.39292
1215.11613,0.39222
1214.15175,0.39168
1213.18737,0.39116
1212.22300,0.39050
1211.25862,0.38979
1210.29424,0.38908
1209.32986,0.38840
1208.36548,0.38770
1207.40111,0.38712
1206.43673,0.38658
1205.47235,0.38599
1204.50797,0.38537
1203.54359,0.38476
1202.57922,0.38424
1201.61484,0.38374
1200.65046,0.38330
1199.68608,0.38283
1198.72171,0.38234
1197.75733,0.38190
1196.79295,0.38141
1195.82857,0.38107
1194.86419,0.38087
1193.89982,0.38051
1192.93544,0.38015
1191.97106,0.37983
1191.00668,0.37948
1190.04230,0.37930
1189.07793,0.37901
1188.11355,0.37872
1187.14917,0.37881
1186.18479,0.37869
1185.22041,0.37843
1184.25604,0.37844
1183.29166,0.37841
1182.32728,0.37829
1181.36290,0.37821
1180.39853,0.37818
1179.43415,0.37802
1178.46977,0.37775
1177.50539,0.37758
1176.54101,0.37752
1175.57664,0.37748
1174.61226,0.37746
1173.64788,0.37739
1172.68350,0.37731
1171.71912,0.37726
1170.75475,0.37706
1169.79037,0.37683
1168.82599,0.37672
1167.86161,0.37671
1166.89724,0.37675
1165.93286,0.37669
1164.96848,0.37651
1164.00410,0.37621
1163.03972,0.37604
1162.07535,0.37597
1161.11097,0.37565
1160.14659,0.37531
1159.18221,0.37511
1158.21783,0.37496
1157.25346,0.37490
1156.28908,0.37491
1155.32470,0.37454
1154.36032,0.37393
1153.39594,0.37385
1152.43157,0.37389
1151.46719,0.37369
1150.50281,0.37342
1149.53843,0.37313
1148.57406,0.37300
1147.60968,0.37291
1146.64530,0.37273
1145.68092,0.37237
1144.71654,0.37219
1143.75217,0.37220
1142.78779,0.37198
1141.82341,0.37190
1140.85903,0.37187
1139.89465,0.37174
1138.93028,0.37174
1137.96590,0.37187
1137.00152,0.37214
1136.03714,0.37230
1135.07276,0.37245
1134.10839,0.37273
1133.14401,0.37288
1132.17963,0.37301
1131.21525,0.37323
1130.25088,0.37345
1129.28650,0.37373
1128.32212,0.37407
1127.35774,0.37423
1126.39336,0.37455
1125.42899,0.37530
1124.46461,0.37569
1123.50023,0.37578
1122.53585,0.37622
1121.57147,0.37680
1120.60710,0.37737
1119.64272,0.37811
1118.67834,0.37870
1117.71396,0.37903
1116.74959,0.37957
1115.78521,0.38028
1114.82083,0.38106
1113.85645,0.38202
1112.89207,0.38275
1111.92770,0.38347
1110.96332,0.38443
1109.99894,0.38522
1109.03456,0.38604
1108.07018,0.38711
1107.10581,0.38837
1106.14143,0.38962
1105.17705,0.39065
1104.21267,0.39167
1103.24829,0.39283
1102.28392,0.39414
1101.31954,0.39551
1100.35516,0.39686
1099.39078,0.39824
1098.42641,0.39982
1097.46203,0.40150
1096.49765,0.40302
1095.53327,0.40454
1094.56889,0.40618
1093.60452,0.40803
1092.64014,0.40990
1091.67576,0.41157
1090.71138,0.41330
1089.74700,0.41519
1088.78263,0.41701
1087.81825,0.41883
1086.85387,0.42092
1085.88949,0.42296
1084.92512,0.42489
1083.96074,0.42676
1082.99636,0.42856
1082.03198,0.43071
1081.06760,0.43287
1080.10323,0.43471
1079.13885,0.43648
1078.17447,0.43838
1077.21009,0.44040
1076.24571,0.44242
1075.28134,0.44445
1074.31696,0.44634
1073.35258,0.44818
1072.38820,0.44995
1071.42382,0.45147
1070.45945,0.45307
1069.49507,0.45494
1068.53069,0.45694
1067.56631,0.45875
1066.60194,0.46043
1065.63756,0.46191
1064.67318,0.46324
1063.70880,0.46473
1062.74442,0.46604
1061.78005,0.46740
1060.81567,0.46903
1059.85129,0.47052
1058.88691,0.47173
1057.92253,0.47268
1056.95816,0.47364
1055.99378,0.47453
1055.02940,0.47534
1054.06502,0.47611
1053.10065,0.47654
1052.13627,0.47664
1051.17189,0.47630
1050.20751,0.47563
1049.24313,0.47493
1048.27876,0.47401
1047.31438,0.47265
1046.35000,0.47099
1045.38562,0.46936
1044.42124,0.46743
1043.45687,0.46500
1042.49249,0.46253
1041.52811,0.45996
1040.56373,0.45728
1039.59935,0.45461
1038.63498,0.45158
1037.67060,0.44851
1036.70622,0.44560
1035.74184,0.44227
1034.77747,0.43875
1033.81309,0.43551
1032.84871,0.43237
1031.88433,0.42919
1030.91995,0.42580
1029.95558,0.42223
1028.99120,0.41885
1028.02682,0.41559
1027.06244,0.41242
1026.09806,0.40927
1025.13369,0.40600
1024.16931,0.40274
1023.20493,0.39947
1022.24055,0.39639
1021.27618,0.39358
1020.31180,0.39072
1019.34742,0.38787
1018.38304,0.38531
1017.41866,0.38300
1016.45429,0.38062
1015.48991,0.37821
1014.52553,0.37589
1013.56115,0.37369
1012.59677,0.37180
1011.63240,0.37007
1010.66802,0.36837
1009.70364,0.36679
1008.73926,0.36514
1007.77488,0.36365
1006.81051,0.36250
1005.84613,0.36158
1004.88175,0.36062
1003.91737,0.35960
1002.95300,0.35891
1001.98862,0.35817
1001.02424,0.35719
1000.05986,0.35646
999.09548,0.35609
998.13111,0.35570
997.16673,0.35494
996.20235,0.35422
995.23797,0.35373
994.27359,0.35326
993.30922,0.35297
992.34484,0.35240
991.38046,0.35157
990.41608,0.35091
989.45171,0.35027
988.48733,0.34980
987.52295,0.34930
986.55857,0.34859
985.59419,0.34779
984.62982,0.34678
983.66544,0.34577
982.70106,0.34487
981.73668,0.34402
980.77230,0.34314
979.80793,0.34215
978.84355,0.34119
977.87917,0.34004
976.91479,0.33873
975.95041,0.33758
974.98604,0.33632
974.02166,0.33487
973.05728,0.33337
972.09290,0.33199
971.12853,0.33060
970.16415,0.32898
969.19977,0.32738
968.23539,0.32589
967.27101,0.32459
966.30664,0.32334
965.34226,0.32157
964.37788,0.31963
963.41350,0.31799
962.44912,0.31639
961.48475,0.31479
960.52037,0.31314
959.55599,0.31143
958.59161,0.30986
957.62724,0.30837
956.66286,0.30684
955.69848,0.30510
954.73410,0.30336
953.76972,0.30182
952.80535,0.30020
951.84097,0.29868
950.87659,0.29712
949.91221,0.29540
948.94783,0.29405
947.98346,0.29264
947.01908,0.29089
946.05470,0.28922
945.09032,0.28778
944.12594,0.28631
943.16157,0.28460
942.19719,0.28302
941.23281,0.28148
940.26843,0.27994
939.30406,0.27859
938.33968,0.27717
937.37530,0.27576
936.41092,0.27422
935.44654,0.27272
934.48217,0.27152
933.51779,0.27016
932.55341,0.26854
931.58903,0.26690
930.62465,0.26549
929.66028,0.26425
928.69590,0.26294
927.73152,0.26154
926.76714,0.26010
925.80276,0.25863
924.83839,0.25724
923.87401,0.25612
922.90963,0.25497
921.94525,0.25365
920.98088,0.25238
920.01650,0.25123
919.05212,0.25020
918.08774,0.24905
917.12336,0.24779
916.15899,0.24669
915.19461,0.24578
914.23023,0.24492
913.26585,0.24391
912.30147,0.24292
911.33710,0.24215
910.37272,0.24145
909.40834,0.24072
908.44396,0.23999
907.47959,0.23912
906.51521,0.23838
905.55083,0.23787
904.58645,0.23722
903.62207,0.23653
902.65770,0.23596
901.69332,0.23560
900.72894,0.23534
899.76456,0.23491
898.80018,0.23450
897.83581,0.23415
896.87143,0.23373
895.90705,0.23341
894.94267,0.23330
893.97829,0.23326
893.01392,0.23302
892.04954,0.23265
891.08516,0.23251
890.12078,0.23246
889.15641,0.23220
888.19203,0.23203
887.22765,0.23216
886.26327,0.23236
885.29889,0.23235
884.33452,0.23219
883.37014,0.23221
882.40576,0.23232
881.44138,0.23224
880.47700,0.23205
879.51263,0.23189
878.54825,0.23195
877.58387,0.23228
876.61949,0.23249
875.65512,0.23250
874.69074,0.23269
873.72636,0.23284
872.76198,0.23289
871.79760,0.23292
870.83323,0.23297
869.86885,0.23324
868.90447,0.23345
867.94009,0.23377
866.97571,0.23397
866.01134,0.23393
865.04696,0.23408
864.08258,0.23399
863.11820,0.23393
862.15382,0.23418
861.18945,0.23436
860.22507,0.23432
859.26069,0.23427
858.29631,0.23456
857.33194,0.23470
856.36756,0.23455
855.40318,0.23450
854.43880,0.23444
853.47442,0.23440
852.51005,0.23450
851.54567,0.23467
850.58129,0.23465
849.61691,0.23441
848.65253,0.23425
847.68816,0.23413
846.72378,0.23393
845.75940,0.23389
844.79502,0.23392
843.83065,0.23360
842.86627,0.23319
841.90189,0.23305
840.93751,0.23298
839.97313,0.23288
839.00876,0.23271
838.04438,0.23244
837.08000,0.23215
836.11562,0.23183
835.15124,0.23147
834.18687,0.23123
833.22249,0.23094
832.25811,0.23052
831.29373,0.23018
830.32935,0.22972
829.36498,0.22930
828.40060,0.22912
827.43622,0.22878
826.47184,0.22833
825.50747,0.22803
824.54309,0.22769
823.57871,0.22716
822.61433,0.22664
821.64995,0.22624
820.68558,0.22598
819.72120,0.22578
818.75682,0.22539
817.79244,0.22508
816.82806,0.22470
815.86369,0.22426
814.89931,0.22412
813.93493,0.22397
812.97055,0.22377
812.00618,0.22337
811.04180,0.22289
810.07742,0.22252
809.11304,0.22213
808.14866,0.22189
807.18429,0.22151
806.21991,0.22116
805.25553,0.22140
804.29115,0.22165
803.32677,0.22125
802.36240,0.22095
801.39802,0.22093
800.43364,0.22039
799.46926,0.21992
798.50488,0.21991
797.54051,0.21976
796.57613,0.21945
795.61175,0.21930
794.64737,0.21932
793.68300,0.21909
792.71862,0.21889
791.75424,0.21886
790.78986,0.21853
789.82548,0.21828
788.86111,0.21833
787.89673,0.21848
786.93235,0.21837
785.96797,0.21790
785.00359,0.21765
784.03922,0.21779
783.07484,0.21795
782.11046,0.21804
781.14608,0.21783
780.18171,0.21729
779.21733,0.21713
778.25295,0.21731
777.28857,0.21754
776.32419,0.21761
775.35982,0.21722
774.39544,0.21724
773.43106,0.21727
772.46668,0.21697
771.50230,0.21708
770.53793,0.21703
769.57355,0.21711
768.60917,0.21738
767.64479,0.21718
766.68041,0.21700
765.71604,0.21702
764.75166,0.21703
763.78728,0.21708
762.82290,0.21752
761.85853,0.21760
760.89415,0.21724
759.92977,0.21752
758.96539,0.21777
758.00101,0.21757
757.03664,0.21768
756.07226,0.21791
755.10788,0.21774
754.14350,0.21738
753.17912,0.21740
752.21475,0.21766
751.25037,0.21793
750.28599,0.21820
749.32161,0.21814
748.35724,0.21821
747.39286,0.21849
746.42848,0.21845
745.46410,0.21865
744.49972,0.21887
743.53535,0.21876
742.57097,0.21905
741.60659,0.21910
740.64221,0.21873
739.67783,0.21909
738.71346,0.21974
737.74908,0.21985
736.78470,0.21972
735.82032,0.21972
734.85594,0.22001
733.89157,0.22061
732.92719,0.22081
731.96281,0.22048
730.99843,0.22050
730.03406,0.22109
729.06968,0.22164
728.10530,0.22178
727.14092,0.22181
726.17654,0.22185
725.21217,0.22196
724.24779,0.22212
723.28341,0.22219
722.31903,0.22227
721.35465,0.22254
720.39028,0.22299
719.42590,0.22309
718.46152,0.22298
717.49714,0.22321
716.53276,0.22340
715.56839,0.22354
714.60401,0.22396
713.63963,0.22447
712.67525,0.22483
711.71088,0.22517
710.74650,0.22535
709.78212,0.22547
708.81774,0.22567
707.85336,0.22572
706.88899,0.22586
705.92461,0.22587
704.96023,0.22581
703.99585,0.22617
703.03147,0.22651
702.06710,0.22672
701.10272,0.22697
700.13834,0.22709
699.17396,0.22707
698.20959,0.22699
697.24521,0.22700
696.28083,0.22723
695.31645,0.22764
694.35207,0.22789
693.38770,0.22795
692.42332,0.22801
691.45894,0.22812
690.49456,0.22830
689.53018,0.22850
688.56581,0.22877
687.60143,0.22882
686.63705,0.22852
685.67267,0.22842
684.70829,0.22873
683.74392,0.22899
682.77954,0.22926
681.81516,0.22955
680.85078,0.22940
679.88641,0.22928
678.92203,0.22949
677.95765,0.22977
676.99327,0.22991
676.02889,0.23003
675.06452,0.23026
674.10014,0.23027
673.13576,0.23024
672.17138,0.23030
671.20700,0.23055
670.24263,0.23060
669.27825,0.23058
668.31387,0.23152
667.34949,0.23187
666.38512,0.23123
665.42074,0.23111
664.45636,0.23107
663.49198,0.23112
662.52760,0.23124
661.56323,0.23137
660.59885,0.23166
659.63447,0.23171
658.67009,0.23163
657.70571,0.23182
656.74134,0.23199
655.77696,0.23206
654.81258,0.23216
653.84820,0.23202
652.88382,0.23197
651.91945,0.23245
650.95507,0.23299
649.99069,0.23300
649.02631,0.23287
648.06194,0.23313
647.09756,0.23335
646.13318,0.23330
645.16880,0.23318
644.20442,0.23320
643.24005,0.23322
642.27567,0.23306
641.31129,0.23334
640.34691,0.23399
639.38253,0.23431
638.41816,0.23418
637.45378,0.23427
636.48940,0.23469
635.52502,0.23464
634.56065,0.23495
633.59627,0.23551
632.63189,0.23534
631.66751,0.23505
630.70313,0.23488
629.73876,0.23503
628.77438,0.23516
627.81000,0.23461
626.84562,0.23451
625.88124,0.23453
624.91687,0.23427
623.95249,0.23424
622.98811,0.23424
622.02373,0.23735
621.05935,0.23684
620.09498,0.23458
619.13060,0.23516
618.16622,0.23452
617.20184,0.23707
616.23747,0.23854
615.27309,0.24005
614.30871,0.24573
613.34433,0.24724
612.37995,0.24252
611.41558,0.23611
610.45120,0.23831
609.48682,0.24197
608.52244,0.23753
607.55806,0.23608
606.59369,0.23678
605.62931,0.23827
604.66493,0.24182
603.70055,0.24390
602.73618,0.24370
601.77180,0.24448
600.80742,0.24620
599.84304,0.24604
598.87866,0.24593
597.91429,0.24658
596.94991,0.24686
595.98553,0.24774
595.02115,0.24890
594.05677,0.24927
593.09240,0.24952
592.12802,0.25045
591.16364,0.25141
590.19926,0.25206
589.23488,0.25260
588.27051,0.25243
587.30613,0.25177
586.34175,0.25207
585.37737,0.25319
584.41300,0.25364
583.44862,0.25355
582.48424,0.25336
581.51986,0.25331
580.55548,0.25400
579.59111,0.25410
578.62673,0.25370
577.66235,0.25376
576.69797,0.25298
575.73359,0.25172
574.76922,0.25109
573.80484,0.25057
572.84046,0.25021
571.87608,0.25039
570.91171,0.25025
569.94733,0.24886
568.98295,0.24795
568.01857,0.24813
567.05419,0.24728
566.08982,0.24660
565.12544,0.24642
564.16106,0.24543
563.19668,0.24517
562.23230,0.24509
561.26793,0.24457
560.30355,0.24439
559.33917,0.24404
558.37479,0.24336
557.41041,0.24250
556.44604,0.24237
555.48166,0.24245
554.51728,0.24225
553.55290,0.24230
552.58853,0.24166
551.62415,0.24095
550.65977,0.24070
549.69539,0.24107
548.73101,0.24192
547.76664,0.24160
546.80226,0.24091
545.83788,0.24085
544.87350,0.24108
543.90912,0.24141
542.94475,0.24148
541.98037,0.24127
541.01599,0.24112
540.05161,0.24103
539.08724,0.24078
538.12286,0.24060
537.15848,0.24036
536.19410,0.24061
535.22972,0.24119
534.26535,0.24075
533.30097,0.24050
532.33659,0.24108
531.37221,0.24118
530.40783,0.24048
529.44346,0.23997
528.47908,0.23971
527.51470,0.23883
526.55032,0.23848
525.58594,0.23920
524.62157,0.23972
523.65719,0.23974
522.69281,0.24013
521.72843,0.24067
520.76406,0.24050
519.79968,0.24036
518.83530,0.24031
517.87092,0.24027
516.90654,0.24019
515.94217,0.23918
514.97779,0.23810
514.01341,0.23859
513.04903,0.23998
512.08465,0.24018
511.12028,0.23949
510.15590,0.23899
509.19152,0.23906
508.22714,0.23973
507.26276,0.23964
506.29839,0.23896
505.33401,0.23831
504.36963,0.23777
503.40525,0.23773
502.44088,0.23772
501.47650,0.23760
500.51212,0.23800
499.54774,0.23867
498.58336,0.23866
497.61899,0.23859
496.65461,0.23871
495.69023,0.23893
494.72585,0.23958
493.76147,0.23979
492.79710,0.23989
491.83272,0.23975
490.86834,0.23889
489.90396,0.23803
488.93959,0.23773
487.97521,0.23861
487.01083,0.23937
486.04645,0.23920
485.08207,0.23883
484.11770,0.23851
483.15332,0.23809
482.18894,0.23762
481.22456,0.23782
480.26018,0.23806
479.29581,0.23784
478.33143,0.23766
477.36705,0.23841
476.40267,0.23905
475.43829,0.23763
474.47392,0.23657
473.50954,0.23706
472.54516,0.23751
471.58078,0.23749
470.61641,0.23694
469.65203,0.23717
468.68765,0.23829
467.72327,0.23894
466.75889,0.23875
465.79452,0.23833
464.83014,0.23839
463.86576,0.23824
462.90138,0.23724
461.93700,0.23661
460.97263,0.23684
460.00825,0.23698
459.04387,0.23704
458.07949,0.23693
457.11512,0.23679
456.15074,0.23664
455.18636,0.23582
454.22198,0.23551
453.25760,0.23589
452.29323,0.23621
451.32885,0.23623
450.36447,0.23609
449.40009,0.23663
448.43571,0.23725
447.47134,0.23718
446.50696,0.23635
445.54258,0.23613
444.57820,0.23597
443.61382,0.23484
442.64945,0.23477
441.68507,0.23469
440.72069,0.23424
439.75631,0.23425
438.79194,0.23346
437.82756,0.23298
436.86318,0.23346
435.89880,0.23383
434.93442,0.23305
433.97005,0.23222
433.00567,0.23243
432.04129,0.23233
431.07691,0.23205
430.11253,0.23197
429.14816,0.23164
428.18378,0.23117
427.21940,0.23076
426.25502,0.23012
425.29065,0.22941
424.32627,0.22885
423.36189,0.22816
422.39751,0.22807
421.43313,0.22814
420.46876,0.22747
419.50438,0.22673
418.54000,0.22645
417.57562,0.22634
416.61124,0.22575
415.64687,0.22508
414.68249,0.22514
413.71811,0.22514
412.75373,0.22443
411.78935,0.22375
410.82498,0.22319
409.86060,0.22273
408.89622,0.22277
407.93184,0.22288
406.96747,0.22259
406.00309,0.22160
405.03871,0.22078
404.07433,0.22027
403.10995,0.21986
402.14558,0.22008
401.18120,0.21998
400.21682,0.21940
399.25244,0.21826
