3998.31069,0.00196
3997.34631,0.00196
3996.38194,0.00196
3995.41756,0.00196
3994.45318,0.00196
3993.48880,0.00196
3992.52442,0.00196
3991.56005,0.00202
3990.59567,0.00199
3989.63129,0.00190
3988.66691,0.00181
3987.70253,0.00177
3986.73816,0.00174
3985.77378,0.00173
3984.80940,0.00173
3983.84502,0.00167
3982.88065,0.00164
3981.91627,0.00165
3980.95189,0.00176
3979.98751,0.00187
3979.02313,0.00185
3978.05876,0.00179
3977.09438,0.00174
3976.13000,0.00166
3975.16562,0.00157
3974.20124,0.00152
3973.23687,0.00143
3972.27249,0.00131
3971.30811,0.00129
3970.34373,0.00134
3969.37935,0.00142
3968.41498,0.00149
3967.45060,0.00153
3966.48622,0.00163
3965.52184,0.00172
3964.55747,0.00172
3963.59309,0.00169
3962.62871,0.00165
3961.66433,0.00160
3960.69995,0.00158
3959.73558,0.00161
3958.77120,0.00166
3957.80682,0.00171
3956.84244,0.00176
3955.87806,0.00180
3954.91369,0.00180
3953.94931,0.00176
3952.98493,0.00170
3952.02055,0.00162
3951.05618,0.00158
3950.09180,0.00162
3949.12742,0.00168
3948.16304,0.00172
3947.19866,0.00182
3946.23429,0.00198
3945.26991,0.00214
3944.30553,0.00222
3943.34115,0.00221
3942.37677,0.00222
3941.41240,0.00220
3940.44802,0.00214
3939.48364,0.00212
3938.51926,0.00212
3937.55488,0.00206
3936.59051,0.00198
3935.62613,0.00197
3934.66175,0.00199
3933.69737,0.00196
3932.73300,0.00189
3931.76862,0.00179
3930.80424,0.00172
3929.83986,0.00166
3928.87548,0.00159
3927.91111,0.00156
3926.94673,0.00153
3925.98235,0.00150
3925.01797,0.00152
3924.05359,0.00162
3923.08922,0.00175
3922.12484,0.00188
3921.16046,0.00194
3920.19608,0.00192
3919.23171,0.00188
3918.26733,0.00188
3917.30295,0.00187
3916.33857,0.00180
3915.37419,0.00170
3914.40982,0.00164
3913.44544,0.00163
3912.48106,0.00165
3911.51668,0.00164
3910.55230,0.00160
3909.58793,0.00154
3908.62355,0.00146
3907.65917,0.00140
3906.69479,0.00140
3905.73041,0.00134
3904.76604,0.00125
3903.80166,0.00125
3902.83728,0.00134
3901.87290,0.00146
3900.90853,0.00155
3899.94415,0.00161
3898.97977,0.00166
3898.01539,0.00168
3897.05101,0.00168
3896.08664,0.00169
3895.12226,0.00170
3894.15788,0.00168
3893.19350,0.00167
3892.22912,0.00168
3891.26475,0.00172
3890.30037,0.00177
3889.33599,0.00182
3888.37161,0.00187
3887.40724,0.00179
3886.44286,0.00167
3885.47848,0.00169
3884.51410,0.00183
3883.54972,0.00199
3882.58535,0.00211
3881.62097,0.00218
3880.65659,0.00220
3879.69221,0.00224
3878.72783,0.00225
3877.76346,0.00218
3876.79908,0.00199
3875.83470,0.00174
3874.87032,0.00157
3873.90594,0.00154
3872.94157,0.00155
3871.97719,0.00155
3871.01281,0.00159
3870.04843,0.00167
3869.08406,0.00175
3868.11968,0.00186
3867.15530,0.00199
3866.19092,0.00205
3865.22654,0.00205
3864.26217,0.00204
3863.29779,0.00205
3862.33341,0.00204
3861.36903,0.00195
3860.40465,0.00180
3859.44028,0.00171
3858.47590,0.00162
3857.51152,0.00153
3856.54714,0.00153
3855.58276,0.00153
3854.61839,0.00153
3853.65401,0.00152
3852.68963,0.00154
3851.72525,0.00161
3850.76088,0.00163
3849.79650,0.00158
3848.83212,0.00155
3847.86774,0.00157
3846.90336,0.00159
3845.93899,0.00161
3844.97461,0.00157
3844.01023,0.00148
3843.04585,0.00150
3842.08147,0.00158
3841.11710,0.00166
3840.15272,0.00175
3839.18834,0.00182
3838.22396,0.00187
3837.25959,0.00190
3836.29521,0.00191
3835.33083,0.00191
3834.36645,0.00190
3833.40207,0.00181
3832.43770,0.00174
3831.47332,0.00173
3830.50894,0.00167
3829.54456,0.00158
3828.58018,0.00147
3827.61581,0.00137
3826.65143,0.00127
3825.68705,0.00118
3824.72267,0.00120
3823.75829,0.00128
3822.79392,0.00134
3821.82954,0.00140
3820.86516,0.00152
3819.90078,0.00169
3818.93641,0.00183
3817.97203,0.00188
3817.00765,0.00183
3816.04327,0.00176
3815.07889,0.00169
3814.11452,0.00161
3813.15014,0.00155
3812.18576,0.00147
3811.22138,0.00142
3810.25700,0.00143
3809.29263,0.00152
3808.32825,0.00160
3807.36387,0.00165
3806.39949,0.00176
3805.43512,0.00184
3804.47074,0.00193
3803.50636,0.00201
3802.54198,0.00203
3801.57760,0.00200
3800.61323,0.00199
3799.64885,0.00199
3798.68447,0.00196
3797.72009,0.00191
3796.75571,0.00183
3795.79134,0.00176
3794.82696,0.00176
3793.86258,0.00174
3792.89820,0.00170
3791.93382,0.00163
3790.96945,0.00153
3790.00507,0.00146
3789.04069,0.00140
3788.07631,0.00138
3787.11194,0.00142
3786.14756,0.00145
3785.18318,0.00142
3784.21880,0.00142
3783.25442,0.00151
3782.29005,0.00164
3781.32567,0.00177
3780.36129,0.00187
3779.39691,0.00193
3778.43253,0.00195
3777.46816,0.00193
3776.50378,0.00185
3775.53940,0.00176
3774.57502,0.00162
3773.61065,0.00148
3772.64627,0.00140
3771.68189,0.00140
3770.71751,0.00143
3769.75313,0.00145
3768.78876,0.00147
3767.82438,0.00148
3766.86000,0.00150
3765.89562,0.00153
3764.93124,0.00158
3763.96687,0.00164
3763.00249,0.00166
3762.03811,0.00164
3761.07373,0.00162
3760.10935,0.00158
3759.14498,0.00151
3758.18060,0.00147
3757.21622,0.00155
3756.25184,0.00162
3755.28747,0.00168
3754.32309,0.00184
3753.35871,0.00200
3752.39433,0.00205
3751.42995,0.00198
3750.46558,0.00195
3749.50120,0.00201
3748.53682,0.00202
3747.57244,0.00198
3746.60806,0.00198
3745.64369,0.00199
3744.67931,0.00196
3743.71493,0.00196
3742.75055,0.00194
3741.78618,0.00185
3740.82180,0.00176
3739.85742,0.00174
3738.89304,0.00182
3737.92866,0.00192
3736.96429,0.00198
3735.99991,0.00198
3735.03553,0.00194
3734.07115,0.00189
3733.10677,0.00183
3732.14240,0.00176
3731.17802,0.00166
3730.21364,0.00161
3729.24926,0.00164
3728.28488,0.00175
3727.32051,0.00190
3726.35613,0.00205
3725.39175,0.00220
3724.42737,0.00225
3723.46300,0.00224
3722.49862,0.00216
3721.53424,0.00205
3720.56986,0.00194
3719.60548,0.00177
3718.64111,0.00155
3717.67673,0.00138
3716.71235,0.00128
3715.74797,0.00121
3714.78359,0.00116
3713.81922,0.00112
3712.85484,0.00110
3711.89046,0.00114
3710.92608,0.00122
3709.96171,0.00124
3708.99733,0.00123
3708.03295,0.00128
3707.06857,0.00139
3706.10419,0.00153
3705.13982,0.00163
3704.17544,0.00169
3703.21106,0.00182
3702.24668,0.00195
3701.28230,0.00200
3700.31793,0.00200
3699.35355,0.00193
3698.38917,0.00170
3697.42479,0.00148
3696.46041,0.00138
3695.49604,0.00129
3694.53166,0.00116
3693.56728,0.00109
3692.60290,0.00111
3691.63853,0.00118
3690.67415,0.00121
3689.70977,0.00122
3688.74539,0.00128
3687.78101,0.00135
3686.81664,0.00137
3685.85226,0.00137
3684.88788,0.00143
3683.92350,0.00147
3682.95912,0.00149
3681.99475,0.00152
3681.03037,0.00152
3680.06599,0.00154
3679.10161,0.00163
3678.13724,0.00170
3677.17286,0.00172
3676.20848,0.00177
3675.24410,0.00184
3674.27972,0.00190
3673.31535,0.00195
3672.35097,0.00200
3671.38659,0.00200
3670.42221,0.00188
3669.45783,0.00171
3668.49346,0.00159
3667.52908,0.00148
3666.56470,0.00133
3665.60032,0.00121
3664.63594,0.00123
3663.67157,0.00133
3662.70719,0.00142
3661.74281,0.00153
3660.77843,0.00166
3659.81406,0.00178
3658.84968,0.00181
3657.88530,0.00176
3656.92092,0.00165
3655.95654,0.00158
3654.99217,0.00158
3654.02779,0.00165
3653.06341,0.00177
3652.09903,0.00187
3651.13465,0.00195
3650.17028,0.00206
3649.20590,0.00210
3648.24152,0.00204
3647.27714,0.00187
3646.31276,0.00165
3645.34839,0.00146
3644.38401,0.00131
3643.41963,0.00118
3642.45525,0.00111
3641.49088,0.00118
3640.52650,0.00128
3639.56212,0.00137
3638.59774,0.00147
3637.63336,0.00151
3636.66899,0.00142
3635.70461,0.00132
3634.74023,0.00132
3633.77585,0.00142
3632.81147,0.00150
3631.84710,0.00153
3630.88272,0.00158
3629.91834,0.00167
3628.95396,0.00172
3627.98959,0.00169
3627.02521,0.00167
3626.06083,0.00157
3625.09645,0.00147
3624.13207,0.00151
3623.16770,0.00160
3622.20332,0.00171
3621.23894,0.00175
3620.27456,0.00172
3619.31018,0.00169
3618.34581,0.00164
3617.38143,0.00163
3616.41705,0.00163
3615.45267,0.00162
3614.48829,0.00163
3613.52392,0.00176
3612.55954,0.00197
3611.59516,0.00209
3610.63078,0.00211
3609.66641,0.00207
3608.70203,0.00204
3607.73765,0.00202
3606.77327,0.00200
3605.80889,0.00203
3604.84452,0.00204
3603.88014,0.00204
3602.91576,0.00205
3601.95138,0.00207
3600.98700,0.00212
3600.02263,0.00207
3599.05825,0.00190
3598.09387,0.00174
3597.12949,0.00165
3596.16512,0.00159
3595.20074,0.00161
3594.23636,0.00170
3593.27198,0.00176
3592.30760,0.00189
3591.34323,0.00208
3590.37885,0.00228
3589.41447,0.00244
3588.45009,0.00251
3587.48571,0.00250
3586.52134,0.00250
3585.55696,0.00255
3584.59258,0.00259
3583.62820,0.00261
3582.66382,0.00260
3581.69945,0.00254
3580.73507,0.00251
3579.77069,0.00243
3578.80631,0.00233
3577.84194,0.00222
3576.87756,0.00212
3575.91318,0.00207
3574.94880,0.00208
3573.98442,0.00218
3573.02005,0.00233
3572.05567,0.00244
3571.09129,0.00251
3570.12691,0.00254
3569.16253,0.00251
3568.19816,0.00246
3567.23378,0.00245
3566.26940,0.00244
3565.30502,0.00245
3564.34065,0.00244
3563.37627,0.00239
3562.41189,0.00236
3561.44751,0.00238
3560.48313,0.00240
3559.51876,0.00239
3558.55438,0.00243
3557.59000,0.00250
3556.62562,0.00260
3555.66124,0.00271
3554.69687,0.00278
3553.73249,0.00281
3552.76811,0.00277
3551.80373,0.00269
3550.83935,0.00266
3549.87498,0.00267
3548.91060,0.00263
3547.94622,0.00257
3546.98184,0.00263
3546.01747,0.00274
3545.05309,0.00281
3544.08871,0.00284
3543.12433,0.00279
3542.15995,0.00268
3541.19558,0.00263
3540.23120,0.00262
3539.26682,0.00261
3538.30244,0.00256
3537.33806,0.00254
3536.37369,0.00263
3535.40931,0.00287
3534.44493,0.00307
3533.48055,0.00313
3532.51618,0.00314
3531.55180,0.00308
3530.58742,0.00298
3529.62304,0.00294
3528.65866,0.00289
3527.69429,0.00284
3526.72991,0.00285
3525.76553,0.00292
3524.80115,0.00306
3523.83677,0.00318
3522.87240,0.00320
3521.90802,0.00315
3520.94364,0.00314
3519.97926,0.00321
3519.01488,0.00325
3518.05051,0.00327
3517.08613,0.00329
3516.12175,0.00327
3515.15737,0.00328
3514.19300,0.00328
3513.22862,0.00325
3512.26424,0.00319
3511.29986,0.00310
3510.33548,0.00305
3509.37111,0.00309
3508.40673,0.00319
3507.44235,0.00326
3506.47797,0.00330
3505.51359,0.00337
3504.54922,0.00341
3503.58484,0.00347
3502.62046,0.00353
3501.65608,0.00360
3500.69171,0.00367
3499.72733,0.00367
3498.76295,0.00368
3497.79857,0.00369
3496.83419,0.00370
3495.86982,0.00368
3494.90544,0.00363
3493.94106,0.00359
3492.97668,0.00355
3492.01230,0.00346
3491.04793,0.00338
3490.08355,0.00334
3489.11917,0.00326
3488.15479,0.00319
3487.19041,0.00319
3486.22604,0.00324
3485.26166,0.00334
3484.29728,0.00343
3483.33290,0.00350
3482.36853,0.00364
3481.40415,0.00381
3480.43977,0.00395
3479.47539,0.00405
3478.51101,0.00408
3477.54664,0.00405
3476.58226,0.00403
3475.61788,0.00402
3474.65350,0.00397
3473.68912,0.00390
3472.72475,0.00378
3471.76037,0.00368
3470.79599,0.00366
3469.83161,0.00370
3468.86724,0.00377
3467.90286,0.00381
3466.93848,0.00380
3465.97410,0.00377
3465.00972,0.00376
3464.04535,0.00379
3463.08097,0.00380
3462.11659,0.00381
3461.15221,0.00381
3460.18783,0.00386
3459.22346,0.00394
3458.25908,0.00401
3457.29470,0.00405
3456.33032,0.00405
3455.36594,0.00403
3454.40157,0.00402
3453.43719,0.00403
3452.47281,0.00403
3451.50843,0.00398
3450.54406,0.00392
3449.57968,0.00391
3448.61530,0.00402
3447.65092,0.00414
3446.68654,0.00418
3445.72217,0.00422
3444.75779,0.00430
3443.79341,0.00445
3442.82903,0.00456
3441.86465,0.00458
3440.90028,0.00452
3439.93590,0.00438
3438.97152,0.00426
3438.00714,0.00420
3437.04276,0.00418
3436.07839,0.00417
3435.11401,0.00413
3434.14963,0.00409
3433.18525,0.00409
3432.22088,0.00413
3431.25650,0.00414
3430.29212,0.00413
3429.32774,0.00416
3428.36336,0.00421
3427.39899,0.00424
3426.43461,0.00426
3425.47023,0.00428
3424.50585,0.00434
3423.54147,0.00440
3422.57710,0.00447
3421.61272,0.00452
3420.64834,0.00457
3419.68396,0.00461
3418.71959,0.00463
3417.75521,0.00465
3416.79083,0.00461
3415.82645,0.00448
3414.86207,0.00438
3413.89770,0.00432
3412.93332,0.00429
3411.96894,0.00432
3411.00456,0.00441
3410.04018,0.00451
3409.07581,0.00458
3408.11143,0.00463
3407.14705,0.00467
3406.18267,0.00472
3405.21829,0.00471
3404.25392,0.00467
3403.28954,0.00466
3402.32516,0.00462
3401.36078,0.00455
3400.39641,0.00451
3399.43203,0.00453
3398.46765,0.00453
3397.50327,0.00445
3396.53889,0.00441
3395.57452,0.00440
3394.61014,0.00437
3393.64576,0.00429
3392.68138,0.00423
3391.71700,0.00419
3390.75263,0.00413
3389.78825,0.00409
3388.82387,0.00415
3387.85949,0.00428
3386.89512,0.00437
3385.93074,0.00442
3384.96636,0.00450
3384.00198,0.00456
3383.03760,0.00455
3382.07323,0.00451
3381.10885,0.00448
3380.14447,0.00445
3379.18009,0.00444
3378.21571,0.00446
3377.25134,0.00451
3376.28696,0.00454
3375.32258,0.00456
3374.35820,0.00461
3373.39382,0.00468
3372.42945,0.00471
3371.46507,0.00468
3370.50069,0.00467
3369.53631,0.00466
3368.57194,0.00463
3367.60756,0.00457
3366.64318,0.00451
3365.67880,0.00445
3364.71442,0.00443
3363.75005,0.00448
3362.78567,0.00453
3361.82129,0.00454
3360.85691,0.00453
3359.89253,0.00455
3358.92816,0.00461
3357.96378,0.00460
3356.99940,0.00450
3356.03502,0.00440
3355.07065,0.00436
3354.10627,0.00435
3353.14189,0.00436
3352.17751,0.00434
3351.21313,0.00426
3350.24876,0.00420
3349.28438,0.00424
3348.32000,0.00432
3347.35562,0.00434
3346.39124,0.00433
3345.42687,0.00430
3344.46249,0.00428
3343.49811,0.00426
3342.53373,0.00423
3341.56935,0.00418
3340.60498,0.00412
3339.64060,0.00407
3338.67622,0.00406
3337.71184,0.00409
3336.74747,0.00409
3335.78309,0.00407
3334.81871,0.00406
3333.85433,0.00406
3332.88995,0.00407
3331.92558,0.00406
3330.96120,0.00399
3329.99682,0.00395
3329.03244,0.00394
3328.06806,0.00398
3327.10369,0.00400
3326.13931,0.00399
3325.17493,0.00397
3324.21055,0.00396
3323.24618,0.00400
3322.28180,0.00407
3321.31742,0.00409
3320.35304,0.00405
3319.38866,0.00401
3318.42429,0.00403
3317.45991,0.00406
3316.49553,0.00410
3315.53115,0.00410
3314.56677,0.00403
3313.60240,0.00398
3312.63802,0.00399
3311.67364,0.00404
3310.70926,0.00403
3309.74488,0.00395
3308.78051,0.00389
3307.81613,0.00389
3306.85175,0.00394
3305.88737,0.00400
3304.92300,0.00406
3303.95862,0.00404
3302.99424,0.00398
3302.02986,0.00398
3301.06548,0.00399
3300.10111,0.00396
3299.13673,0.00385
3298.17235,0.00376
3297.20797,0.00370
3296.24359,0.00365
3295.27922,0.00365
3294.31484,0.00366
3293.35046,0.00366
3292.38608,0.00361
3291.42171,0.00357
3290.45733,0.00360
3289.49295,0.00365
3288.52857,0.00369
3287.56419,0.00373
3286.59982,0.00379
3285.63544,0.00384
3284.67106,0.00385
3283.70668,0.00386
3282.74230,0.00382
3281.77793,0.00375
3280.81355,0.00368
3279.84917,0.00360
3278.88479,0.00351
3277.92041,0.00342
3276.95604,0.00336
3275.99166,0.00333
3275.02728,0.00331
3274.06290,0.00333
3273.09853,0.00337
3272.13415,0.00342
3271.16977,0.00347
3270.20539,0.00354
3269.24101,0.00359
3268.27664,0.00361
3267.31226,0.00361
3266.34788,0.00362
3265.38350,0.00366
3264.41912,0.00369
3263.45475,0.00368
3262.49037,0.00364
3261.52599,0.00356
3260.56161,0.00346
3259.59724,0.00331
3258.63286,0.00314
3257.66848,0.00297
3256.70410,0.00285
3255.73972,0.00280
3254.77535,0.00280
3253.81097,0.00286
3252.84659,0.00298
3251.88221,0.00316
3250.91783,0.00337
3249.95346,0.00353
3248.98908,0.00358
3248.02470,0.00356
3247.06032,0.00350
3246.09594,0.00346
3245.13157,0.00342
3244.16719,0.00332
3243.20281,0.00319
3242.23843,0.00312
3241.27406,0.00312
3240.30968,0.00316
3239.34530,0.00318
3238.38092,0.00318
3237.41654,0.00314
3236.45217,0.00310
3235.48779,0.00309
3234.52341,0.00307
3233.55903,0.00302
3232.59465,0.00297
3231.63028,0.00296
3230.66590,0.00300
3229.70152,0.00302
3228.73714,0.00302
3227.77276,0.00300
3226.80839,0.00300
3225.84401,0.00298
3224.87963,0.00292
3223.91525,0.00288
3222.95088,0.00282
3221.98650,0.00281
3221.02212,0.00288
3220.05774,0.00296
3219.09336,0.00301
3218.12899,0.00304
3217.16461,0.00306
3216.20023,0.00306
3215.23585,0.00305
3214.27147,0.00306
3213.30710,0.00308
3212.34272,0.00308
3211.37834,0.00306
3210.41396,0.00306
3209.44959,0.00304
3208.48521,0.00299
3207.52083,0.00291
3206.55645,0.00285
3205.59207,0.00284
3204.62770,0.00285
3203.66332,0.00289
3202.69894,0.00297
3201.73456,0.00309
3200.77018,0.00317
3199.80581,0.00321
3198.84143,0.00322
3197.87705,0.00320
3196.91267,0.00313
3195.94829,0.00304
3194.98392,0.00296
3194.01954,0.00295
3193.05516,0.00298
3192.09078,0.00302
3191.12641,0.00305
3190.16203,0.00311
3189.19765,0.00315
3188.23327,0.00313
3187.26889,0.00310
3186.30452,0.00309
3185.34014,0.00303
3184.37576,0.00294
3183.41138,0.00291
3182.44700,0.00300
3181.48263,0.00311
3180.51825,0.00315
3179.55387,0.00312
3178.58949,0.00308
3177.62512,0.00304
3176.66074,0.00297
3175.69636,0.00292
3174.73198,0.00290
3173.76760,0.00287
3172.80323,0.00286
3171.83885,0.00289
3170.87447,0.00294
3169.91009,0.00296
3168.94571,0.00292
3167.98134,0.00289
3167.01696,0.00286
3166.05258,0.00283
3165.08820,0.00281
3164.12382,0.00281
3163.15945,0.00281
3162.19507,0.00275
3161.23069,0.00263
3160.26631,0.00254
3159.30194,0.00246
3158.33756,0.00243
3157.37318,0.00246
3156.40880,0.00248
3155.44442,0.00249
3154.48005,0.00254
3153.51567,0.00265
3152.55129,0.00277
3151.58691,0.00285
3150.62253,0.00287
3149.65816,0.00286
3148.69378,0.00286
3147.72940,0.00286
3146.76502,0.00285
3145.80065,0.00284
3144.83627,0.00279
3143.87189,0.00279
3142.90751,0.00288
3141.94313,0.00298
3140.97876,0.00306
3140.01438,0.00309
3139.05000,0.00307
3138.08562,0.00302
3137.12124,0.00294
3136.15687,0.00289
3135.19249,0.00284
3134.22811,0.00281
3133.26373,0.00281
3132.29935,0.00284
3131.33498,0.00287
3130.37060,0.00288
3129.40622,0.00285
3128.44184,0.00280
3127.47747,0.00280
3126.51309,0.00284
3125.54871,0.00289
3124.58433,0.00295
3123.61995,0.00299
3122.65558,0.00300
3121.69120,0.00297
3120.72682,0.00288
3119.76244,0.00275
3118.79806,0.00271
3117.83369,0.00273
3116.86931,0.00279
3115.90493,0.00288
3114.94055,0.00295
3113.97618,0.00301
3113.01180,0.00306
3112.04742,0.00308
3111.08304,0.00306
3110.11866,0.00301
3109.15429,0.00300
3108.18991,0.00304
3107.22553,0.00314
3106.26115,0.00326
3105.29677,0.00331
3104.33240,0.00329
3103.36802,0.00325
3102.40364,0.00320
3101.43926,0.00311
3100.47488,0.00309
3099.51051,0.00312
3098.54613,0.00320
3097.58175,0.00331
3096.61737,0.00339
3095.65300,0.00345
3094.68862,0.00348
3093.72424,0.00347
3092.75986,0.00339
3091.79548,0.00328
3090.83111,0.00326
3089.86673,0.00332
3088.90235,0.00349
3087.93797,0.00361
3086.97359,0.00362
3086.00922,0.00356
3085.04484,0.00349
3084.08046,0.00343
3083.11608,0.00332
3082.15171,0.00323
3081.18733,0.00321
3080.22295,0.00326
3079.25857,0.00346
3078.29419,0.00365
3077.32982,0.00374
3076.36544,0.00374
3075.40106,0.00371
3074.43668,0.00369
3073.47230,0.00367
3072.50793,0.00368
3071.54355,0.00373
3070.57917,0.00384
3069.61479,0.00396
3068.65041,0.00405
3067.68604,0.00411
3066.72166,0.00408
3065.75728,0.00399
3064.79290,0.00389
3063.82853,0.00377
3062.86415,0.00371
3061.89977,0.00372
3060.93539,0.00378
3059.97101,0.00382
3059.00664,0.00380
3058.04226,0.00378
3057.07788,0.00380
3056.11350,0.00377
3055.14912,0.00367
3054.18475,0.00358
3053.22037,0.00350
3052.25599,0.00349
3051.29161,0.00357
3050.32724,0.00364
3049.36286,0.00366
3048.39848,0.00366
3047.43410,0.00368
3046.46972,0.00370
3045.50535,0.00371
3044.54097,0.00369
3043.57659,0.00370
3042.61221,0.00375
3041.64783,0.00385
3040.68346,0.00396
3039.71908,0.00400
3038.75470,0.00400
3037.79032,0.00398
3036.82594,0.00397
3035.86157,0.00396
3034.89719,0.00391
3033.93281,0.00385
3032.96843,0.00383
3032.00406,0.00383
3031.03968,0.00384
3030.07530,0.00387
3029.11092,0.00394
3028.14654,0.00399
3027.18217,0.00401
3026.21779,0.00404
3025.25341,0.00405
3024.28903,0.00402
3023.32465,0.00407
3022.36028,0.00430
3021.39590,0.00469
3020.43152,0.00510
3019.46714,0.00547
3018.50276,0.00577
3017.53839,0.00596
3016.57401,0.00599
3015.60963,0.00586
3014.64525,0.00559
3013.68088,0.00521
3012.71650,0.00482
3011.75212,0.00458
3010.78774,0.00450
3009.82336,0.00453
3008.85899,0.00457
3007.89461,0.00459
3006.93023,0.00457
3005.96585,0.00454
3005.00147,0.00450
3004.03710,0.00446
3003.07272,0.00443
3002.10834,0.00441
3001.14396,0.00439
3000.17959,0.00437
2999.21521,0.00435
2998.25083,0.00435
2997.28645,0.00438
2996.32207,0.00438
2995.35770,0.00437
2994.39332,0.00440
2993.42894,0.00447
2992.46456,0.00453
2991.50018,0.00460
2990.53581,0.00461
2989.57143,0.00457
2988.60705,0.00449
2987.64267,0.00439
2986.67829,0.00429
2985.71392,0.00416
2984.74954,0.00401
2983.78516,0.00396
2982.82078,0.00396
2981.85641,0.00398
2980.89203,0.00402
2979.92765,0.00410
2978.96327,0.00418
2977.99889,0.00424
2977.03452,0.00429
2976.07014,0.00434
2975.10576,0.00436
2974.14138,0.00435
2973.17700,0.00441
2972.21263,0.00451
2971.24825,0.00458
2970.28387,0.00458
2969.31949,0.00455
2968.35512,0.00452
2967.39074,0.00446
2966.42636,0.00439
2965.46198,0.00430
2964.49760,0.00425
2963.53323,0.00426
2962.56885,0.00434
2961.60447,0.00446
2960.64009,0.00456
2959.67571,0.00463
2958.71134,0.00465
2957.74696,0.00463
2956.78258,0.00461
2955.81820,0.00458
2954.85382,0.00452
2953.88945,0.00448
2952.92507,0.00452
2951.96069,0.00461
2950.99631,0.00467
2950.03194,0.00467
2949.06756,0.00462
2948.10318,0.00453
2947.13880,0.00444
2946.17442,0.00434
2945.21005,0.00423
2944.24567,0.00414
2943.28129,0.00410
2942.31691,0.00417
2941.35253,0.00430
2940.38816,0.00443
2939.42378,0.00456
2938.45940,0.00465
2937.49502,0.00473
2936.53065,0.00484
2935.56627,0.00492
2934.60189,0.00492
2933.63751,0.00487
2932.67313,0.00485
2931.70876,0.00491
2930.74438,0.00498
2929.78000,0.00503
2928.81562,0.00505
2927.85124,0.00510
2926.88687,0.00514
2925.92249,0.00516
2924.95811,0.00518
2923.99373,0.00515
2923.02935,0.00506
2922.06498,0.00501
2921.10060,0.00502
2920.13622,0.00500
2919.17184,0.00492
2918.20747,0.00479
2917.24309,0.00466
2916.27871,0.00454
2915.31433,0.00442
2914.34995,0.00428
2913.38558,0.00416
2912.42120,0.00407
2911.45682,0.00401
2910.49244,0.00398
2909.52806,0.00394
2908.56369,0.00385
2907.59931,0.00372
2906.63493,0.00359
2905.67055,0.00347
2904.70618,0.00339
2903.74180,0.00336
2902.77742,0.00335
2901.81304,0.00337
2900.84866,0.00347
2899.88429,0.00358
2898.91991,0.00365
2897.95553,0.00371
2896.99115,0.00375
2896.02677,0.00376
2895.06240,0.00372
2894.09802,0.00363
2893.13364,0.00353
2892.16926,0.00346
2891.20488,0.00342
2890.24051,0.00344
2889.27613,0.00350
2888.31175,0.00353
2887.34737,0.00351
2886.38300,0.00350
2885.41862,0.00350
2884.45424,0.00347
2883.48986,0.00338
2882.52548,0.00327
2881.56111,0.00318
2880.59673,0.00312
2879.63235,0.00311
2878.66797,0.00313
2877.70359,0.00313
2876.73922,0.00314
2875.77484,0.00314
2874.81046,0.00314
2873.84608,0.00317
2872.88171,0.00320
2871.91733,0.00321
2870.95295,0.00322
2869.98857,0.00321
2869.02419,0.00317
2868.05982,0.00313
2867.09544,0.00307
2866.13106,0.00306
2865.16668,0.00311
2864.20230,0.00316
2863.23793,0.00323
2862.27355,0.00332
2861.30917,0.00342
2860.34479,0.00349
2859.38041,0.00355
2858.41604,0.00359
2857.45166,0.00360
2856.48728,0.00359
2855.52290,0.00358
2854.55853,0.00360
2853.59415,0.00364
2852.62977,0.00363
2851.66539,0.00362
2850.70101,0.00359
2849.73664,0.00354
2848.77226,0.00348
2847.80788,0.00342
2846.84350,0.00336
2845.87912,0.00328
2844.91475,0.00320
2843.95037,0.00312
2842.98599,0.00306
2842.02161,0.00300
2841.05724,0.00294
2840.09286,0.00288
2839.12848,0.00286
2838.16410,0.00287
2837.19972,0.00288
2836.23535,0.00289
2835.27097,0.00289
2834.30659,0.00290
2833.34221,0.00290
2832.37783,0.00287
2831.41346,0.00284
2830.44908,0.00280
2829.48470,0.00274
2828.52032,0.00269
2827.55594,0.00266
2826.59157,0.00264
2825.62719,0.00262
2824.66281,0.00260
2823.69843,0.00259
2822.73406,0.00258
2821.76968,0.00257
2820.80530,0.00259
2819.84092,0.00261
2818.87654,0.00262
2817.91217,0.00262
2816.94779,0.00260
2815.98341,0.00258
2815.01903,0.00256
2814.05465,0.00253
2813.09028,0.00250
2812.12590,0.00248
2811.16152,0.00246
2810.19714,0.00245
2809.23276,0.00246
2808.26839,0.00245
2807.30401,0.00243
2806.33963,0.00242
2805.37525,0.00240
2804.41088,0.00238
2803.44650,0.00238
2802.48212,0.00238
2801.51774,0.00241
2800.55336,0.00246
2799.58899,0.00250
2798.62461,0.00252
2797.66023,0.00253
2796.69585,0.00253
2795.73147,0.00253
2794.76710,0.00251
2793.80272,0.00248
2792.83834,0.00244
2791.87396,0.00240
2790.90959,0.00237
2789.94521,0.00235
2788.98083,0.00234
2788.01645,0.00233
2787.05207,0.00232
2786.08770,0.00231
2785.12332,0.00232
2784.15894,0.00233
2783.19456,0.00230
2782.23018,0.00228
2781.26581,0.00226
2780.30143,0.00224
2779.33705,0.00221
2778.37267,0.00218
2777.40829,0.00217
2776.44392,0.00214
2775.47954,0.00215
2774.51516,0.00217
2773.55078,0.00216
2772.58641,0.00214
2771.62203,0.00213
2770.65765,0.00214
2769.69327,0.00217
2768.72889,0.00219
2767.76452,0.00222
2766.80014,0.00225
2765.83576,0.00229
2764.87138,0.00232
2763.90700,0.00237
2762.94263,0.00238
2761.97825,0.00236
2761.01387,0.00235
2760.04949,0.00233
2759.08512,0.00230
2758.12074,0.00226
2757.15636,0.00223
2756.19198,0.00220
2755.22760,0.00215
2754.26323,0.00211
2753.29885,0.00209
2752.33447,0.00207
2751.37009,0.00207
2750.40571,0.00206
2749.44134,0.00206
2748.47696,0.00206
2747.51258,0.00207
2746.54820,0.00208
2745.58382,0.00210
2744.61945,0.00211
2743.65507,0.00212
2742.69069,0.00214
2741.72631,0.00216
2740.76194,0.00216
2739.79756,0.00216
2738.83318,0.00217
2737.86880,0.00217
2736.90442,0.00216
2735.94005,0.00216
2734.97567,0.00215
2734.01129,0.00213
2733.04691,0.00212
2732.08253,0.00213
2731.11816,0.00213
2730.15378,0.00213
2729.18940,0.00213
2728.22502,0.00215
2727.26065,0.00219
2726.29627,0.00221
2725.33189,0.00219
2724.36751,0.00218
2723.40313,0.00216
2722.43876,0.00213
2721.47438,0.00210
2720.51000,0.00208
2719.54562,0.00208
2718.58124,0.00209
2717.61687,0.00212
2716.65249,0.00214
2715.68811,0.00216
2714.72373,0.00216
2713.75935,0.00216
2712.79498,0.00215
2711.83060,0.00212
2710.86622,0.00207
2709.90184,0.00202
2708.93747,0.00200
2707.97309,0.00200
2707.00871,0.00200
2706.04433,0.00203
2705.07995,0.00205
2704.11558,0.00208
2703.15120,0.00212
2702.18682,0.00216
2701.22244,0.00217
2700.25806,0.00214
2699.29369,0.00211
2698.32931,0.00209
2697.36493,0.00208
2696.40055,0.00206
2695.43618,0.00203
2694.47180,0.00201
2693.50742,0.00201
2692.54304,0.00203
2691.57866,0.00205
2690.61429,0.00206
2689.64991,0.00204
2688.68553,0.00203
2687.72115,0.00203
2686.75677,0.00204
2685.79240,0.00204
2684.82802,0.00204
2683.86364,0.00202
2682.89926,0.00201
2681.93488,0.00202
2680.97051,0.00202
2680.00613,0.00203
2679.04175,0.00205
2678.07737,0.00207
2677.11300,0.00206
2676.14862,0.00206
2675.18424,0.00206
2674.21986,0.00205
2673.25548,0.00205
2672.29111,0.00202
2671.32673,0.00199
2670.36235,0.00195
2669.39797,0.00191
2668.43359,0.00189
2667.46922,0.00188
2666.50484,0.00185
2665.54046,0.00183
2664.57608,0.00182
2663.61171,0.00182
2662.64733,0.00184
2661.68295,0.00189
2660.71857,0.00194
2659.75419,0.00197
2658.78982,0.00198
2657.82544,0.00197
2656.86106,0.00195
2655.89668,0.00192
2654.93230,0.00189
2653.96793,0.00186
2653.00355,0.00183
2652.03917,0.00180
2651.07479,0.00177
2650.11041,0.00177
2649.14604,0.00178
2648.18166,0.00178
2647.21728,0.00176
2646.25290,0.00174
2645.28853,0.00174
2644.32415,0.00174
2643.35977,0.00176
2642.39539,0.00179
2641.43101,0.00182
2640.46664,0.00187
2639.50226,0.00192
2638.53788,0.00192
2637.57350,0.00190
2636.60912,0.00188
2635.64475,0.00186
2634.68037,0.00184
2633.71599,0.00179
2632.75161,0.00173
2631.78724,0.00168
2630.82286,0.00167
2629.85848,0.00168
2628.89410,0.00172
2627.92972,0.00172
2626.96535,0.00166
2626.00097,0.00164
2625.03659,0.00167
2624.07221,0.00172
2623.10783,0.00177
2622.14346,0.00181
2621.17908,0.00183
2620.21470,0.00187
2619.25032,0.00191
2618.28594,0.00196
2617.32157,0.00198
2616.35719,0.00196
2615.39281,0.00193
2614.42843,0.00191
2613.46406,0.00190
2612.49968,0.00190
2611.53530,0.00191
2610.57092,0.00191
2609.60654,0.00191
2608.64217,0.00193
2607.67779,0.00195
2606.71341,0.00198
2605.74903,0.00201
2604.78465,0.00203
2603.82028,0.00203
2602.85590,0.00199
2601.89152,0.00196
2600.92714,0.00193
2599.96276,0.00191
2598.99839,0.00191
2598.03401,0.00191
2597.06963,0.00188
2596.10525,0.00187
2595.14088,0.00185
2594.17650,0.00179
2593.21212,0.00176
2592.24774,0.00170
2591.28336,0.00160
2590.31899,0.00151
2589.35461,0.00142
2588.39023,0.00135
2587.42585,0.00134
2586.46147,0.00137
2585.49710,0.00143
2584.53272,0.00154
2583.56834,0.00167
2582.60396,0.00178
2581.63959,0.00190
2580.67521,0.00195
2579.71083,0.00192
2578.74645,0.00181
2577.78207,0.00161
2576.81770,0.00143
2575.85332,0.00135
2574.88894,0.00135
2573.92456,0.00143
2572.96018,0.00153
2571.99581,0.00158
2571.03143,0.00158
2570.06705,0.00160
2569.10267,0.00164
2568.13829,0.00161
2567.17392,0.00150
2566.20954,0.00136
2565.24516,0.00124
2564.28078,0.00119
2563.31641,0.00125
2562.35203,0.00136
2561.38765,0.00139
2560.42327,0.00135
2559.45889,0.00134
2558.49452,0.00142
2557.53014,0.00150
2556.56576,0.00152
2555.60138,0.00154
2554.63700,0.00158
2553.67263,0.00161
2552.70825,0.00163
2551.74387,0.00168
2550.77949,0.00170
2549.81512,0.00170
2548.85074,0.00171
2547.88636,0.00165
2546.92198,0.00157
2545.95760,0.00150
2544.99323,0.00148
2544.02885,0.00151
2543.06447,0.00155
2542.10009,0.00158
2541.13571,0.00157
2540.17134,0.00151
2539.20696,0.00147
2538.24258,0.00146
2537.27820,0.00144
2536.31382,0.00138
2535.34945,0.00132
2534.38507,0.00123
2533.42069,0.00116
2532.45631,0.00117
2531.49194,0.00122
2530.52756,0.00125
2529.56318,0.00126
2528.59880,0.00130
2527.63442,0.00135
2526.67005,0.00139
2525.70567,0.00143
2524.74129,0.00143
2523.77691,0.00138
2522.81253,0.00128
2521.84816,0.00124
2520.88378,0.00125
2519.91940,0.00125
2518.95502,0.00125
2517.99065,0.00131
2517.02627,0.00139
2516.06189,0.00143
2515.09751,0.00145
2514.13313,0.00148
2513.16876,0.00146
2512.20438,0.00139
2511.24000,0.00132
2510.27562,0.00131
2509.31124,0.00127
2508.34687,0.00123
2507.38249,0.00127
2506.41811,0.00132
2505.45373,0.00135
2504.48935,0.00138
2503.52498,0.00144
2502.56060,0.00147
2501.59622,0.00138
2500.63184,0.00127
2499.66747,0.00128
2498.70309,0.00133
2497.73871,0.00132
2496.77433,0.00129
2495.80995,0.00131
2494.84558,0.00133
2493.88120,0.00133
2492.91682,0.00132
2491.95244,0.00135
2490.98806,0.00134
2490.02369,0.00124
2489.05931,0.00117
2488.09493,0.00116
2487.13055,0.00120
2486.16618,0.00126
2485.20180,0.00132
2484.23742,0.00137
2483.27304,0.00140
2482.30866,0.00142
2481.34429,0.00140
2480.37991,0.00138
2479.41553,0.00136
2478.45115,0.00131
2477.48677,0.00125
2476.52240,0.00121
2475.55802,0.00125
2474.59364,0.00130
2473.62926,0.00135
2472.66488,0.00139
2471.70051,0.00141
2470.73613,0.00138
2469.77175,0.00129
2468.80737,0.00121
2467.84300,0.00116
2466.87862,0.00112
2465.91424,0.00109
2464.94986,0.00101
2463.98548,0.00095
2463.02111,0.00093
2462.05673,0.00097
2461.09235,0.00105
2460.12797,0.00112
2459.16359,0.00118
2458.19922,0.00119
2457.23484,0.00122
2456.27046,0.00128
2455.30608,0.00135
2454.34171,0.00137
2453.37733,0.00129
2452.41295,0.00120
2451.44857,0.00110
2450.48419,0.00102
2449.51982,0.00100
2448.55544,0.00101
2447.59106,0.00102
2446.62668,0.00099
2445.66230,0.00100
2444.69793,0.00108
2443.73355,0.00117
2442.76917,0.00125
2441.80479,0.00126
2440.84041,0.00123
2439.87604,0.00119
2438.91166,0.00118
2437.94728,0.00124
2436.98290,0.00133
2436.01853,0.00138
2435.05415,0.00136
2434.08977,0.00134
2433.12539,0.00131
2432.16101,0.00130
2431.19664,0.00126
2430.23226,0.00115
2429.26788,0.00106
2428.30350,0.00106
2427.33912,0.00111
2426.37475,0.00117
2425.41037,0.00125
2424.44599,0.00130
2423.48161,0.00130
2422.51724,0.00129
2421.55286,0.00128
2420.58848,0.00130
2419.62410,0.00126
2418.65972,0.00119
2417.69535,0.00114
2416.73097,0.00111
2415.76659,0.00103
2414.80221,0.00091
2413.83783,0.00082
2412.87346,0.00078
2411.90908,0.00080
2410.94470,0.00089
2409.98032,0.00103
2409.01594,0.00117
2408.05157,0.00127
2407.08719,0.00131
2406.12281,0.00131
2405.15843,0.00127
2404.19406,0.00120
2403.22968,0.00112
2402.26530,0.00111
2401.30092,0.00115
2400.33654,0.00119
2399.37217,0.00123
2398.40779,0.00128
2397.44341,0.00133
2396.47903,0.00135
2395.51465,0.00134
2394.55028,0.00128
2393.58590,0.00120
2392.62152,0.00114
2391.65714,0.00115
2390.69276,0.00117
2389.72839,0.00113
2388.76401,0.00106
2387.79963,0.00102
2386.83525,0.00106
2385.87088,0.00112
2384.90650,0.00121
2383.94212,0.00132
2382.97774,0.00142
2382.01336,0.00151
2381.04899,0.00162
2380.08461,0.00175
2379.12023,0.00186
2378.15585,0.00192
2377.19147,0.00199
2376.22710,0.00209
2375.26272,0.00223
2374.29834,0.00237
2373.33396,0.00248
2372.36959,0.00257
2371.40521,0.00266
2370.44083,0.00275
2369.47645,0.00284
2368.51207,0.00294
2367.54770,0.00306
2366.58332,0.00318
2365.61894,0.00332
2364.65456,0.00343
2363.69018,0.00352
2362.72581,0.00357
2361.76143,0.00356
2360.79705,0.00353
2359.83267,0.00352
2358.86829,0.00350
2357.90392,0.00342
2356.93954,0.00328
2355.97516,0.00314
2355.01078,0.00297
2354.04641,0.00279
2353.08203,0.00259
2352.11765,0.00239
2351.15327,0.00225
2350.18889,0.00218
2349.22452,0.00219
2348.26014,0.00224
2347.29576,0.00230
2346.33138,0.00236
2345.36700,0.00245
2344.40263,0.00254
2343.43825,0.00262
2342.47387,0.00269
2341.50949,0.00274
2340.54512,0.00275
2339.58074,0.00276
2338.61636,0.00280
2337.65198,0.00284
2336.68760,0.00285
2335.72323,0.00283
2334.75885,0.00283
2333.79447,0.00282
2332.83009,0.00281
2331.86571,0.00280
2330.90134,0.00280
2329.93696,0.00278
2328.97258,0.00275
2328.00820,0.00275
2327.04382,0.00276
2326.07945,0.00274
2325.11507,0.00267
2324.15069,0.00256
2323.18631,0.00244
2322.22194,0.00233
2321.25756,0.00226
2320.29318,0.00223
2319.32880,0.00219
2318.36442,0.00215
2317.40005,0.00214
2316.43567,0.00217
2315.47129,0.00219
2314.50691,0.00216
2313.54253,0.00208
2312.57816,0.00199
2311.61378,0.00191
2310.64940,0.00187
2309.68502,0.00191
2308.72065,0.00197
2307.75627,0.00197
2306.79189,0.00190
2305.82751,0.00181
2304.86313,0.00173
2303.89876,0.00164
2302.93438,0.00151
2301.97000,0.00141
2301.00562,0.00130
2300.04124,0.00119
2299.07687,0.00114
2298.11249,0.00120
2297.14811,0.00133
2296.18373,0.00144
2295.21935,0.00145
2294.25498,0.00140
2293.29060,0.00138
2292.32622,0.00138
2291.36184,0.00138
2290.39747,0.00143
2289.43309,0.00145
2288.46871,0.00141
2287.50433,0.00140
2286.53995,0.00141
2285.57558,0.00139
2284.61120,0.00134
2283.64682,0.00129
2282.68244,0.00122
2281.71806,0.00115
2280.75369,0.00110
2279.78931,0.00111
2278.82493,0.00120
2277.86055,0.00128
2276.89618,0.00128
2275.93180,0.00129
2274.96742,0.00131
2274.00304,0.00133
2273.03866,0.00138
2272.07429,0.00148
2271.10991,0.00156
2270.14553,0.00152
2269.18115,0.00137
2268.21677,0.00115
2267.25240,0.00090
2266.28802,0.00067
2265.32364,0.00047
2264.35926,0.00038
2263.39488,0.00044
2262.43051,0.00062
2261.46613,0.00074
2260.50175,0.00089
2259.53737,0.00114
2258.57300,0.00129
2257.60862,0.00124
2256.64424,0.00103
2255.67986,0.00080
2254.71548,0.00065
2253.75111,0.00052
2252.78673,0.00050
2251.82235,0.00063
2250.85797,0.00080
2249.89359,0.00090
2248.92922,0.00095
2247.96484,0.00099
2247.00046,0.00097
2246.03608,0.00084
2245.07171,0.00064
2244.10733,0.00061
2243.14295,0.00071
2242.17857,0.00077
2241.21419,0.00081
2240.24982,0.00078
2239.28544,0.00072
2238.32106,0.00073
2237.35668,0.00058
2236.39230,0.00029
2235.42793,0.00009
2234.46355,0.00001
2233.49917,0.00007
2232.53479,0.00030
2231.57041,0.00037
2230.60604,0.00022
2229.64166,0.00015
2228.67728,0.00016
2227.71290,0.00027
2226.74853,0.00036
2225.78415,0.00027
2224.81977,0.00032
2223.85539,0.00063
2222.89101,0.00104
2221.92664,0.00146
2220.96226,0.00175
2219.99788,0.00178
2219.03350,0.00170
2218.06912,0.00173
2217.10475,0.00172
2216.14037,0.00162
2215.17599,0.00144
2214.21161,0.00122
2213.24724,0.00104
2212.28286,0.00083
2211.31848,0.00075
2210.35410,0.00078
2209.38972,0.00068
2208.42535,0.00050
2207.46097,0.00036
2206.49659,0.00034
2205.53221,0.00037
2204.56783,0.00029
2203.60346,0.00016
2202.63908,-0.00011
2201.67470,-0.00049
2200.71032,-0.00080
2199.74594,-0.00090
2198.78157,-0.00098
2197.81719,-0.00110
2196.85281,-0.00112
2195.88843,-0.00103
2194.92406,-0.00086
2193.95968,-0.00075
2192.99530,-0.00078
2192.03092,-0.00079
2191.06654,-0.00080
2190.10217,-0.00079
2189.13779,-0.00079
2188.17341,-0.00078
2187.20903,-0.00077
2186.24465,-0.00077
2185.28028,-0.00076
2184.31590,-0.00076
2183.35152,-0.00075
2182.38714,-0.00075
2181.42276,-0.00074
2180.45839,-0.00073
2179.49401,-0.00073
2178.52963,-0.00072
2177.56525,-0.00072
2176.60088,-0.00071
2175.63650,-0.00071
2174.67212,-0.00070
2173.70774,-0.00069
2172.74336,-0.00069
2171.77899,-0.00068
2170.81461,-0.00068
2169.85023,-0.00067
2168.88585,-0.00067
2167.92147,-0.00066
2166.95710,-0.00065
2165.99272,-0.00065
2165.02834,-0.00064
2164.06396,-0.00064
2163.09959,-0.00063
2162.13521,-0.00063
2161.17083,-0.00062
2160.20645,-0.00061
2159.24207,-0.00061
2158.27770,-0.00060
2157.31332,-0.00060
2156.34894,-0.00059
2155.38456,-0.00059
2154.42018,-0.00058
2153.45581,-0.00057
2152.49143,-0.00057
2151.52705,-0.00056
2150.56267,-0.00056
2149.59829,-0.00055
2148.63392,-0.00055
2147.66954,-0.00054
2146.70516,-0.00053
2145.74078,-0.00053
2144.77641,-0.00052
2143.81203,-0.00052
2142.84765,-0.00051
2141.88327,-0.00051
2140.91889,-0.00050
2139.95452,-0.00049
2138.99014,-0.00049
2138.02576,-0.00048
2137.06138,-0.00048
2136.09700,-0.00047
2135.13263,-0.00047
2134.16825,-0.00046
2133.20387,-0.00045
2132.23949,-0.00045
2131.27512,-0.00044
2130.31074,-0.00044
2129.34636,-0.00043
2128.38198,-0.00042
2127.41760,-0.00042
2126.45323,-0.00041
2125.48885,-0.00041
2124.52447,-0.00040
2123.56009,-0.00040
2122.59571,-0.00039
2121.63134,-0.00038
2120.66696,-0.00038
2119.70258,-0.00037
2118.73820,-0.00037
2117.77382,-0.00036
2116.80945,-0.00036
2115.84507,-0.00035
2114.88069,-0.00034
2113.91631,-0.00034
2112.95194,-0.00033
2111.98756,-0.00033
2111.02318,-0.00032
2110.05880,-0.00032
2109.09442,-0.00031
2108.13005,-0.00030
2107.16567,-0.00030
2106.20129,-0.00029
2105.23691,-0.00029
2104.27253,-0.00028
2103.30816,-0.00028
2102.34378,-0.00027
2101.37940,-0.00026
2100.41502,-0.00026
2099.45065,-0.00025
2098.48627,-0.00025
2097.52189,-0.00024
2096.55751,-0.00024
2095.59313,-0.00023
2094.62876,-0.00022
2093.66438,-0.00022
2092.70000,-0.00021
2091.73562,-0.00021
2090.77124,-0.00020
2089.80687,-0.00020
2088.84249,-0.00019
2087.87811,-0.00018
2086.91373,-0.00018
2085.94935,-0.00017
2084.98498,-0.00017
2084.02060,-0.00016
2083.05622,-0.00016
2082.09184,-0.00015
2081.12747,-0.00014
2080.16309,-0.00014
2079.19871,-0.00013
2078.23433,-0.00013
2077.26995,-0.00012
2076.30558,-0.00012
2075.34120,-0.00011
2074.37682,-0.00010
2073.41244,-0.00010
2072.44806,-0.00009
2071.48369,-0.00009
2070.51931,-0.00008
2069.55493,-0.00008
2068.59055,-0.00007
2067.62618,-0.00006
2066.66180,-0.00006
2065.69742,-0.00005
2064.73304,-0.00005
2063.76866,-0.00004
2062.80429,-0.00004
2061.83991,-0.00003
2060.87553,-0.00002
2059.91115,-0.00002
2058.94677,-0.00001
2057.98240,-0.00001
2057.01802,-0.00000
2056.05364,0.00000
2055.08926,0.00001
2054.12488,0.00002
2053.16051,0.00002
2052.19613,0.00003
2051.23175,0.00003
2050.26737,0.00004
2049.30300,0.00005
2048.33862,0.00005
2047.37424,0.00006
2046.40986,0.00006
2045.44548,0.00007
2044.48111,0.00007
2043.51673,0.00008
2042.55235,0.00009
2041.58797,0.00009
2040.62359,0.00010
2039.65922,0.00010
2038.69484,0.00011
2037.73046,0.00011
2036.76608,0.00012
2035.80171,0.00013
2034.83733,0.00013
2033.87295,0.00014
2032.90857,0.00014
2031.94419,0.00015
2030.97982,0.00015
2030.01544,0.00016
2029.05106,0.00017
2028.08668,0.00017
2027.12230,0.00018
2026.15793,0.00018
2025.19355,0.00019
2024.22917,0.00019
2023.26479,0.00020
2022.30041,0.00021
2021.33604,0.00021
2020.37166,0.00022
2019.40728,0.00022
2018.44290,0.00023
2017.47853,0.00023
2016.51415,0.00024
2015.54977,0.00025
2014.58539,0.00025
2013.62101,0.00026
2012.65664,0.00026
2011.69226,0.00027
2010.72788,0.00027
2009.76350,0.00028
2008.79912,0.00029
2007.83475,0.00029
2006.87037,0.00030
2005.90599,0.00030
2004.94161,0.00031
2003.97724,0.00031
2003.01286,0.00032
2002.04848,0.00033
2001.08410,0.00033
2000.11972,0.00034
1999.15535,0.00034
1998.19097,0.00035
1997.22659,0.00035
1996.26221,0.00036
1995.29783,0.00037
1994.33346,0.00037
1993.36908,0.00038
1992.40470,0.00038
1991.44032,0.00039
1990.47594,0.00039
1989.51157,0.00040
1988.54719,0.00041
1987.58281,0.00041
1986.61843,0.00042
1985.65406,0.00042
1984.68968,0.00043
1983.72530,0.00043
1982.76092,0.00044
1981.79654,0.00045
1980.83217,0.00045
1979.86779,0.00046
1978.90341,0.00046
1977.93903,0.00047
1976.97465,0.00047
1976.01028,0.00048
1975.04590,0.00049
1974.08152,0.00049
1973.11714,0.00050
1972.15276,0.00050
1971.18839,0.00051
1970.22401,0.00052
1969.25963,0.00052
1968.29525,0.00053
1967.33088,0.00053
1966.36650,0.00054
1965.40212,0.00054
1964.43774,0.00055
1963.47336,0.00056
1962.50899,0.00056
1961.54461,0.00057
1960.58023,0.00057
1959.61585,0.00058
1958.65147,0.00058
1957.68710,0.00059
1956.72272,0.00060
1955.75834,0.00060
1954.79396,0.00061
1953.82959,0.00061
1952.86521,0.00062
1951.90083,0.00062
1950.93645,0.00063
1949.97207,0.00064
1949.00770,0.00064
1948.04332,0.00065
1947.07894,0.00065
1946.11456,0.00066
1945.15018,0.00066
1944.18581,0.00067
1943.22143,0.00068
1942.25705,0.00068
1941.29267,0.00069
1940.32829,0.00069
1939.36392,0.00070
1938.39954,0.00070
1937.43516,0.00071
1936.47078,0.00072
1935.50641,0.00072
1934.54203,0.00073
1933.57765,0.00073
1932.61327,0.00074
1931.64889,0.00077
1930.68452,0.00079
1929.72014,0.00076
1928.75576,0.00067
1927.79138,0.00060
1926.82700,0.00061
1925.86263,0.00073
1924.89825,0.00084
1923.93387,0.00080
1922.96949,0.00069
1922.00512,0.00070
1921.04074,0.00078
1920.07636,0.00081
1919.11198,0.00078
1918.14760,0.00071
1917.18323,0.00058
1916.21885,0.00049
1915.25447,0.00048
1914.29009,0.00048
1913.32571,0.00046
1912.36134,0.00041
1911.39696,0.00045
1910.43258,0.00057
1909.46820,0.00063
1908.50382,0.00066
1907.53945,0.00073
1906.57507,0.00081
1905.61069,0.00075
1904.64631,0.00063
1903.68194,0.00055
1902.71756,0.00049
1901.75318,0.00052
1900.78880,0.00059
1899.82442,0.00057
1898.86005,0.00048
1897.89567,0.00035
1896.93129,0.00031
1895.96691,0.00034
1895.00253,0.00040
1894.03816,0.00041
1893.07378,0.00046
1892.10940,0.00060
1891.14502,0.00072
1890.18065,0.00082
1889.21627,0.00084
1888.25189,0.00079
1887.28751,0.00078
1886.32313,0.00076
1885.35876,0.00074
1884.39438,0.00071
1883.43000,0.00073
1882.46562,0.00079
1881.50124,0.00086
1880.53687,0.00092
1879.57249,0.00097
1878.60811,0.00095
1877.64373,0.00083
1876.67935,0.00073
1875.71498,0.00072
1874.75060,0.00071
1873.78622,0.00061
1872.82184,0.00050
1871.85747,0.00046
1870.89309,0.00051
1869.92871,0.00054
1868.96433,0.00055
1867.99995,0.00062
1867.03558,0.00065
1866.07120,0.00064
1865.10682,0.00070
1864.14244,0.00077
1863.17806,0.00077
1862.21369,0.00073
1861.24931,0.00071
1860.28493,0.00072
1859.32055,0.00075
1858.35618,0.00076
1857.39180,0.00071
1856.42742,0.00067
1855.46304,0.00069
1854.49866,0.00071
1853.53429,0.00072
1852.56991,0.00070
1851.60553,0.00066
1850.64115,0.00067
1849.67677,0.00070
1848.71240,0.00070
1847.74802,0.00069
1846.78364,0.00066
1845.81926,0.00061
1844.85488,0.00057
1843.89051,0.00057
1842.92613,0.00057
1841.96175,0.00059
1840.99737,0.00066
1840.03300,0.00072
1839.06862,0.00076
1838.10424,0.00076
1837.13986,0.00074
1836.17548,0.00069
1835.21111,0.00063
1834.24673,0.00057
1833.28235,0.00051
1832.31797,0.00046
1831.35359,0.00048
1830.38922,0.00055
1829.42484,0.00066
1828.46046,0.00076
1827.49608,0.00084
1826.53171,0.00092
1825.56733,0.00096
1824.60295,0.00095
1823.63857,0.00092
1822.67419,0.00084
1821.70982,0.00075
1820.74544,0.00071
1819.78106,0.00069
1818.81668,0.00068
1817.85230,0.00069
1816.88793,0.00073
1815.92355,0.00076
1814.95917,0.00076
1813.99479,0.00077
1813.03041,0.00078
1812.06604,0.00078
1811.10166,0.00076
1810.13728,0.00075
1809.17290,0.00077
1808.20853,0.00079
1807.24415,0.00082
1806.27977,0.00084
1805.31539,0.00085
1804.35101,0.00084
1803.38664,0.00083
1802.42226,0.00083
1801.45788,0.00082
1800.49350,0.00083
1799.52912,0.00084
1798.56475,0.00085
1797.60037,0.00087
1796.63599,0.00088
1795.67161,0.00088
1794.70724,0.00085
1793.74286,0.00079
1792.77848,0.00074
1791.81410,0.00068
1790.84972,0.00065
1789.88535,0.00063
1788.92097,0.00063
1787.95659,0.00066
1786.99221,0.00070
1786.02783,0.00072
1785.06346,0.00073
1784.09908,0.00074
1783.13470,0.00073
1782.17032,0.00071
1781.20594,0.00068
1780.24157,0.00067
1779.27719,0.00069
1778.31281,0.00071
1777.34843,0.00075
1776.38406,0.00079
1775.41968,0.00083
1774.45530,0.00086
1773.49092,0.00089
1772.52654,0.00093
1771.56217,0.00096
1770.59779,0.00098
1769.63341,0.00098
1768.66903,0.00098
1767.70465,0.00099
1766.74028,0.00100
1765.77590,0.00104
1764.81152,0.00108
1763.84714,0.00112
1762.88276,0.00114
1761.91839,0.00116
1760.95401,0.00118
1759.98963,0.00120
1759.02525,0.00119
1758.06088,0.00118
1757.09650,0.00119
1756.13212,0.00120
1755.16774,0.00125
1754.20336,0.00130
1753.23899,0.00138
1752.27461,0.00147
1751.31023,0.00154
1750.34585,0.00162
1749.38147,0.00168
1748.41710,0.00174
1747.45272,0.00179
1746.48834,0.00185
1745.52396,0.00190
1744.55959,0.00191
1743.59521,0.00191
1742.63083,0.00189
1741.66645,0.00189
1740.70207,0.00190
1739.73770,0.00191
1738.77332,0.00193
1737.80894,0.00196
1736.84456,0.00198
1735.88018,0.00200
1734.91581,0.00202
1733.95143,0.00200
1732.98705,0.00194
1732.02267,0.00187
1731.05829,0.00182
1730.09392,0.00177
1729.12954,0.00174
1728.16516,0.00172
1727.20078,0.00171
1726.23641,0.00171
1725.27203,0.00172
1724.30765,0.00173
1723.34327,0.00175
1722.37889,0.00177
1721.41452,0.00179
1720.45014,0.00183
1719.48576,0.00189
1718.52138,0.00194
1717.55700,0.00197
1716.59263,0.00198
1715.62825,0.00198
1714.66387,0.00198
1713.69949,0.00199
1712.73512,0.00200
1711.77074,0.00203
1710.80636,0.00207
1709.84198,0.00208
1708.87760,0.00211
1707.91323,0.00216
1706.94885,0.00220
1705.98447,0.00224
1705.02009,0.00229
1704.05571,0.00236
1703.09134,0.00247
1702.12696,0.00260
1701.16258,0.00274
1700.19820,0.00287
1699.23382,0.00296
1698.26945,0.00303
1697.30507,0.00310
1696.34069,0.00319
1695.37631,0.00329
1694.41194,0.00337
1693.44756,0.00346
1692.48318,0.00357
1691.51880,0.00370
1690.55442,0.00384
1689.59005,0.00398
1688.62567,0.00414
1687.66129,0.00431
1686.69691,0.00451
1685.73253,0.00474
1684.76816,0.00500
1683.80378,0.00526
1682.83940,0.00552
1681.87502,0.00579
1680.91065,0.00607
1679.94627,0.00635
1678.98189,0.00663
1678.01751,0.00695
1677.05313,0.00730
1676.08876,0.00769
1675.12438,0.00810
1674.16000,0.00851
1673.19562,0.00892
1672.23124,0.00932
1671.26687,0.00974
1670.30249,0.01016
1669.33811,0.01057
1668.37373,0.01096
1667.40935,0.01135
1666.44498,0.01175
1665.48060,0.01217
1664.51622,0.01263
1663.55184,0.01310
1662.58747,0.01358
1661.62309,0.01406
1660.65871,0.01455
1659.69433,0.01505
1658.72995,0.01554
1657.76558,0.01603
1656.80120,0.01649
1655.83682,0.01694
1654.87244,0.01738
1653.90806,0.01782
1652.94369,0.01828
1651.97931,0.01873
1651.01493,0.01916
1650.05055,0.01957
1649.08618,0.01997
1648.12180,0.02037
1647.15742,0.02075
1646.19304,0.02112
1645.22866,0.02149
1644.26429,0.02185
1643.29991,0.02223
1642.33553,0.02261
1641.37115,0.02300
1640.40677,0.02337
1639.44240,0.02372
1638.47802,0.02405
1637.51364,0.02437
1636.54926,0.02464
1635.58488,0.02488
1634.62051,0.02510
1633.65613,0.02529
1632.69175,0.02546
1631.72737,0.02563
1630.76300,0.02577
1629.79862,0.02586
1628.83424,0.02591
1627.86986,0.02593
1626.90548,0.02589
1625.94111,0.02580
1624.97673,0.02567
1624.01235,0.02548
1623.04797,0.02525
1622.08359,0.02496
1621.11922,0.02463
1620.15484,0.02426
1619.19046,0.02385
1618.22608,0.02338
1617.26171,0.02286
1616.29733,0.02229
1615.33295,0.02169
1614.36857,0.02107
1613.40419,0.02044
1612.43982,0.01980
1611.47544,0.01917
1610.51106,0.01853
1609.54668,0.01789
1608.58230,0.01729
1607.61793,0.01671
1606.65355,0.01616
1605.68917,0.01562
1604.72479,0.01511
1603.76041,0.01463
1602.79604,0.01416
1601.83166,0.01373
1600.86728,0.01332
1599.90290,0.01294
1598.93853,0.01257
1597.97415,0.01222
1597.00977,0.01189
1596.04539,0.01157
1595.08101,0.01128
1594.11664,0.01099
1593.15226,0.01069
1592.18788,0.01039
1591.22350,0.01006
1590.25912,0.00973
1589.29475,0.00939
1588.33037,0.00907
1587.36599,0.00875
1586.40161,0.00842
1585.43724,0.00807
1584.47286,0.00774
1583.50848,0.00743
1582.54410,0.00715
1581.57972,0.00686
1580.61535,0.00657
1579.65097,0.00628
1578.68659,0.00601
1577.72221,0.00576
1576.75783,0.00554
1575.79346,0.00531
1574.82908,0.00508
1573.86470,0.00488
1572.90032,0.00468
1571.93594,0.00451
1570.97157,0.00435
1570.00719,0.00420
1569.04281,0.00406
1568.07843,0.00396
1567.11406,0.00388
1566.14968,0.00381
1565.18530,0.00378
1564.22092,0.00375
1563.25654,0.00374
1562.29217,0.00374
1561.32779,0.00374
1560.36341,0.00373
1559.39903,0.00373
1558.43465,0.00373
1557.47028,0.00371
1556.50590,0.00369
1555.54152,0.00365
1554.57714,0.00362
1553.61276,0.00359
1552.64839,0.00356
1551.68401,0.00353
1550.71963,0.00351
1549.75525,0.00351
1548.79088,0.00353
1547.82650,0.00357
1546.86212,0.00361
1545.89774,0.00363
1544.93336,0.00364
1543.96899,0.00366
1543.00461,0.00367
1542.04023,0.00366
1541.07585,0.00363
1540.11147,0.00360
1539.14710,0.00357
1538.18272,0.00355
1537.21834,0.00352
1536.25396,0.00348
1535.28959,0.00345
1534.32521,0.00341
1533.36083,0.00336
1532.39645,0.00331
1531.43207,0.00327
1530.46770,0.00322
1529.50332,0.00317
1528.53894,0.00315
1527.57456,0.00313
1526.61018,0.00312
1525.64581,0.00310
1524.68143,0.00308
1523.71705,0.00306
1522.75267,0.00302
1521.78829,0.00297
1520.82392,0.00293
1519.85954,0.00289
1518.89516,0.00286
1517.93078,0.00285
1516.96641,0.00285
1516.00203,0.00284
1515.03765,0.00283
1514.07327,0.00279
1513.10889,0.00275
1512.14452,0.00271
1511.18014,0.00266
1510.21576,0.00263
1509.25138,0.00259
1508.28700,0.00255
1507.32263,0.00253
1506.35825,0.00251
1505.39387,0.00249
1504.42949,0.00245
1503.46512,0.00242
1502.50074,0.00237
1501.53636,0.00233
1500.57198,0.00230
1499.60760,0.00227
1498.64323,0.00224
1497.67885,0.00218
1496.71447,0.00212
1495.75009,0.00205
1494.78571,0.00199
1493.82134,0.00196
1492.85696,0.00193
1491.89258,0.00191
1490.92820,0.00192
1489.96382,0.00194
1488.99945,0.00196
1488.03507,0.00197
1487.07069,0.00197
1486.10631,0.00197
1485.14194,0.00196
1484.17756,0.00195
1483.21318,0.00196
1482.24880,0.00199
1481.28442,0.00202
1480.32005,0.00208
1479.35567,0.00215
1478.39129,0.00223
1477.42691,0.00230
1476.46253,0.00237
1475.49816,0.00245
1474.53378,0.00252
1473.56940,0.00259
1472.60502,0.00267
1471.64065,0.00274
1470.67627,0.00281
1469.71189,0.00289
1468.74751,0.00296
1467.78313,0.00302
1466.81876,0.00307
1465.85438,0.00314
1464.89000,0.00320
1463.92562,0.00326
1462.96124,0.00332
1461.99687,0.00340
1461.03249,0.00349
1460.06811,0.00359
1459.10373,0.00367
1458.13935,0.00373
1457.17498,0.00378
1456.21060,0.00382
1455.24622,0.00387
1454.28184,0.00393
1453.31747,0.00396
1452.35309,0.00400
1451.38871,0.00406
1450.42433,0.00414
1449.45995,0.00426
1448.49558,0.00438
1447.53120,0.00449
1446.56682,0.00459
1445.60244,0.00469
1444.63806,0.00479
1443.67369,0.00490
1442.70931,0.00500
1441.74493,0.00508
1440.78055,0.00518
1439.81618,0.00528
1438.85180,0.00540
1437.88742,0.00551
1436.92304,0.00562
1435.95866,0.00572
1434.99429,0.00579
1434.02991,0.00585
1433.06553,0.00591
1432.10115,0.00597
1431.13677,0.00604
1430.17240,0.00613
1429.20802,0.00624
1428.24364,0.00638
1427.27926,0.00655
1426.31488,0.00675
1425.35051,0.00700
1424.38613,0.00729
1423.42175,0.00763
1422.45737,0.00802
1421.49300,0.00843
1420.52862,0.00887
1419.56424,0.00933
1418.59986,0.00981
1417.63548,0.01029
1416.67111,0.01078
1415.70673,0.01127
1414.74235,0.01175
1413.77797,0.01223
1412.81359,0.01271
1411.84922,0.01317
1410.88484,0.01359
1409.92046,0.01397
1408.95608,0.01433
1407.99171,0.01465
1407.02733,0.01492
1406.06295,0.01512
1405.09857,0.01527
1404.13419,0.01539
1403.16982,0.01547
1402.20544,0.01553
1401.24106,0.01553
1400.27668,0.01547
1399.31230,0.01538
1398.34793,0.01526
1397.38355,0.01510
1396.41917,0.01491
1395.45479,0.01468
1394.49041,0.01443
1393.52604,0.01417
1392.56166,0.01390
1391.59728,0.01361
1390.63290,0.01331
1389.66853,0.01299
1388.70415,0.01267
1387.73977,0.01236
1386.77539,0.01205
1385.81101,0.01176
1384.84664,0.01148
1383.88226,0.01120
1382.91788,0.01094
1381.95350,0.01069
1380.98912,0.01044
1380.02475,0.01021
1379.06037,0.01001
1378.09599,0.00983
1377.13161,0.00967
1376.16724,0.00953
1375.20286,0.00940
1374.23848,0.00928
1373.27410,0.00917
1372.30972,0.00907
1371.34535,0.00898
1370.38097,0.00890
1369.41659,0.00883
1368.45221,0.00879
1367.48783,0.00878
1366.52346,0.00879
1365.55908,0.00880
1364.59470,0.00881
1363.63032,0.00883
1362.66594,0.00884
1361.70157,0.00884
1360.73719,0.00883
1359.77281,0.00881
1358.80843,0.00876
1357.84406,0.00869
1356.87968,0.00861
1355.91530,0.00852
1354.95092,0.00840
1353.98654,0.00827
1353.02217,0.00811
1352.05779,0.00797
1351.09341,0.00783
1350.12903,0.00769
1349.16465,0.00757
1348.20028,0.00744
1347.23590,0.00735
1346.27152,0.00729
1345.30714,0.00726
1344.34276,0.00721
1343.37839,0.00715
1342.41401,0.00709
1341.44963,0.00706
1340.48525,0.00703
1339.52088,0.00698
1338.55650,0.00691
1337.59212,0.00685
1336.62774,0.00682
1335.66336,0.00682
1334.69899,0.00682
1333.73461,0.00679
1332.77023,0.00674
1331.80585,0.00672
1330.84147,0.00672
1329.87710,0.00670
1328.91272,0.00665
1327.94834,0.00656
1326.98396,0.00648
1326.01959,0.00641
1325.05521,0.00633
1324.09083,0.00623
1323.12645,0.00610
1322.16207,0.00596
1321.19770,0.00584
1320.23332,0.00573
1319.26894,0.00561
1318.30456,0.00547
1317.34018,0.00533
1316.37581,0.00521
1315.41143,0.00509
1314.44705,0.00499
1313.48267,0.00487
1312.51829,0.00473
1311.55392,0.00461
1310.58954,0.00458
1309.62516,0.00460
1308.66078,0.00462
1307.69641,0.00465
1306.73203,0.00468
1305.76765,0.00468
1304.80327,0.00462
1303.83889,0.00452
1302.87452,0.00436
1301.91014,0.00414
1300.94576,0.00389
1299.98138,0.00371
1299.01700,0.00360
1298.05263,0.00352
1297.08825,0.00347
1296.12387,0.00345
1295.15949,0.00344
1294.19512,0.00343
1293.23074,0.00340
1292.26636,0.00338
1291.30198,0.00335
1290.33760,0.00331
1289.37323,0.00326
1288.40885,0.00322
1287.44447,0.00320
1286.48009,0.00318
1285.51571,0.00318
1284.55134,0.00316
1283.58696,0.00313
1282.62258,0.00310
1281.65820,0.00308
1280.69382,0.00307
1279.72945,0.00305
1278.76507,0.00303
1277.80069,0.00299
1276.83631,0.00297
1275.87194,0.00296
1274.90756,0.00296
1273.94318,0.00296
1272.97880,0.00297
1272.01442,0.00298
1271.05005,0.00299
1270.08567,0.00299
1269.12129,0.00300
1268.15691,0.00302
1267.19253,0.00302
1266.22816,0.00302
1265.26378,0.00301
1264.29940,0.00299
1263.33502,0.00297
1262.37065,0.00295
1261.40627,0.00292
1260.44189,0.00287
1259.47751,0.00281
1258.51313,0.00279
1257.54876,0.00278
1256.58438,0.00279
1255.62000,0.00281
1254.65562,0.00282
1253.69124,0.00283
1252.72687,0.00285
1251.76249,0.00288
1250.79811,0.00290
1249.83373,0.00291
1248.86935,0.00290
1247.90498,0.00289
1246.94060,0.00289
1245.97622,0.00288
1245.01184,0.00286
1244.04747,0.00283
1243.08309,0.00279
1242.11871,0.00276
1241.15433,0.00274
1240.18995,0.00275
1239.22558,0.00277
1238.26120,0.00279
1237.29682,0.00279
1236.33244,0.00279
1235.36806,0.00278
1234.40369,0.00277
1233.43931,0.00278
1232.47493,0.00277
1231.51055,0.00276
1230.54618,0.00276
1229.58180,0.00277
1228.61742,0.00277
1227.65304,0.00279
1226.68866,0.00280
1225.72429,0.00280
1224.75991,0.00279
1223.79553,0.00277
1222.83115,0.00276
1221.86677,0.00276
1220.90240,0.00275
1219.93802,0.00275
1218.97364,0.00276
1218.00926,0.00277
1217.04488,0.00280
1216.08051,0.00282
1215.11613,0.00283
1214.15175,0.00284
1213.18737,0.00284
1212.22300,0.00284
1211.25862,0.00285
1210.29424,0.00287
1209.32986,0.00289
1208.36548,0.00289
1207.40111,0.00289
1206.43673,0.00288
1205.47235,0.00286
1204.50797,0.00282
1203.54359,0.00276
1202.57922,0.00270
1201.61484,0.00264
1200.65046,0.00258
1199.68608,0.00254
1198.72171,0.00251
1197.75733,0.00249
1196.79295,0.00246
1195.82857,0.00243
1194.86419,0.00239
1193.89982,0.00237
1192.93544,0.00235
1191.97106,0.00232
1191.00668,0.00229
1190.04230,0.00225
1189.07793,0.00221
1188.11355,0.00219
1187.14917,0.00217
1186.18479,0.00214
1185.22041,0.00212
1184.25604,0.00209
1183.29166,0.00208
1182.32728,0.00208
1181.36290,0.00207
1180.39853,0.00204
1179.43415,0.00199
1178.46977,0.00195
1177.50539,0.00193
1176.54101,0.00192
1175.57664,0.00191
1174.61226,0.00190
1173.64788,0.00190
1172.68350,0.00190
1171.71912,0.00191
1170.75475,0.00191
1169.79037,0.00191
1168.82599,0.00190
1167.86161,0.00188
1166.89724,0.00189
1165.93286,0.00190
1164.96848,0.00191
1164.00410,0.00189
1163.03972,0.00188
1162.07535,0.00186
1161.11097,0.00184
1160.14659,0.00181
1159.18221,0.00178
1158.21783,0.00174
1157.25346,0.00170
1156.28908,0.00167
1155.32470,0.00167
1154.36032,0.00167
1153.39594,0.00166
1152.43157,0.00166
1151.46719,0.00166
1150.50281,0.00167
1149.53843,0.00166
1148.57406,0.00164
1147.60968,0.00163
1146.64530,0.00161
1145.68092,0.00160
1144.71654,0.00159
1143.75217,0.00160
1142.78779,0.00160
1141.82341,0.00161
1140.85903,0.00163
1139.89465,0.00164
1138.93028,0.00165
1137.96590,0.00164
1137.00152,0.00162
1136.03714,0.00162
1135.07276,0.00161
1134.10839,0.00160
1133.14401,0.00161
1132.17963,0.00163
1131.21525,0.00166
1130.25088,0.00168
1129.28650,0.00170
1128.32212,0.00170
1127.35774,0.00170
1126.39336,0.00169
1125.42899,0.00168
1124.46461,0.00168
1123.50023,0.00169
1122.53585,0.00172
1121.57147,0.00176
1120.60710,0.00178
1119.64272,0.00180
1118.67834,0.00182
1117.71396,0.00181
1116.74959,0.00178
1115.78521,0.00175
1114.82083,0.00174
1113.85645,0.00174
1112.89207,0.00174
1111.92770,0.00176
1110.96332,0.00181
1109.99894,0.00184
1109.03456,0.00186
1108.07018,0.00188
1107.10581,0.00188
1106.14143,0.00188
1105.17705,0.00187
1104.21267,0.00187
1103.24829,0.00190
1102.28392,0.00192
1101.31954,0.00194
1100.35516,0.00199
1099.39078,0.00205
1098.42641,0.00208
1097.46203,0.00209
1096.49765,0.00207
1095.53327,0.00203
1094.56889,0.00198
1093.60452,0.00195
1092.64014,0.00192
1091.67576,0.00192
1090.71138,0.00194
1089.74700,0.00196
1088.78263,0.00198
1087.81825,0.00202
1086.85387,0.00206
1085.88949,0.00209
1084.92512,0.00210
1083.96074,0.00207
1082.99636,0.00203
1082.03198,0.00201
1081.06760,0.00200
1080.10323,0.00198
1079.13885,0.00196
1078.17447,0.00194
1077.21009,0.00193
1076.24571,0.00195
1075.28134,0.00197
1074.31696,0.00197
1073.35258,0.00197
1072.38820,0.00195
1071.42382,0.00194
1070.45945,0.00192
1069.49507,0.00189
1068.53069,0.00187
1067.56631,0.00188
1066.60194,0.00192
1065.63756,0.00197
1064.67318,0.00199
1063.70880,0.00200
1062.74442,0.00200
1061.78005,0.00199
1060.81567,0.00198
1059.85129,0.00195
1058.88691,0.00194
1057.92253,0.00194
1056.95816,0.00195
1055.99378,0.00195
1055.02940,0.00196
1054.06502,0.00194
1053.10065,0.00190
1052.13627,0.00187
1051.17189,0.00182
1050.20751,0.00177
1049.24313,0.00172
1048.27876,0.00169
1047.31438,0.00166
1046.35000,0.00164
1045.38562,0.00161
1044.42124,0.00158
1043.45687,0.00155
1042.49249,0.00153
1041.52811,0.00152
1040.56373,0.00151
1039.59935,0.00149
1038.63498,0.00147
1037.67060,0.00145
1036.70622,0.00144
1035.74184,0.00142
1034.77747,0.00141
1033.81309,0.00137
1032.84871,0.00133
1031.88433,0.00130
1030.91995,0.00129
1029.95558,0.00128
1028.99120,0.00126
1028.02682,0.00126
1027.06244,0.00126
1026.09806,0.00127
1025.13369,0.00129
1024.16931,0.00132
1023.20493,0.00134
1022.24055,0.00135
1021.27618,0.00136
1020.31180,0.00136
1019.34742,0.00135
1018.38304,0.00133
1017.41866,0.00131
1016.45429,0.00128
1015.48991,0.00125
1014.52553,0.00123
1013.56115,0.00123
1012.59677,0.00123
1011.63240,0.00124
1010.66802,0.00126
1009.70364,0.00128
1008.73926,0.00128
1007.77488,0.00128
1006.81051,0.00127
1005.84613,0.00127
1004.88175,0.00126
1003.91737,0.00126
1002.95300,0.00127
1001.98862,0.00127
1001.02424,0.00126
1000.05986,0.00126
999.09548,0.00128
998.13111,0.00131
997.16673,0.00134
996.20235,0.00136
995.23797,0.00136
994.27359,0.00138
993.30922,0.00141
992.34484,0.00142
991.38046,0.00142
990.41608,0.00142
989.45171,0.00142
988.48733,0.00142
987.52295,0.00143
986.55857,0.00144
985.59419,0.00145
984.62982,0.00145
983.66544,0.00145
982.70106,0.00146
981.73668,0.00148
980.77230,0.00150
979.80793,0.00153
978.84355,0.00157
977.87917,0.00160
976.91479,0.00166
975.95041,0.00172
974.98604,0.00180
974.02166,0.00185
973.05728,0.00186
972.09290,0.00186
971.12853,0.00185
970.16415,0.00182
969.19977,0.00180
968.23539,0.00180
967.27101,0.00183
966.30664,0.00186
965.34226,0.00192
964.37788,0.00199
963.41350,0.00206
962.44912,0.00211
961.48475,0.00213
960.52037,0.00216
959.55599,0.00219
958.59161,0.00221
957.62724,0.00221
956.66286,0.00219
955.69848,0.00217
954.73410,0.00215
953.76972,0.00213
952.80535,0.00211
951.84097,0.00209
950.87659,0.00206
949.91221,0.00204
948.94783,0.00204
947.98346,0.00205
947.01908,0.00207
946.05470,0.00207
945.09032,0.00207
944.12594,0.00208
943.16157,0.00212
942.19719,0.00215
941.23281,0.00219
940.26843,0.00220
939.30406,0.00218
938.33968,0.00215
937.37530,0.00213
936.41092,0.00213
935.44654,0.00217
934.48217,0.00222
933.51779,0.00230
932.55341,0.00241
931.58903,0.00255
930.62465,0.00270
929.66028,0.00286
928.69590,0.00302
927.73152,0.00313
926.76714,0.00322
925.80276,0.00331
924.83839,0.00341
923.87401,0.00354
922.90963,0.00368
921.94525,0.00381
920.98088,0.00392
920.01650,0.00401
919.05212,0.00408
918.08774,0.00413
917.12336,0.00417
916.15899,0.00416
915.19461,0.00413
914.23023,0.00412
913.26585,0.00409
912.30147,0.00403
911.33710,0.00397
910.37272,0.00387
909.40834,0.00375
908.44396,0.00363
907.47959,0.00347
906.51521,0.00331
905.55083,0.00317
904.58645,0.00302
903.62207,0.00286
902.65770,0.00272
901.69332,0.00254
900.72894,0.00234
899.76456,0.00219
898.80018,0.00206
897.83581,0.00193
896.87143,0.00183
895.90705,0.00173
894.94267,0.00164
893.97829,0.00161
893.01392,0.00162
892.04954,0.00163
891.08516,0.00164
890.12078,0.00160
889.15641,0.00157
888.19203,0.00158
887.22765,0.00156
886.26327,0.00149
885.29889,0.00140
884.33452,0.00133
883.37014,0.00127
882.40576,0.00122
881.44138,0.00118
880.47700,0.00115
879.51263,0.00113
878.54825,0.00115
877.58387,0.00122
876.61949,0.00131
875.65512,0.00135
874.69074,0.00136
873.72636,0.00137
872.76198,0.00139
871.79760,0.00136
870.83323,0.00130
869.86885,0.00125
868.90447,0.00125
867.94009,0.00127
866.97571,0.00131
866.01134,0.00138
865.04696,0.00139
864.08258,0.00139
863.11820,0.00138
862.15382,0.00136
861.18945,0.00135
860.22507,0.00134
859.26069,0.00134
858.29631,0.00134
857.33194,0.00135
856.36756,0.00135
855.40318,0.00136
854.43880,0.00137
853.47442,0.00135
852.51005,0.00134
851.54567,0.00133
850.58129,0.00130
849.61691,0.00128
848.65253,0.00127
847.68816,0.00125
846.72378,0.00122
845.75940,0.00122
844.79502,0.00127
843.83065,0.00130
842.86627,0.00130
841.90189,0.00126
840.93751,0.00123
839.97313,0.00120
839.00876,0.00116
838.04438,0.00111
837.08000,0.00106
836.11562,0.00103
835.15124,0.00102
834.18687,0.00107
833.22249,0.00113
832.25811,0.00118
831.29373,0.00119
830.32935,0.00120
829.36498,0.00119
828.40060,0.00117
827.43622,0.00114
826.47184,0.00108
825.50747,0.00102
824.54309,0.00097
823.57871,0.00093
822.61433,0.00093
821.64995,0.00095
820.68558,0.00102
819.72120,0.00111
818.75682,0.00120
817.79244,0.00126
816.82806,0.00131
815.86369,0.00137
814.89931,0.00140
813.93493,0.00143
812.97055,0.00147
812.00618,0.00149
811.04180,0.00151
810.07742,0.00152
809.11304,0.00153
808.14866,0.00156
807.18429,0.00158
806.21991,0.00156
805.25553,0.00151
804.29115,0.00149
803.32677,0.00147
802.36240,0.00143
801.39802,0.00139
800.43364,0.00137
799.46926,0.00139
798.50488,0.00143
797.54051,0.00148
796.57613,0.00153
795.61175,0.00159
794.64737,0.00162
793.68300,0.00161
792.71862,0.00159
791.75424,0.00155
790.78986,0.00150
789.82548,0.00146
788.86111,0.00143
787.89673,0.00140
786.93235,0.00142
785.96797,0.00143
785.00359,0.00139
784.03922,0.00135
783.07484,0.00129
782.11046,0.00123
781.14608,0.00124
780.18171,0.00129
779.21733,0.00133
778.25295,0.00137
777.28857,0.00140
776.32419,0.00141
775.35982,0.00143
774.39544,0.00143
773.43106,0.00136
772.46668,0.00130
771.50230,0.00127
770.53793,0.00128
769.57355,0.00129
768.60917,0.00131
767.64479,0.00134
766.68041,0.00138
765.71604,0.00142
764.75166,0.00142
763.78728,0.00142
762.82290,0.00144
761.85853,0.00144
760.89415,0.00141
759.92977,0.00140
758.96539,0.00145
758.00101,0.00153
757.03664,0.00162
756.07226,0.00169
755.10788,0.00175
754.14350,0.00180
753.17912,0.00182
752.21475,0.00183
751.25037,0.00179
750.28599,0.00169
749.32161,0.00160
748.35724,0.00157
747.39286,0.00161
746.42848,0.00167
745.46410,0.00172
744.49972,0.00181
743.53535,0.00192
742.57097,0.00202
741.60659,0.00209
740.64221,0.00213
739.67783,0.00212
738.71346,0.00210
737.74908,0.00202
736.78470,0.00191
735.82032,0.00184
734.85594,0.00183
733.89157,0.00190
732.92719,0.00203
731.96281,0.00212
730.99843,0.00214
730.03406,0.00218
729.06968,0.00225
728.10530,0.00232
727.14092,0.00237
726.17654,0.00239
725.21217,0.00236
724.24779,0.00237
723.28341,0.00242
722.31903,0.00250
721.35465,0.00258
720.39028,0.00262
719.42590,0.00264
718.46152,0.00267
717.49714,0.00271
716.53276,0.00274
715.56839,0.00275
714.60401,0.00277
713.63963,0.00277
712.67525,0.00280
711.71088,0.00286
710.74650,0.00294
709.78212,0.00302
708.81774,0.00309
707.85336,0.00311
706.88899,0.00312
705.92461,0.00312
704.96023,0.00311
703.99585,0.00309
703.03147,0.00306
702.06710,0.00306
701.10272,0.00308
700.13834,0.00311
699.17396,0.00315
698.20959,0.00320
697.24521,0.00322
696.28083,0.00323
695.31645,0.00326
694.35207,0.00327
693.38770,0.00324
692.42332,0.00318
691.45894,0.00309
690.49456,0.00302
689.53018,0.00298
688.56581,0.00298
687.60143,0.00298
686.63705,0.00295
685.67267,0.00292
684.70829,0.00290
683.74392,0.00287
682.77954,0.00277
681.81516,0.00268
680.85078,0.00257
679.88641,0.00248
678.92203,0.00242
677.95765,0.00238
676.99327,0.00232
676.02889,0.00219
675.06452,0.00198
674.10014,0.00175
673.13576,0.00177
672.17138,0.00207
671.20700,0.00239
670.24263,0.00264
669.27825,0.00280
668.31387,0.00289
667.34949,0.00291
666.38512,0.00282
665.42074,0.00263
664.45636,0.00235
663.49198,0.00200
662.52760,0.00172
661.56323,0.00176
660.59885,0.00200
659.63447,0.00214
658.67009,0.00220
657.70571,0.00225
656.74134,0.00231
655.77696,0.00233
654.81258,0.00233
653.84820,0.00235
652.88382,0.00238
651.91945,0.00239
650.95507,0.00238
649.99069,0.00241
649.02631,0.00246
648.06194,0.00248
647.09756,0.00250
646.13318,0.00253
645.16880,0.00254
644.20442,0.00253
643.24005,0.00252
642.27567,0.00252
641.31129,0.00251
640.34691,0.00246
639.38253,0.00240
638.41816,0.00235
637.45378,0.00230
636.48940,0.00226
635.52502,0.00219
634.56065,0.00211
633.59627,0.00206
632.63189,0.00205
631.66751,0.00214
630.70313,0.00223
629.73876,0.00255
628.77438,0.00306
627.81000,0.00326
626.84562,0.00359
625.88124,0.00429
624.91687,0.00505
623.95249,0.00538
622.98811,0.00513
622.02373,0.00439
621.05935,0.00358
620.09498,0.00323
619.13060,0.00289
618.16622,0.00263
617.20184,0.00246
616.23747,0.00165
615.27309,0.00075
614.30871,0.00052
613.34433,0.00098
612.37995,0.00116
611.41558,0.00072
610.45120,0.00025
609.48682,0.00020
608.52244,0.00064
607.55806,0.00108
606.59369,0.00146
605.62931,0.00184
604.66493,0.00173
603.70055,0.00138
602.73618,0.00165
601.77180,0.00236
600.80742,0.00268
599.84304,0.00268
598.87866,0.00275
597.91429,0.00281
596.94991,0.00277
595.98553,0.00269
595.02115,0.00253
594.05677,0.00245
593.09240,0.00238
592.12802,0.00220
591.16364,0.00203
590.19926,0.00200
589.23488,0.00217
588.27051,0.00245
587.30613,0.00274
586.34175,0.00296
585.37737,0.00294
584.41300,0.00281
583.44862,0.00267
582.48424,0.00253
581.51986,0.00246
580.55548,0.00237
579.59111,0.00226
578.62673,0.00223
577.66235,0.00228
576.69797,0.00242
575.73359,0.00258
574.76922,0.00269
573.80484,0.00280
572.84046,0.00297
571.87608,0.00310
570.91171,0.00317
569.94733,0.00327
568.98295,0.00327
568.01857,0.00311
567.05419,0.00289
566.08982,0.00265
565.12544,0.00251
564.16106,0.00233
563.19668,0.00212
562.23230,0.00205
561.26793,0.00199
560.30355,0.00182
559.33917,0.00171
558.37479,0.00176
557.41041,0.00189
556.44604,0.00204
555.48166,0.00212
554.51728,0.00219
553.55290,0.00231
552.58853,0.00236
551.62415,0.00235
550.65977,0.00239
549.69539,0.00233
548.73101,0.00223
547.76664,0.00225
546.80226,0.00234
545.83788,0.00245
544.87350,0.00253
543.90912,0.00257
542.94475,0.00264
541.98037,0.00268
541.01599,0.00258
540.05161,0.00236
539.08724,0.00218
538.12286,0.00205
537.15848,0.00188
536.19410,0.00175
535.22972,0.00171
534.26535,0.00166
533.30097,0.00167
532.33659,0.00180
531.37221,0.00196
530.40783,0.00205
529.44346,0.00201
528.47908,0.00196
527.51470,0.00198
526.55032,0.00202
525.58594,0.00205
524.62157,0.00219
523.65719,0.00236
522.69281,0.00238
521.72843,0.00235
520.76406,0.00235
519.79968,0.00235
518.83530,0.00233
517.87092,0.00221
516.90654,0.00206
515.94217,0.00198
514.97779,0.00202
514.01341,0.00213
513.04903,0.00216
512.08465,0.00208
511.12028,0.00196
510.15590,0.00184
509.19152,0.00187
508.22714,0.00206
507.26276,0.00224
506.29839,0.00232
505.33401,0.00241
504.36963,0.00257
503.40525,0.00270
502.44088,0.00270
501.47650,0.00251
500.51212,0.00221
499.54774,0.00194
498.58336,0.00176
497.61899,0.00177
496.65461,0.00186
495.69023,0.00190
494.72585,0.00188
493.76147,0.00189
492.79710,0.00199
491.83272,0.00211
490.86834,0.00216
489.90396,0.00214
488.93959,0.00212
487.97521,0.00224
487.01083,0.00239
486.04645,0.00252
485.08207,0.00256
484.11770,0.00249
483.15332,0.00237
482.18894,0.00226
481.22456,0.00216
480.26018,0.00200
479.29581,0.00179
478.33143,0.00163
477.36705,0.00160
476.40267,0.00171
475.43829,0.00178
474.47392,0.00178
473.50954,0.00177
472.54516,0.00173
471.58078,0.00171
470.61641,0.00171
469.65203,0.00165
468.68765,0.00154
467.72327,0.00153
466.75889,0.00159
465.79452,0.00171
464.83014,0.00184
463.86576,0.00186
462.90138,0.00182
461.93700,0.00179
460.97263,0.00179
460.00825,0.00182
459.04387,0.00186
458.07949,0.00184
457.11512,0.00176
456.15074,0.00175
455.18636,0.00170
454.22198,0.00162
453.25760,0.00159
452.29323,0.00155
451.32885,0.00159
450.36447,0.00165
449.40009,0.00174
448.43571,0.00185
447.47134,0.00192
446.50696,0.00194
445.54258,0.00191
444.57820,0.00187
443.61382,0.00180
442.64945,0.00177
441.68507,0.00182
440.72069,0.00191
439.75631,0.00203
438.79194,0.00214
437.82756,0.00218
436.86318,0.00222
435.89880,0.00224
434.93442,0.00223
433.97005,0.00218
433.00567,0.00209
432.04129,0.00203
431.07691,0.00197
430.11253,0.00193
429.14816,0.00189
428.18378,0.00188
427.21940,0.00189
426.25502,0.00188
425.29065,0.00188
424.32627,0.00190
423.36189,0.00192
422.39751,0.00191
421.43313,0.00187
420.46876,0.00182
419.50438,0.00172
418.54000,0.00161
417.57562,0.00151
416.61124,0.00143
415.64687,0.00136
414.68249,0.00127
413.71811,0.00121
412.75373,0.00119
411.78935,0.00118
410.82498,0.00121
409.86060,0.00126
408.89622,0.00130
407.93184,0.00131
406.96747,0.00133
406.00309,0.00132
405.03871,0.00128
404.07433,0.00128
403.10995,0.00128
402.14558,0.00128
401.18120,0.00128
400.21682,0.00128
399.25244,0.00128
