3998.31069,0.01915
3997.34631,0.01915
3996.38194,0.01915
3995.41756,0.01915
3994.45318,0.01915
3993.48880,0.01915
3992.52442,0.01915
3991.56005,0.01922
3990.59567,0.01916
3989.63129,0.01908
3988.66691,0.01908
3987.70253,0.01909
3986.73816,0.01903
3985.77378,0.01899
3984.80940,0.01893
3983.84502,0.01882
3982.88065,0.01878
3981.91627,0.01883
3980.95189,0.01894
3979.98751,0.01901
3979.02313,0.01906
3978.05876,0.01911
3977.09438,0.01916
3976.13000,0.01919
3975.16562,0.01918
3974.20124,0.01914
3973.23687,0.01901
3972.27249,0.01884
3971.30811,0.01877
3970.34373,0.01870
3969.37935,0.01862
3968.41498,0.01857
3967.45060,0.01857
3966.48622,0.01862
3965.52184,0.01872
3964.55747,0.01884
3963.59309,0.01892
3962.62871,0.01894
3961.66433,0.01889
3960.69995,0.01884
3959.73558,0.01882
3958.77120,0.01884
3957.80682,0.01885
3956.84244,0.01884
3955.87806,0.01888
3954.91369,0.01895
3953.94931,0.01896
3952.98493,0.01893
3952.02055,0.01888
3951.05618,0.01885
3950.09180,0.01883
3949.12742,0.01880
3948.16304,0.01882
3947.19866,0.01894
3946.23429,0.01906
3945.26991,0.01917
3944.30553,0.01924
3943.34115,0.01922
3942.37677,0.01914
3941.41240,0.01907
3940.44802,0.01900
3939.48364,0.01899
3938.51926,0.01903
3937.55488,0.01902
3936.59051,0.01898
3935.62613,0.01899
3934.66175,0.01898
3933.69737,0.01894
3932.73300,0.01886
3931.76862,0.01877
3930.80424,0.01869
3929.83986,0.01863
3928.87548,0.01852
3927.91111,0.01844
3926.94673,0.01840
3925.98235,0.01837
3925.01797,0.01834
3924.05359,0.01841
3923.08922,0.01852
3922.12484,0.01863
3921.16046,0.01876
3920.19608,0.01887
3919.23171,0.01890
3918.26733,0.01885
3917.30295,0.01874
3916.33857,0.01860
3915.37419,0.01851
3914.40982,0.01846
3913.44544,0.01839
3912.48106,0.01835
3911.51668,0.01830
3910.55230,0.01822
3909.58793,0.01818
3908.62355,0.01816
3907.65917,0.01812
3906.69479,0.01808
3905.73041,0.01802
3904.76604,0.01798
3903.80166,0.01800
3902.83728,0.01805
3901.87290,0.01811
3900.90853,0.01817
3899.94415,0.01822
3898.97977,0.01828
3898.01539,0.01836
3897.05101,0.01844
3896.08664,0.01854
3895.12226,0.01862
3894.15788,0.01864
3893.19350,0.01859
3892.22912,0.01847
3891.26475,0.01840
3890.30037,0.01837
3889.33599,0.01837
3888.37161,0.01838
3887.40724,0.01828
3886.44286,0.01815
3885.47848,0.01814
3884.51410,0.01828
3883.54972,0.01845
3882.58535,0.01852
3881.62097,0.01851
3880.65659,0.01850
3879.69221,0.01859
3878.72783,0.01868
3877.76346,0.01866
3876.79908,0.01853
3875.83470,0.01829
3874.87032,0.01810
3873.90594,0.01805
3872.94157,0.01805
3871.97719,0.01804
3871.01281,0.01805
3870.04843,0.01815
3869.08406,0.01828
3868.11968,0.01842
3867.15530,0.01850
3866.19092,0.01849
3865.22654,0.01842
3864.26217,0.01833
3863.29779,0.01830
3862.33341,0.01826
3861.36903,0.01814
3860.40465,0.01803
3859.44028,0.01801
3858.47590,0.01797
3857.51152,0.01793
3856.54714,0.01798
3855.58276,0.01801
3854.61839,0.01804
3853.65401,0.01806
3852.68963,0.01806
3851.72525,0.01810
3850.76088,0.01810
3849.79650,0.01805
3848.83212,0.01800
3847.86774,0.01799
3846.90336,0.01797
3845.93899,0.01800
3844.97461,0.01798
3844.01023,0.01784
3843.04585,0.01779
3842.08147,0.01778
3841.11710,0.01775
3840.15272,0.01778
3839.18834,0.01785
3838.22396,0.01790
3837.25959,0.01792
3836.29521,0.01798
3835.33083,0.01809
3834.36645,0.01817
3833.40207,0.01814
3832.43770,0.01807
3831.47332,0.01808
3830.50894,0.01809
3829.54456,0.01808
3828.58018,0.01805
3827.61581,0.01800
3826.65143,0.01791
3825.68705,0.01779
3824.72267,0.01773
3823.75829,0.01769
3822.79392,0.01762
3821.82954,0.01753
3820.86516,0.01751
3819.90078,0.01757
3818.93641,0.01769
3817.97203,0.01783
3817.00765,0.01786
3816.04327,0.01787
3815.07889,0.01788
3814.11452,0.01785
3813.15014,0.01776
3812.18576,0.01764
3811.22138,0.01757
3810.25700,0.01753
3809.29263,0.01750
3808.32825,0.01749
3807.36387,0.01755
3806.39949,0.01774
3805.43512,0.01788
3804.47074,0.01796
3803.50636,0.01806
3802.54198,0.01813
3801.57760,0.01814
3800.61323,0.01811
3799.64885,0.01810
3798.68447,0.01805
3797.72009,0.01798
3796.75571,0.01793
3795.79134,0.01793
3794.82696,0.01791
3793.86258,0.01780
3792.89820,0.01771
3791.93382,0.01767
3790.96945,0.01761
3790.00507,0.01754
3789.04069,0.01745
3788.07631,0.01742
3787.11194,0.01742
3786.14756,0.01742
3785.18318,0.01743
3784.21880,0.01743
3783.25442,0.01746
3782.29005,0.01753
3781.32567,0.01763
3780.36129,0.01771
3779.39691,0.01775
3778.43253,0.01779
3777.46816,0.01781
3776.50378,0.01771
3775.53940,0.01750
3774.57502,0.01732
3773.61065,0.01727
3772.64627,0.01729
3771.68189,0.01737
3770.71751,0.01745
3769.75313,0.01743
3768.78876,0.01738
3767.82438,0.01734
3766.86000,0.01732
3765.89562,0.01728
3764.93124,0.01715
3763.96687,0.01703
3763.00249,0.01702
3762.03811,0.01715
3761.07373,0.01731
3760.10935,0.01743
3759.14498,0.01747
3758.18060,0.01741
3757.21622,0.01742
3756.25184,0.01743
3755.28747,0.01742
3754.32309,0.01749
3753.35871,0.01754
3752.39433,0.01754
3751.42995,0.01750
3750.46558,0.01751
3749.50120,0.01761
3748.53682,0.01760
3747.57244,0.01748
3746.60806,0.01737
3745.64369,0.01726
3744.67931,0.01717
3743.71493,0.01717
3742.75055,0.01721
3741.78618,0.01719
3740.82180,0.01720
3739.85742,0.01726
3738.89304,0.01742
3737.92866,0.01762
3736.96429,0.01771
3735.99991,0.01770
3735.03553,0.01759
3734.07115,0.01740
3733.10677,0.01730
3732.14240,0.01723
3731.17802,0.01710
3730.21364,0.01699
3729.24926,0.01699
3728.28488,0.01707
3727.32051,0.01720
3726.35613,0.01736
3725.39175,0.01748
3724.42737,0.01748
3723.46300,0.01738
3722.49862,0.01725
3721.53424,0.01717
3720.56986,0.01712
3719.60548,0.01698
3718.64111,0.01678
3717.67673,0.01665
3716.71235,0.01664
3715.74797,0.01670
3714.78359,0.01677
3713.81922,0.01676
3712.85484,0.01670
3711.89046,0.01663
3710.92608,0.01661
3709.96171,0.01661
3708.99733,0.01658
3708.03295,0.01654
3707.06857,0.01655
3706.10419,0.01664
3705.13982,0.01678
3704.17544,0.01698
3703.21106,0.01722
3702.24668,0.01741
3701.28230,0.01755
3700.31793,0.01758
3699.35355,0.01752
3698.38917,0.01734
3697.42479,0.01711
3696.46041,0.01698
3695.49604,0.01684
3694.53166,0.01669
3693.56728,0.01671
3692.60290,0.01684
3691.63853,0.01696
3690.67415,0.01700
3689.70977,0.01696
3688.74539,0.01684
3687.78101,0.01671
3686.81664,0.01662
3685.85226,0.01660
3684.88788,0.01664
3683.92350,0.01661
3682.95912,0.01660
3681.99475,0.01664
3681.03037,0.01667
3680.06599,0.01677
3679.10161,0.01692
3678.13724,0.01702
3677.17286,0.01704
3676.20848,0.01714
3675.24410,0.01735
3674.27972,0.01753
3673.31535,0.01762
3672.35097,0.01758
3671.38659,0.01746
3670.42221,0.01728
3669.45783,0.01718
3668.49346,0.01717
3667.52908,0.01708
3666.56470,0.01694
3665.60032,0.01682
3664.63594,0.01689
3663.67157,0.01705
3662.70719,0.01715
3661.74281,0.01725
3660.77843,0.01736
3659.81406,0.01747
3658.84968,0.01752
3657.88530,0.01753
3656.92092,0.01753
3655.95654,0.01755
3654.99217,0.01762
3654.02779,0.01778
3653.06341,0.01803
3652.09903,0.01824
3651.13465,0.01834
3650.17028,0.01845
3649.20590,0.01855
3648.24152,0.01856
3647.27714,0.01845
3646.31276,0.01832
3645.34839,0.01829
3644.38401,0.01830
3643.41963,0.01835
3642.45525,0.01854
3641.49088,0.01887
3640.52650,0.01918
3639.56212,0.01941
3638.59774,0.01966
3637.63336,0.01980
3636.66899,0.01970
3635.70461,0.01954
3634.74023,0.01947
3633.77585,0.01951
3632.81147,0.01955
3631.84710,0.01960
3630.88272,0.01971
3629.91834,0.01981
3628.95396,0.01989
3627.98959,0.01993
3627.02521,0.01997
3626.06083,0.01993
3625.09645,0.01986
3624.13207,0.01996
3623.16770,0.02016
3622.20332,0.02038
3621.23894,0.02058
3620.27456,0.02069
3619.31018,0.02068
3618.34581,0.02059
3617.38143,0.02059
3616.41705,0.02063
3615.45267,0.02061
3614.48829,0.02060
3613.52392,0.02068
3612.55954,0.02090
3611.59516,0.02109
3610.63078,0.02123
3609.66641,0.02134
3608.70203,0.02140
3607.73765,0.02143
3606.77327,0.02151
3605.80889,0.02165
3604.84452,0.02164
3603.88014,0.02151
3602.91576,0.02140
3601.95138,0.02134
3600.98700,0.02133
3600.02263,0.02129
3599.05825,0.02118
3598.09387,0.02110
3597.12949,0.02110
3596.16512,0.02115
3595.20074,0.02126
3594.23636,0.02140
3593.27198,0.02149
3592.30760,0.02157
3591.34323,0.02169
3590.37885,0.02176
3589.41447,0.02182
3588.45009,0.02184
3587.48571,0.02180
3586.52134,0.02182
3585.55696,0.02194
3584.59258,0.02207
3583.62820,0.02216
3582.66382,0.02217
3581.69945,0.02212
3580.73507,0.02207
3579.77069,0.02200
3578.80631,0.02195
3577.84194,0.02190
3576.87756,0.02183
3575.91318,0.02179
3574.94880,0.02182
3573.98442,0.02195
3573.02005,0.02212
3572.05567,0.02218
3571.09129,0.02214
3570.12691,0.02207
3569.16253,0.02203
3568.19816,0.02200
3567.23378,0.02201
3566.26940,0.02194
3565.30502,0.02184
3564.34065,0.02181
3563.37627,0.02184
3562.41189,0.02192
3561.44751,0.02201
3560.48313,0.02209
3559.51876,0.02216
3558.55438,0.02221
3557.59000,0.02229
3556.62562,0.02239
3555.66124,0.02247
3554.69687,0.02245
3553.73249,0.02243
3552.76811,0.02244
3551.80373,0.02241
3550.83935,0.02236
3549.87498,0.02236
3548.91060,0.02237
3547.94622,0.02238
3546.98184,0.02243
3546.01747,0.02248
3545.05309,0.02254
3544.08871,0.02258
3543.12433,0.02253
3542.15995,0.02245
3541.19558,0.02241
3540.23120,0.02240
3539.26682,0.02241
3538.30244,0.02242
3537.33806,0.02246
3536.37369,0.02257
3535.40931,0.02276
3534.44493,0.02291
3533.48055,0.02302
3532.51618,0.02310
3531.55180,0.02308
3530.58742,0.02303
3529.62304,0.02301
3528.65866,0.02300
3527.69429,0.02299
3526.72991,0.02306
3525.76553,0.02317
3524.80115,0.02329
3523.83677,0.02341
3522.87240,0.02349
3521.90802,0.02354
3520.94364,0.02360
3519.97926,0.02368
3519.01488,0.02374
3518.05051,0.02377
3517.08613,0.02381
3516.12175,0.02383
3515.15737,0.02388
3514.19300,0.02388
3513.22862,0.02381
3512.26424,0.02374
3511.29986,0.02365
3510.33548,0.02359
3509.37111,0.02363
3508.40673,0.02375
3507.44235,0.02386
3506.47797,0.02396
3505.51359,0.02408
3504.54922,0.02421
3503.58484,0.02436
3502.62046,0.02447
3501.65608,0.02460
3500.69171,0.02475
3499.72733,0.02484
3498.76295,0.02492
3497.79857,0.02497
3496.83419,0.02500
3495.86982,0.02501
3494.90544,0.02502
3493.94106,0.02504
3492.97668,0.02506
3492.01230,0.02505
3491.04793,0.02503
3490.08355,0.02504
3489.11917,0.02503
3488.15479,0.02501
3487.19041,0.02500
3486.22604,0.02499
3485.26166,0.02507
3484.29728,0.02520
3483.33290,0.02531
3482.36853,0.02546
3481.40415,0.02562
3480.43977,0.02576
3479.47539,0.02585
3478.51101,0.02588
3477.54664,0.02588
3476.58226,0.02589
3475.61788,0.02589
3474.65350,0.02586
3473.68912,0.02584
3472.72475,0.02581
3471.76037,0.02578
3470.79599,0.02580
3469.83161,0.02590
3468.86724,0.02603
3467.90286,0.02615
3466.93848,0.02621
3465.97410,0.02629
3465.00972,0.02638
3464.04535,0.02645
3463.08097,0.02648
3462.11659,0.02645
3461.15221,0.02644
3460.18783,0.02648
3459.22346,0.02657
3458.25908,0.02667
3457.29470,0.02680
3456.33032,0.02693
3455.36594,0.02703
3454.40157,0.02710
3453.43719,0.02716
3452.47281,0.02719
3451.50843,0.02716
3450.54406,0.02712
3449.57968,0.02717
3448.61530,0.02728
3447.65092,0.02740
3446.68654,0.02749
3445.72217,0.02761
3444.75779,0.02775
3443.79341,0.02784
3442.82903,0.02788
3441.86465,0.02786
3440.90028,0.02777
3439.93590,0.02766
3438.97152,0.02761
3438.00714,0.02762
3437.04276,0.02763
3436.07839,0.02765
3435.11401,0.02768
3434.14963,0.02773
3433.18525,0.02780
3432.22088,0.02789
3431.25650,0.02799
3430.29212,0.02803
3429.32774,0.02807
3428.36336,0.02814
3427.39899,0.02821
3426.43461,0.02828
3425.47023,0.02835
3424.50585,0.02842
3423.54147,0.02846
3422.57710,0.02852
3421.61272,0.02863
3420.64834,0.02874
3419.68396,0.02879
3418.71959,0.02875
3417.75521,0.02868
3416.79083,0.02860
3415.82645,0.02854
3414.86207,0.02855
3413.89770,0.02858
3412.93332,0.02861
3411.96894,0.02862
3411.00456,0.02874
3410.04018,0.02894
3409.07581,0.02911
3408.11143,0.02921
3407.14705,0.02924
3406.18267,0.02924
3405.21829,0.02923
3404.25392,0.02924
3403.28954,0.02929
3402.32516,0.02933
3401.36078,0.02931
3400.39641,0.02928
3399.43203,0.02935
3398.46765,0.02945
3397.50327,0.02947
3396.53889,0.02947
3395.57452,0.02944
3394.61014,0.02939
3393.64576,0.02931
3392.68138,0.02925
3391.71700,0.02926
3390.75263,0.02922
3389.78825,0.02915
3388.82387,0.02913
3387.85949,0.02921
3386.89512,0.02931
3385.93074,0.02936
3384.96636,0.02942
3384.00198,0.02951
3383.03760,0.02957
3382.07323,0.02962
3381.10885,0.02965
3380.14447,0.02967
3379.18009,0.02965
3378.21571,0.02963
3377.25134,0.02962
3376.28696,0.02960
3375.32258,0.02959
3374.35820,0.02962
3373.39382,0.02973
3372.42945,0.02981
3371.46507,0.02981
3370.50069,0.02979
3369.53631,0.02978
3368.57194,0.02976
3367.60756,0.02970
3366.64318,0.02966
3365.67880,0.02961
3364.71442,0.02958
3363.75005,0.02963
3362.78567,0.02974
3361.82129,0.02984
3360.85691,0.02987
3359.89253,0.02991
3358.92816,0.02998
3357.96378,0.02997
3356.99940,0.02986
3356.03502,0.02973
3355.07065,0.02963
3354.10627,0.02953
3353.14189,0.02944
3352.17751,0.02937
3351.21313,0.02931
3350.24876,0.02929
3349.28438,0.02938
3348.32000,0.02953
3347.35562,0.02965
3346.39124,0.02972
3345.42687,0.02973
3344.46249,0.02973
3343.49811,0.02972
3342.53373,0.02966
3341.56935,0.02959
3340.60498,0.02952
3339.64060,0.02946
3338.67622,0.02939
3337.71184,0.02937
3336.74747,0.02937
3335.78309,0.02934
3334.81871,0.02932
3333.85433,0.02928
3332.88995,0.02925
3331.92558,0.02918
3330.96120,0.02908
3329.99682,0.02905
3329.03244,0.02909
3328.06806,0.02909
3327.10369,0.02906
3326.13931,0.02905
3325.17493,0.02903
3324.21055,0.02897
3323.24618,0.02895
3322.28180,0.02898
3321.31742,0.02897
3320.35304,0.02892
3319.38866,0.02890
3318.42429,0.02899
3317.45991,0.02908
3316.49553,0.02909
3315.53115,0.02907
3314.56677,0.02903
3313.60240,0.02898
3312.63802,0.02898
3311.67364,0.02899
3310.70926,0.02896
3309.74488,0.02892
3308.78051,0.02889
3307.81613,0.02891
3306.85175,0.02896
3305.88737,0.02900
3304.92300,0.02900
3303.95862,0.02900
3302.99424,0.02899
3302.02986,0.02900
3301.06548,0.02902
3300.10111,0.02899
3299.13673,0.02889
3298.17235,0.02880
3297.20797,0.02870
3296.24359,0.02860
3295.27922,0.02855
3294.31484,0.02851
3293.35046,0.02846
3292.38608,0.02844
3291.42171,0.02844
3290.45733,0.02849
3289.49295,0.02854
3288.52857,0.02858
3287.56419,0.02860
3286.59982,0.02859
3285.63544,0.02858
3284.67106,0.02862
3283.70668,0.02862
3282.74230,0.02856
3281.77793,0.02845
3280.81355,0.02834
3279.84917,0.02826
3278.88479,0.02818
3277.92041,0.02809
3276.95604,0.02803
3275.99166,0.02802
3275.02728,0.02804
3274.06290,0.02812
3273.09853,0.02823
3272.13415,0.02833
3271.16977,0.02842
3270.20539,0.02849
3269.24101,0.02853
3268.27664,0.02855
3267.31226,0.02857
3266.34788,0.02854
3265.38350,0.02849
3264.41912,0.02845
3263.45475,0.02840
3262.49037,0.02833
3261.52599,0.02825
3260.56161,0.02819
3259.59724,0.02812
3258.63286,0.02801
3257.66848,0.02790
3256.70410,0.02783
3255.73972,0.02777
3254.77535,0.02770
3253.81097,0.02767
3252.84659,0.02771
3251.88221,0.02782
3250.91783,0.02797
3249.95346,0.02810
3248.98908,0.02820
3248.02470,0.02823
3247.06032,0.02821
3246.09594,0.02820
3245.13157,0.02815
3244.16719,0.02803
3243.20281,0.02788
3242.23843,0.02776
3241.27406,0.02773
3240.30968,0.02779
3239.34530,0.02785
3238.38092,0.02790
3237.41654,0.02792
3236.45217,0.02792
3235.48779,0.02795
3234.52341,0.02796
3233.55903,0.02789
3232.59465,0.02783
3231.63028,0.02777
3230.66590,0.02772
3229.70152,0.02771
3228.73714,0.02767
3227.77276,0.02761
3226.80839,0.02754
3225.84401,0.02745
3224.87963,0.02740
3223.91525,0.02740
3222.95088,0.02739
3221.98650,0.02738
3221.02212,0.02745
3220.05774,0.02752
3219.09336,0.02755
3218.12899,0.02755
3217.16461,0.02753
3216.20023,0.02748
3215.23585,0.02740
3214.27147,0.02735
3213.30710,0.02736
3212.34272,0.02737
3211.37834,0.02735
3210.41396,0.02730
3209.44959,0.02728
3208.48521,0.02726
3207.52083,0.02724
3206.55645,0.02724
3205.59207,0.02727
3204.62770,0.02731
3203.66332,0.02738
3202.69894,0.02748
3201.73456,0.02757
3200.77018,0.02762
3199.80581,0.02761
3198.84143,0.02757
3197.87705,0.02752
3196.91267,0.02742
3195.94829,0.02727
3194.98392,0.02714
3194.01954,0.02709
3193.05516,0.02710
3192.09078,0.02710
3191.12641,0.02709
3190.16203,0.02708
3189.19765,0.02709
3188.23327,0.02707
3187.26889,0.02703
3186.30452,0.02699
3185.34014,0.02689
3184.37576,0.02681
3183.41138,0.02680
3182.44700,0.02688
3181.48263,0.02697
3180.51825,0.02700
3179.55387,0.02698
3178.58949,0.02695
3177.62512,0.02694
3176.66074,0.02690
3175.69636,0.02682
3174.73198,0.02675
3173.76760,0.02667
3172.80323,0.02660
3171.83885,0.02657
3170.87447,0.02656
3169.91009,0.02656
3168.94571,0.02655
3167.98134,0.02657
3167.01696,0.02659
3166.05258,0.02662
3165.08820,0.02660
3164.12382,0.02653
3163.15945,0.02644
3162.19507,0.02632
3161.23069,0.02619
3160.26631,0.02609
3159.30194,0.02605
3158.33756,0.02609
3157.37318,0.02618
3156.40880,0.02630
3155.44442,0.02637
3154.48005,0.02641
3153.51567,0.02646
3152.55129,0.02649
3151.58691,0.02647
3150.62253,0.02640
3149.65816,0.02634
3148.69378,0.02627
3147.72940,0.02624
3146.76502,0.02623
3145.80065,0.02622
3144.83627,0.02621
3143.87189,0.02622
3142.90751,0.02628
3141.94313,0.02637
3140.97876,0.02643
3140.01438,0.02644
3139.05000,0.02640
3138.08562,0.02634
3137.12124,0.02627
3136.15687,0.02620
3135.19249,0.02613
3134.22811,0.02607
3133.26373,0.02604
3132.29935,0.02601
3131.33498,0.02597
3130.37060,0.02592
3129.40622,0.02586
3128.44184,0.02580
3127.47747,0.02580
3126.51309,0.02586
3125.54871,0.02594
3124.58433,0.02601
3123.61995,0.02606
3122.65558,0.02605
3121.69120,0.02601
3120.72682,0.02589
3119.76244,0.02569
3118.79806,0.02559
3117.83369,0.02560
3116.86931,0.02562
3115.90493,0.02567
3114.94055,0.02570
3113.97618,0.02572
3113.01180,0.02574
3112.04742,0.02575
3111.08304,0.02571
3110.11866,0.02565
3109.15429,0.02561
3108.18991,0.02563
3107.22553,0.02572
3106.26115,0.02581
3105.29677,0.02581
3104.33240,0.02574
3103.36802,0.02565
3102.40364,0.02553
3101.43926,0.02541
3100.47488,0.02538
3099.51051,0.02543
3098.54613,0.02550
3097.58175,0.02563
3096.61737,0.02573
3095.65300,0.02580
3094.68862,0.02581
3093.72424,0.02577
3092.75986,0.02561
3091.79548,0.02541
3090.83111,0.02535
3089.86673,0.02541
3088.90235,0.02558
3087.93797,0.02571
3086.97359,0.02572
3086.00922,0.02569
3085.04484,0.02565
3084.08046,0.02556
3083.11608,0.02534
3082.15171,0.02512
3081.18733,0.02500
3080.22295,0.02498
3079.25857,0.02513
3078.29419,0.02528
3077.32982,0.02536
3076.36544,0.02536
3075.40106,0.02534
3074.43668,0.02531
3073.47230,0.02523
3072.50793,0.02518
3071.54355,0.02518
3070.57917,0.02527
3069.61479,0.02538
3068.65041,0.02541
3067.68604,0.02541
3066.72166,0.02537
3065.75728,0.02529
3064.79290,0.02514
3063.82853,0.02498
3062.86415,0.02491
3061.89977,0.02493
3060.93539,0.02504
3059.97101,0.02512
3059.00664,0.02510
3058.04226,0.02503
3057.07788,0.02498
3056.11350,0.02491
3055.14912,0.02477
3054.18475,0.02462
3053.22037,0.02448
3052.25599,0.02443
3051.29161,0.02448
3050.32724,0.02455
3049.36286,0.02456
3048.39848,0.02456
3047.43410,0.02456
3046.46972,0.02456
3045.50535,0.02454
3044.54097,0.02450
3043.57659,0.02447
3042.61221,0.02449
3041.64783,0.02457
3040.68346,0.02460
3039.71908,0.02454
3038.75470,0.02447
3037.79032,0.02441
3036.82594,0.02437
3035.86157,0.02430
3034.89719,0.02416
3033.93281,0.02404
3032.96843,0.02400
3032.00406,0.02401
3031.03968,0.02406
3030.07530,0.02413
3029.11092,0.02416
3028.14654,0.02419
3027.18217,0.02423
3026.21779,0.02424
3025.25341,0.02418
3024.28903,0.02404
3023.32465,0.02402
3022.36028,0.02428
3021.39590,0.02473
3020.43152,0.02520
3019.46714,0.02559
3018.50276,0.02586
3017.53839,0.02603
3016.57401,0.02606
3015.60963,0.02587
3014.64525,0.02550
3013.68088,0.02499
3012.71650,0.02448
3011.75212,0.02414
3010.78774,0.02402
3009.82336,0.02399
3008.85899,0.02395
3007.89461,0.02388
3006.93023,0.02382
3005.96585,0.02375
3005.00147,0.02364
3004.03710,0.02353
3003.07272,0.02346
3002.10834,0.02342
3001.14396,0.02338
3000.17959,0.02330
2999.21521,0.02323
2998.25083,0.02318
2997.28645,0.02316
2996.32207,0.02314
2995.35770,0.02309
2994.39332,0.02308
2993.42894,0.02312
2992.46456,0.02320
2991.50018,0.02327
2990.53581,0.02326
2989.57143,0.02318
2988.60705,0.02302
2987.64267,0.02285
2986.67829,0.02269
2985.71392,0.02253
2984.74954,0.02237
2983.78516,0.02228
2982.82078,0.02228
2981.85641,0.02231
2980.89203,0.02233
2979.92765,0.02234
2978.96327,0.02234
2977.99889,0.02233
2977.03452,0.02233
2976.07014,0.02235
2975.10576,0.02238
2974.14138,0.02240
2973.17700,0.02245
2972.21263,0.02253
2971.24825,0.02258
2970.28387,0.02256
2969.31949,0.02252
2968.35512,0.02246
2967.39074,0.02236
2966.42636,0.02223
2965.46198,0.02210
2964.49760,0.02198
2963.53323,0.02194
2962.56885,0.02197
2961.60447,0.02203
2960.64009,0.02211
2959.67571,0.02216
2958.71134,0.02216
2957.74696,0.02214
2956.78258,0.02211
2955.81820,0.02206
2954.85382,0.02199
2953.88945,0.02193
2952.92507,0.02194
2951.96069,0.02201
2950.99631,0.02205
2950.03194,0.02203
2949.06756,0.02195
2948.10318,0.02183
2947.13880,0.02172
2946.17442,0.02160
2945.21005,0.02145
2944.24567,0.02132
2943.28129,0.02123
2942.31691,0.02125
2941.35253,0.02135
2940.38816,0.02145
2939.42378,0.02155
2938.45940,0.02161
2937.49502,0.02164
2936.53065,0.02169
2935.56627,0.02172
2934.60189,0.02165
2933.63751,0.02152
2932.67313,0.02144
2931.70876,0.02144
2930.74438,0.02146
2929.78000,0.02144
2928.81562,0.02141
2927.85124,0.02142
2926.88687,0.02144
2925.92249,0.02142
2924.95811,0.02138
2923.99373,0.02131
2923.02935,0.02122
2922.06498,0.02119
2921.10060,0.02124
2920.13622,0.02126
2919.17184,0.02120
2918.20747,0.02109
2917.24309,0.02100
2916.27871,0.02094
2915.31433,0.02088
2914.34995,0.02077
2913.38558,0.02066
2912.42120,0.02055
2911.45682,0.02048
2910.49244,0.02045
2909.52806,0.02041
2908.56369,0.02031
2907.59931,0.02017
2906.63493,0.02004
2905.67055,0.01991
2904.70618,0.01978
2903.74180,0.01969
2902.77742,0.01965
2901.81304,0.01967
2900.84866,0.01974
2899.88429,0.01984
2898.91991,0.01994
2897.95553,0.02002
2896.99115,0.02009
2896.02677,0.02014
2895.06240,0.02014
2894.09802,0.02007
2893.13364,0.01998
2892.16926,0.01992
2891.20488,0.01989
2890.24051,0.01991
2889.27613,0.01993
2888.31175,0.01993
2887.34737,0.01990
2886.38300,0.01986
2885.41862,0.01982
2884.45424,0.01977
2883.48986,0.01969
2882.52548,0.01959
2881.56111,0.01951
2880.59673,0.01946
2879.63235,0.01944
2878.66797,0.01943
2877.70359,0.01941
2876.73922,0.01940
2875.77484,0.01938
2874.81046,0.01933
2873.84608,0.01931
2872.88171,0.01930
2871.91733,0.01928
2870.95295,0.01927
2869.98857,0.01926
2869.02419,0.01924
2868.05982,0.01921
2867.09544,0.01919
2866.13106,0.01918
2865.16668,0.01921
2864.20230,0.01921
2863.23793,0.01923
2862.27355,0.01931
2861.30917,0.01938
2860.34479,0.01942
2859.38041,0.01946
2858.41604,0.01947
2857.45166,0.01943
2856.48728,0.01939
2855.52290,0.01935
2854.55853,0.01932
2853.59415,0.01929
2852.62977,0.01925
2851.66539,0.01921
2850.70101,0.01920
2849.73664,0.01918
2848.77226,0.01916
2847.80788,0.01916
2846.84350,0.01912
2845.87912,0.01907
2844.91475,0.01903
2843.95037,0.01899
2842.98599,0.01896
2842.02161,0.01891
2841.05724,0.01884
2840.09286,0.01877
2839.12848,0.01873
2838.16410,0.01871
2837.19972,0.01871
2836.23535,0.01870
2835.27097,0.01868
2834.30659,0.01866
2833.34221,0.01866
2832.37783,0.01864
2831.41346,0.01861
2830.44908,0.01858
2829.48470,0.01853
2828.52032,0.01848
2827.55594,0.01844
2826.59157,0.01840
2825.62719,0.01837
2824.66281,0.01836
2823.69843,0.01838
2822.73406,0.01842
2821.76968,0.01846
2820.80530,0.01849
2819.84092,0.01850
2818.87654,0.01850
2817.91217,0.01849
2816.94779,0.01846
2815.98341,0.01838
2815.01903,0.01829
2814.05465,0.01821
2813.09028,0.01816
2812.12590,0.01814
2811.16152,0.01813
2810.19714,0.01812
2809.23276,0.01813
2808.26839,0.01813
2807.30401,0.01815
2806.33963,0.01816
2805.37525,0.01815
2804.41088,0.01809
2803.44650,0.01802
2802.48212,0.01797
2801.51774,0.01796
2800.55336,0.01800
2799.58899,0.01803
2798.62461,0.01803
2797.66023,0.01803
2796.69585,0.01803
2795.73147,0.01803
2794.76710,0.01801
2793.80272,0.01795
2792.83834,0.01787
2791.87396,0.01781
2790.90959,0.01779
2789.94521,0.01779
2788.98083,0.01781
2788.01645,0.01781
2787.05207,0.01779
2786.08770,0.01780
2785.12332,0.01780
2784.15894,0.01778
2783.19456,0.01773
2782.23018,0.01766
2781.26581,0.01759
2780.30143,0.01755
2779.33705,0.01751
2778.37267,0.01748
2777.40829,0.01745
2776.44392,0.01743
2775.47954,0.01743
2774.51516,0.01745
2773.55078,0.01744
2772.58641,0.01741
2771.62203,0.01740
2770.65765,0.01740
2769.69327,0.01740
2768.72889,0.01741
2767.76452,0.01742
2766.80014,0.01744
2765.83576,0.01747
2764.87138,0.01751
2763.90700,0.01755
2762.94263,0.01756
2761.97825,0.01753
2761.01387,0.01751
2760.04949,0.01750
2759.08512,0.01746
2758.12074,0.01739
2757.15636,0.01734
2756.19198,0.01730
2755.22760,0.01725
2754.26323,0.01722
2753.29885,0.01722
2752.33447,0.01722
2751.37009,0.01722
2750.40571,0.01722
2749.44134,0.01722
2748.47696,0.01721
2747.51258,0.01719
2746.54820,0.01716
2745.58382,0.01713
2744.61945,0.01710
2743.65507,0.01710
2742.69069,0.01711
2741.72631,0.01714
2740.76194,0.01714
2739.79756,0.01714
2738.83318,0.01713
2737.86880,0.01710
2736.90442,0.01703
2735.94005,0.01695
2734.97567,0.01686
2734.01129,0.01681
2733.04691,0.01682
2732.08253,0.01688
2731.11816,0.01694
2730.15378,0.01697
2729.18940,0.01695
2728.22502,0.01692
2727.26065,0.01690
2726.29627,0.01685
2725.33189,0.01677
2724.36751,0.01669
2723.40313,0.01664
2722.43876,0.01662
2721.47438,0.01664
2720.51000,0.01668
2719.54562,0.01673
2718.58124,0.01676
2717.61687,0.01675
2716.65249,0.01676
2715.68811,0.01676
2714.72373,0.01674
2713.75935,0.01670
2712.79498,0.01665
2711.83060,0.01662
2710.86622,0.01659
2709.90184,0.01655
2708.93747,0.01651
2707.97309,0.01649
2707.00871,0.01648
2706.04433,0.01647
2705.07995,0.01645
2704.11558,0.01644
2703.15120,0.01641
2702.18682,0.01640
2701.22244,0.01640
2700.25806,0.01639
2699.29369,0.01637
2698.32931,0.01634
2697.36493,0.01631
2696.40055,0.01627
2695.43618,0.01624
2694.47180,0.01622
2693.50742,0.01621
2692.54304,0.01622
2691.57866,0.01621
2690.61429,0.01621
2689.64991,0.01620
2688.68553,0.01619
2687.72115,0.01619
2686.75677,0.01619
2685.79240,0.01618
2684.82802,0.01615
2683.86364,0.01611
2682.89926,0.01610
2681.93488,0.01610
2680.97051,0.01608
2680.00613,0.01605
2679.04175,0.01603
2678.07737,0.01600
2677.11300,0.01597
2676.14862,0.01595
2675.18424,0.01594
2674.21986,0.01592
2673.25548,0.01588
2672.29111,0.01586
2671.32673,0.01583
2670.36235,0.01578
2669.39797,0.01572
2668.43359,0.01569
2667.46922,0.01569
2666.50484,0.01568
2665.54046,0.01569
2664.57608,0.01571
2663.61171,0.01570
2662.64733,0.01568
2661.68295,0.01568
2660.71857,0.01569
2659.75419,0.01566
2658.78982,0.01560
2657.82544,0.01554
2656.86106,0.01549
2655.89668,0.01546
2654.93230,0.01545
2653.96793,0.01542
2653.00355,0.01538
2652.03917,0.01532
2651.07479,0.01526
2650.11041,0.01523
2649.14604,0.01520
2648.18166,0.01515
2647.21728,0.01509
2646.25290,0.01503
2645.28853,0.01502
2644.32415,0.01505
2643.35977,0.01510
2642.39539,0.01512
2641.43101,0.01516
2640.46664,0.01520
2639.50226,0.01521
2638.53788,0.01521
2637.57350,0.01517
2636.60912,0.01512
2635.64475,0.01504
2634.68037,0.01497
2633.71599,0.01493
2632.75161,0.01487
2631.78724,0.01480
2630.82286,0.01478
2629.85848,0.01480
2628.89410,0.01483
2627.92972,0.01482
2626.96535,0.01477
2626.00097,0.01473
2625.03659,0.01471
2624.07221,0.01471
2623.10783,0.01471
2622.14346,0.01473
2621.17908,0.01474
2620.21470,0.01476
2619.25032,0.01481
2618.28594,0.01484
2617.32157,0.01484
2616.35719,0.01478
2615.39281,0.01467
2614.42843,0.01454
2613.46406,0.01443
2612.49968,0.01435
2611.53530,0.01431
2610.57092,0.01432
2609.60654,0.01437
2608.64217,0.01443
2607.67779,0.01449
2606.71341,0.01455
2605.74903,0.01460
2604.78465,0.01461
2603.82028,0.01456
2602.85590,0.01448
2601.89152,0.01441
2600.92714,0.01433
2599.96276,0.01428
2598.99839,0.01426
2598.03401,0.01424
2597.06963,0.01420
2596.10525,0.01417
2595.14088,0.01413
2594.17650,0.01407
2593.21212,0.01401
2592.24774,0.01399
2591.28336,0.01397
2590.31899,0.01396
2589.35461,0.01392
2588.39023,0.01385
2587.42585,0.01384
2586.46147,0.01381
2585.49710,0.01377
2584.53272,0.01376
2583.56834,0.01378
2582.60396,0.01381
2581.63959,0.01383
2580.67521,0.01388
2579.71083,0.01395
2578.74645,0.01399
2577.78207,0.01395
2576.81770,0.01387
2575.85332,0.01379
2574.88894,0.01370
2573.92456,0.01363
2572.96018,0.01361
2571.99581,0.01363
2571.03143,0.01363
2570.06705,0.01360
2569.10267,0.01362
2568.13829,0.01362
2567.17392,0.01360
2566.20954,0.01359
2565.24516,0.01355
2564.28078,0.01349
2563.31641,0.01348
2562.35203,0.01352
2561.38765,0.01352
2560.42327,0.01352
2559.45889,0.01352
2558.49452,0.01353
2557.53014,0.01352
2556.56576,0.01348
2555.60138,0.01351
2554.63700,0.01360
2553.67263,0.01364
2552.70825,0.01366
2551.74387,0.01366
2550.77949,0.01359
2549.81512,0.01347
2548.85074,0.01336
2547.88636,0.01327
2546.92198,0.01324
2545.95760,0.01321
2544.99323,0.01323
2544.02885,0.01331
2543.06447,0.01335
2542.10009,0.01336
2541.13571,0.01338
2540.17134,0.01334
2539.20696,0.01323
2538.24258,0.01315
2537.27820,0.01311
2536.31382,0.01311
2535.34945,0.01314
2534.38507,0.01314
2533.42069,0.01311
2532.45631,0.01311
2531.49194,0.01313
2530.52756,0.01312
2529.56318,0.01310
2528.59880,0.01308
2527.63442,0.01302
2526.67005,0.01300
2525.70567,0.01300
2524.74129,0.01298
2523.77691,0.01292
2522.81253,0.01285
2521.84816,0.01283
2520.88378,0.01288
2519.91940,0.01295
2518.95502,0.01294
2517.99065,0.01294
2517.02627,0.01297
2516.06189,0.01291
2515.09751,0.01288
2514.13313,0.01291
2513.16876,0.01293
2512.20438,0.01287
2511.24000,0.01284
2510.27562,0.01289
2509.31124,0.01295
2508.34687,0.01296
2507.38249,0.01294
2506.41811,0.01293
2505.45373,0.01291
2504.48935,0.01285
2503.52498,0.01284
2502.56060,0.01286
2501.59622,0.01281
2500.63184,0.01275
2499.66747,0.01275
2498.70309,0.01280
2497.73871,0.01281
2496.77433,0.01278
2495.80995,0.01274
2494.84558,0.01268
2493.88120,0.01263
2492.91682,0.01257
2491.95244,0.01252
2490.98806,0.01249
2490.02369,0.01249
2489.05931,0.01255
2488.09493,0.01261
2487.13055,0.01265
2486.16618,0.01271
2485.20180,0.01272
2484.23742,0.01268
2483.27304,0.01264
2482.30866,0.01259
2481.34429,0.01251
2480.37991,0.01241
2479.41553,0.01234
2478.45115,0.01231
2477.48677,0.01230
2476.52240,0.01226
2475.55802,0.01227
2474.59364,0.01235
2473.62926,0.01238
2472.66488,0.01238
2471.70051,0.01235
2470.73613,0.01227
2469.77175,0.01217
2468.80737,0.01206
2467.84300,0.01198
2466.87862,0.01195
2465.91424,0.01193
2464.94986,0.01188
2463.98548,0.01188
2463.02111,0.01193
2462.05673,0.01191
2461.09235,0.01190
2460.12797,0.01192
2459.16359,0.01195
2458.19922,0.01201
2457.23484,0.01208
2456.27046,0.01214
2455.30608,0.01220
2454.34171,0.01222
2453.37733,0.01214
2452.41295,0.01206
2451.44857,0.01196
2450.48419,0.01183
2449.51982,0.01179
2448.55544,0.01177
2447.59106,0.01174
2446.62668,0.01173
2445.66230,0.01171
2444.69793,0.01165
2443.73355,0.01162
2442.76917,0.01162
2441.80479,0.01161
2440.84041,0.01160
2439.87604,0.01159
2438.91166,0.01165
2437.94728,0.01179
2436.98290,0.01188
2436.01853,0.01190
2435.05415,0.01189
2434.08977,0.01185
2433.12539,0.01177
2432.16101,0.01169
2431.19664,0.01162
2430.23226,0.01150
2429.26788,0.01138
2428.30350,0.01133
2427.33912,0.01135
2426.37475,0.01138
2425.41037,0.01137
2424.44599,0.01133
2423.48161,0.01133
2422.51724,0.01136
2421.55286,0.01141
2420.58848,0.01145
2419.62410,0.01144
2418.65972,0.01142
2417.69535,0.01140
2416.73097,0.01137
2415.76659,0.01131
2414.80221,0.01121
2413.83783,0.01108
2412.87346,0.01098
2411.90908,0.01097
2410.94470,0.01102
2409.98032,0.01110
2409.01594,0.01121
2408.05157,0.01131
2407.08719,0.01138
2406.12281,0.01142
2405.15843,0.01144
2404.19406,0.01144
2403.22968,0.01140
2402.26530,0.01136
2401.30092,0.01136
2400.33654,0.01137
2399.37217,0.01137
2398.40779,0.01138
2397.44341,0.01142
2396.47903,0.01143
2395.51465,0.01141
2394.55028,0.01139
2393.58590,0.01137
2392.62152,0.01135
2391.65714,0.01135
2390.69276,0.01133
2389.72839,0.01127
2388.76401,0.01125
2387.79963,0.01125
2386.83525,0.01128
2385.87088,0.01130
2384.90650,0.01135
2383.94212,0.01142
2382.97774,0.01149
2382.01336,0.01155
2381.04899,0.01161
2380.08461,0.01169
2379.12023,0.01178
2378.15585,0.01186
2377.19147,0.01197
2376.22710,0.01208
2375.26272,0.01217
2374.29834,0.01227
2373.33396,0.01236
2372.36959,0.01239
2371.40521,0.01239
2370.44083,0.01240
2369.47645,0.01242
2368.51207,0.01248
2367.54770,0.01258
2366.58332,0.01269
2365.61894,0.01280
2364.65456,0.01289
2363.69018,0.01294
2362.72581,0.01299
2361.76143,0.01300
2360.79705,0.01297
2359.83267,0.01294
2358.86829,0.01292
2357.90392,0.01286
2356.93954,0.01275
2355.97516,0.01263
2355.01078,0.01251
2354.04641,0.01235
2353.08203,0.01217
2352.11765,0.01200
2351.15327,0.01191
2350.18889,0.01191
2349.22452,0.01195
2348.26014,0.01202
2347.29576,0.01208
2346.33138,0.01214
2345.36700,0.01219
2344.40263,0.01222
2343.43825,0.01228
2342.47387,0.01232
2341.50949,0.01234
2340.54512,0.01233
2339.58074,0.01233
2338.61636,0.01236
2337.65198,0.01239
2336.68760,0.01241
2335.72323,0.01238
2334.75885,0.01234
2333.79447,0.01228
2332.83009,0.01225
2331.86571,0.01227
2330.90134,0.01226
2329.93696,0.01220
2328.97258,0.01214
2328.00820,0.01212
2327.04382,0.01209
2326.07945,0.01204
2325.11507,0.01195
2324.15069,0.01183
2323.18631,0.01169
2322.22194,0.01153
2321.25756,0.01141
2320.29318,0.01134
2319.32880,0.01130
2318.36442,0.01125
2317.40005,0.01123
2316.43567,0.01127
2315.47129,0.01129
2314.50691,0.01124
2313.54253,0.01117
2312.57816,0.01111
2311.61378,0.01102
2310.64940,0.01098
2309.68502,0.01099
2308.72065,0.01099
2307.75627,0.01096
2306.79189,0.01088
2305.82751,0.01079
2304.86313,0.01072
2303.89876,0.01061
2302.93438,0.01046
2301.97000,0.01037
2301.00562,0.01030
2300.04124,0.01022
2299.07687,0.01024
2298.11249,0.01034
2297.14811,0.01037
2296.18373,0.01038
2295.21935,0.01032
2294.25498,0.01023
2293.29060,0.01018
2292.32622,0.01013
2291.36184,0.01017
2290.39747,0.01030
2289.43309,0.01037
2288.46871,0.01036
2287.50433,0.01039
2286.53995,0.01043
2285.57558,0.01039
2284.61120,0.01033
2283.64682,0.01024
2282.68244,0.01012
2281.71806,0.00996
2280.75369,0.00985
2279.78931,0.00993
2278.82493,0.01006
2277.86055,0.01008
2276.89618,0.01001
2275.93180,0.01008
2274.96742,0.01020
2274.00304,0.01031
2273.03866,0.01047
2272.07429,0.01058
2271.10991,0.01057
2270.14553,0.01036
2269.18115,0.01011
2268.21677,0.00995
2267.25240,0.00973
2266.28802,0.00960
2265.32364,0.00961
2264.35926,0.00966
2263.39488,0.00965
2262.43051,0.00967
2261.46613,0.00973
2260.50175,0.00973
2259.53737,0.00969
2258.57300,0.00953
2257.60862,0.00923
2256.64424,0.00897
2255.67986,0.00888
2254.71548,0.00904
2253.75111,0.00928
2252.78673,0.00945
2251.82235,0.00959
2250.85797,0.00970
2249.89359,0.00975
2248.92922,0.00975
2247.96484,0.00972
2247.00046,0.00954
2246.03608,0.00923
2245.07171,0.00898
2244.10733,0.00893
2243.14295,0.00897
2242.17857,0.00901
2241.21419,0.00907
2240.24982,0.00904
2239.28544,0.00892
2238.32106,0.00892
2237.35668,0.00905
2236.39230,0.00910
2235.42793,0.00903
2234.46355,0.00898
2233.49917,0.00900
2232.53479,0.00904
2231.57041,0.00884
2230.60604,0.00838
2229.64166,0.00794
2228.67728,0.00758
2227.71290,0.00747
2226.74853,0.00752
2225.78415,0.00765
2224.81977,0.00803
2223.85539,0.00851
2222.89101,0.00899
2221.92664,0.00958
2220.96226,0.01011
2219.99788,0.01037
2219.03350,0.01039
2218.06912,0.01045
2217.10475,0.01050
2216.14037,0.01029
2215.17599,0.00982
2214.21161,0.00933
2213.24724,0.00898
2212.28286,0.00853
2211.31848,0.00825
2210.35410,0.00855
2209.38972,0.00900
2208.42535,0.00931
2207.46097,0.00956
2206.49659,0.00977
2205.53221,0.00978
2204.56783,0.00951
2203.60346,0.00920
2202.63908,0.00871
2201.67470,0.00811
2200.71032,0.00755
2199.74594,0.00725
2198.78157,0.00723
2197.81719,0.00711
2196.85281,0.00693
2195.88843,0.00680
2194.92406,0.00667
2193.95968,0.00660
2192.99530,0.00661
2192.03092,0.00668
2191.06654,0.00670
2190.10217,0.00670
2189.13779,0.00670
2188.17341,0.00671
2187.20903,0.00671
2186.24465,0.00672
2185.28028,0.00672
2184.31590,0.00672
2183.35152,0.00673
2182.38714,0.00673
2181.42276,0.00674
2180.45839,0.00674
2179.49401,0.00674
2178.52963,0.00675
2177.56525,0.00675
2176.60088,0.00676
2175.63650,0.00676
2174.67212,0.00677
2173.70774,0.00677
2172.74336,0.00677
2171.77899,0.00678
2170.81461,0.00678
2169.85023,0.00679
2168.88585,0.00679
2167.92147,0.00679
2166.95710,0.00680
2165.99272,0.00680
2165.02834,0.00681
2164.06396,0.00681
2163.09959,0.00681
2162.13521,0.00682
2161.17083,0.00682
2160.20645,0.00683
2159.24207,0.00683
2158.27770,0.00684
2157.31332,0.00684
2156.34894,0.00684
2155.38456,0.00685
2154.42018,0.00685
2153.45581,0.00686
2152.49143,0.00686
2151.52705,0.00686
2150.56267,0.00687
2149.59829,0.00687
2148.63392,0.00688
2147.66954,0.00688
2146.70516,0.00688
2145.74078,0.00689
2144.77641,0.00689
2143.81203,0.00690
2142.84765,0.00690
2141.88327,0.00690
2140.91889,0.00691
2139.95452,0.00691
2138.99014,0.00692
2138.02576,0.00692
2137.06138,0.00693
2136.09700,0.00693
2135.13263,0.00693
2134.16825,0.00694
2133.20387,0.00694
2132.23949,0.00695
2131.27512,0.00695
2130.31074,0.00695
2129.34636,0.00696
2128.38198,0.00696
2127.41760,0.00697
2126.45323,0.00697
2125.48885,0.00697
2124.52447,0.00698
2123.56009,0.00698
2122.59571,0.00699
2121.63134,0.00699
2120.66696,0.00700
2119.70258,0.00700
2118.73820,0.00700
2117.77382,0.00701
2116.80945,0.00701
2115.84507,0.00702
2114.88069,0.00702
2113.91631,0.00702
2112.95194,0.00703
2111.98756,0.00703
2111.02318,0.00704
2110.05880,0.00704
2109.09442,0.00704
2108.13005,0.00705
2107.16567,0.00705
2106.20129,0.00706
2105.23691,0.00706
2104.27253,0.00706
2103.30816,0.00707
2102.34378,0.00707
2101.37940,0.00708
2100.41502,0.00708
2099.45065,0.00709
2098.48627,0.00709
2097.52189,0.00709
2096.55751,0.00710
2095.59313,0.00710
2094.62876,0.00711
2093.66438,0.00711
2092.70000,0.00711
2091.73562,0.00712
2090.77124,0.00712
2089.80687,0.00713
2088.84249,0.00713
2087.87811,0.00713
2086.91373,0.00714
2085.94935,0.00714
2084.98498,0.00715
2084.02060,0.00715
2083.05622,0.00716
2082.09184,0.00716
2081.12747,0.00716
2080.16309,0.00717
2079.19871,0.00717
2078.23433,0.00718
2077.26995,0.00718
2076.30558,0.00718
2075.34120,0.00719
2074.37682,0.00719
2073.41244,0.00720
2072.44806,0.00720
2071.48369,0.00720
2070.51931,0.00721
2069.55493,0.00721
2068.59055,0.00722
2067.62618,0.00722
2066.66180,0.00722
2065.69742,0.00723
2064.73304,0.00723
2063.76866,0.00724
2062.80429,0.00724
2061.83991,0.00725
2060.87553,0.00725
2059.91115,0.00725
2058.94677,0.00726
2057.98240,0.00726
2057.01802,0.00727
2056.05364,0.00727
2055.08926,0.00727
2054.12488,0.00728
2053.16051,0.00728
2052.19613,0.00729
2051.23175,0.00729
2050.26737,0.00729
2049.30300,0.00730
2048.33862,0.00730
2047.37424,0.00731
2046.40986,0.00731
2045.44548,0.00732
2044.48111,0.00732
2043.51673,0.00732
2042.55235,0.00733
2041.58797,0.00733
2040.62359,0.00734
2039.65922,0.00734
2038.69484,0.00734
2037.73046,0.00735
2036.76608,0.00735
2035.80171,0.00736
2034.83733,0.00736
2033.87295,0.00736
2032.90857,0.00737
2031.94419,0.00737
2030.97982,0.00738
2030.01544,0.00738
2029.05106,0.00738
2028.08668,0.00739
2027.12230,0.00739
2026.15793,0.00740
2025.19355,0.00740
2024.22917,0.00741
2023.26479,0.00741
2022.30041,0.00741
2021.33604,0.00742
2020.37166,0.00742
2019.40728,0.00743
2018.44290,0.00743
2017.47853,0.00743
2016.51415,0.00744
2015.54977,0.00744
2014.58539,0.00745
2013.62101,0.00745
2012.65664,0.00745
2011.69226,0.00746
2010.72788,0.00746
2009.76350,0.00747
2008.79912,0.00747
2007.83475,0.00748
2006.87037,0.00748
2005.90599,0.00748
2004.94161,0.00749
2003.97724,0.00749
2003.01286,0.00750
2002.04848,0.00750
2001.08410,0.00750
2000.11972,0.00751
1999.15535,0.00751
1998.19097,0.00752
1997.22659,0.00752
1996.26221,0.00752
1995.29783,0.00753
1994.33346,0.00753
1993.36908,0.00754
1992.40470,0.00754
1991.44032,0.00754
1990.47594,0.00755
1989.51157,0.00755
1988.54719,0.00756
1987.58281,0.00756
1986.61843,0.00757
1985.65406,0.00757
1984.68968,0.00757
1983.72530,0.00758
1982.76092,0.00758
1981.79654,0.00759
1980.83217,0.00759
1979.86779,0.00759
1978.90341,0.00760
1977.93903,0.00760
1976.97465,0.00761
1976.01028,0.00761
1975.04590,0.00761
1974.08152,0.00762
1973.11714,0.00762
1972.15276,0.00763
1971.18839,0.00763
1970.22401,0.00764
1969.25963,0.00764
1968.29525,0.00764
1967.33088,0.00765
1966.36650,0.00765
1965.40212,0.00766
1964.43774,0.00766
1963.47336,0.00766
1962.50899,0.00767
1961.54461,0.00767
1960.58023,0.00768
1959.61585,0.00768
1958.65147,0.00768
1957.68710,0.00769
1956.72272,0.00769
1955.75834,0.00770
1954.79396,0.00770
1953.82959,0.00770
1952.86521,0.00771
1951.90083,0.00771
1950.93645,0.00772
1949.97207,0.00772
1949.00770,0.00773
1948.04332,0.00773
1947.07894,0.00773
1946.11456,0.00774
1945.15018,0.00774
1944.18581,0.00775
1943.22143,0.00775
1942.25705,0.00775
1941.29267,0.00776
1940.32829,0.00776
1939.36392,0.00777
1938.39954,0.00777
1937.43516,0.00777
1936.47078,0.00778
1935.50641,0.00778
1934.54203,0.00779
1933.57765,0.00779
1932.61327,0.00780
1931.64889,0.00780
1930.68452,0.00776
1929.72014,0.00775
1928.75576,0.00781
1927.79138,0.00792
1926.82700,0.00807
1925.86263,0.00817
1924.89825,0.00815
1923.93387,0.00806
1922.96949,0.00794
1922.00512,0.00783
1921.04074,0.00770
1920.07636,0.00754
1919.11198,0.00744
1918.14760,0.00744
1917.18323,0.00741
1916.21885,0.00737
1915.25447,0.00736
1914.29009,0.00725
1913.32571,0.00706
1912.36134,0.00693
1911.39696,0.00686
1910.43258,0.00684
1909.46820,0.00689
1908.50382,0.00704
1907.53945,0.00724
1906.57507,0.00738
1905.61069,0.00737
1904.64631,0.00734
1903.68194,0.00739
1902.71756,0.00742
1901.75318,0.00744
1900.78880,0.00741
1899.82442,0.00730
1898.86005,0.00722
1897.89567,0.00720
1896.93129,0.00718
1895.96691,0.00714
1895.00253,0.00707
1894.03816,0.00701
1893.07378,0.00706
1892.10940,0.00721
1891.14502,0.00736
1890.18065,0.00746
1889.21627,0.00748
1888.25189,0.00751
1887.28751,0.00759
1886.32313,0.00764
1885.35876,0.00769
1884.39438,0.00770
1883.43000,0.00770
1882.46562,0.00772
1881.50124,0.00776
1880.53687,0.00777
1879.57249,0.00776
1878.60811,0.00776
1877.64373,0.00770
1876.67935,0.00762
1875.71498,0.00756
1874.75060,0.00754
1873.78622,0.00747
1872.82184,0.00732
1871.85747,0.00718
1870.89309,0.00714
1869.92871,0.00714
1868.96433,0.00715
1867.99995,0.00718
1867.03558,0.00725
1866.07120,0.00730
1865.10682,0.00738
1864.14244,0.00749
1863.17806,0.00755
1862.21369,0.00754
1861.24931,0.00752
1860.28493,0.00757
1859.32055,0.00764
1858.35618,0.00766
1857.39180,0.00758
1856.42742,0.00750
1855.46304,0.00748
1854.49866,0.00752
1853.53429,0.00755
1852.56991,0.00754
1851.60553,0.00750
1850.64115,0.00752
1849.67677,0.00754
1848.71240,0.00755
1847.74802,0.00755
1846.78364,0.00756
1845.81926,0.00754
1844.85488,0.00754
1843.89051,0.00758
1842.92613,0.00762
1841.96175,0.00765
1840.99737,0.00771
1840.03300,0.00776
1839.06862,0.00777
1838.10424,0.00776
1837.13986,0.00775
1836.17548,0.00777
1835.21111,0.00778
1834.24673,0.00777
1833.28235,0.00777
1832.31797,0.00775
1831.35359,0.00772
1830.38922,0.00774
1829.42484,0.00782
1828.46046,0.00794
1827.49608,0.00807
1826.53171,0.00820
1825.56733,0.00828
1824.60295,0.00836
1823.63857,0.00842
1822.67419,0.00844
1821.70982,0.00846
1820.74544,0.00842
1819.78106,0.00835
1818.81668,0.00831
1817.85230,0.00831
1816.88793,0.00836
1815.92355,0.00842
1814.95917,0.00844
1813.99479,0.00846
1813.03041,0.00850
1812.06604,0.00855
1811.10166,0.00857
1810.13728,0.00857
1809.17290,0.00854
1808.20853,0.00853
1807.24415,0.00853
1806.27977,0.00854
1805.31539,0.00856
1804.35101,0.00859
1803.38664,0.00863
1802.42226,0.00869
1801.45788,0.00874
1800.49350,0.00878
1799.52912,0.00881
1798.56475,0.00884
1797.60037,0.00888
1796.63599,0.00890
1795.67161,0.00890
1794.70724,0.00888
1793.74286,0.00886
1792.77848,0.00883
1791.81410,0.00883
1790.84972,0.00885
1789.88535,0.00887
1788.92097,0.00891
1787.95659,0.00899
1786.99221,0.00907
1786.02783,0.00913
1785.06346,0.00917
1784.09908,0.00921
1783.13470,0.00924
1782.17032,0.00926
1781.20594,0.00927
1780.24157,0.00932
1779.27719,0.00941
1778.31281,0.00952
1777.34843,0.00964
1776.38406,0.00976
1775.41968,0.00987
1774.45530,0.00996
1773.49092,0.01005
1772.52654,0.01014
1771.56217,0.01024
1770.59779,0.01033
1769.63341,0.01041
1768.66903,0.01052
1767.70465,0.01065
1766.74028,0.01077
1765.77590,0.01091
1764.81152,0.01107
1763.84714,0.01121
1762.88276,0.01134
1761.91839,0.01147
1760.95401,0.01161
1759.98963,0.01175
1759.02525,0.01188
1758.06088,0.01202
1757.09650,0.01216
1756.13212,0.01229
1755.16774,0.01243
1754.20336,0.01258
1753.23899,0.01274
1752.27461,0.01291
1751.31023,0.01309
1750.34585,0.01327
1749.38147,0.01345
1748.41710,0.01362
1747.45272,0.01379
1746.48834,0.01396
1745.52396,0.01411
1744.55959,0.01425
1743.59521,0.01435
1742.63083,0.01445
1741.66645,0.01457
1740.70207,0.01470
1739.73770,0.01481
1738.77332,0.01492
1737.80894,0.01503
1736.84456,0.01512
1735.88018,0.01520
1734.91581,0.01528
1733.95143,0.01535
1732.98705,0.01541
1732.02267,0.01548
1731.05829,0.01555
1730.09392,0.01561
1729.12954,0.01567
1728.16516,0.01571
1727.20078,0.01576
1726.23641,0.01582
1725.27203,0.01584
1724.30765,0.01585
1723.34327,0.01586
1722.37889,0.01587
1721.41452,0.01588
1720.45014,0.01591
1719.48576,0.01593
1718.52138,0.01593
1717.55700,0.01591
1716.59263,0.01588
1715.62825,0.01584
1714.66387,0.01580
1713.69949,0.01574
1712.73512,0.01568
1711.77074,0.01563
1710.80636,0.01557
1709.84198,0.01549
1708.87760,0.01542
1707.91323,0.01537
1706.94885,0.01533
1705.98447,0.01528
1705.02009,0.01524
1704.05571,0.01522
1703.09134,0.01524
1702.12696,0.01527
1701.16258,0.01531
1700.19820,0.01532
1699.23382,0.01530
1698.26945,0.01526
1697.30507,0.01522
1696.34069,0.01520
1695.37631,0.01519
1694.41194,0.01519
1693.44756,0.01518
1692.48318,0.01520
1691.51880,0.01526
1690.55442,0.01531
1689.59005,0.01538
1688.62567,0.01544
1687.66129,0.01551
1686.69691,0.01560
1685.73253,0.01574
1684.76816,0.01590
1683.80378,0.01609
1682.83940,0.01631
1681.87502,0.01654
1680.91065,0.01680
1679.94627,0.01708
1678.98189,0.01737
1678.01751,0.01768
1677.05313,0.01801
1676.08876,0.01837
1675.12438,0.01877
1674.16000,0.01919
1673.19562,0.01962
1672.23124,0.02005
1671.26687,0.02052
1670.30249,0.02101
1669.33811,0.02151
1668.37373,0.02202
1667.40935,0.02254
1666.44498,0.02309
1665.48060,0.02367
1664.51622,0.02428
1663.55184,0.02492
1662.58747,0.02556
1661.62309,0.02619
1660.65871,0.02683
1659.69433,0.02750
1658.72995,0.02818
1657.76558,0.02884
1656.80120,0.02948
1655.83682,0.03013
1654.87244,0.03079
1653.90806,0.03145
1652.94369,0.03211
1651.97931,0.03277
1651.01493,0.03343
1650.05055,0.03408
1649.08618,0.03473
1648.12180,0.03537
1647.15742,0.03598
1646.19304,0.03658
1645.22866,0.03715
1644.26429,0.03771
1643.29991,0.03826
1642.33553,0.03879
1641.37115,0.03931
1640.40677,0.03980
1639.44240,0.04028
1638.47802,0.04073
1637.51364,0.04115
1636.54926,0.04153
1635.58488,0.04187
1634.62051,0.04218
1633.65613,0.04245
1632.69175,0.04270
1631.72737,0.04292
1630.76300,0.04311
1629.79862,0.04325
1628.83424,0.04333
1627.86986,0.04336
1626.90548,0.04335
1625.94111,0.04327
1624.97673,0.04313
1624.01235,0.04295
1623.04797,0.04272
1622.08359,0.04245
1621.11922,0.04213
1620.15484,0.04177
1619.19046,0.04136
1618.22608,0.04090
1617.26171,0.04042
1616.29733,0.03989
1615.33295,0.03934
1614.36857,0.03877
1613.40419,0.03817
1612.43982,0.03759
1611.47544,0.03699
1610.51106,0.03639
1609.54668,0.03576
1608.58230,0.03516
1607.61793,0.03457
1606.65355,0.03400
1605.68917,0.03346
1604.72479,0.03293
1603.76041,0.03243
1602.79604,0.03194
1601.83166,0.03147
1600.86728,0.03103
1599.90290,0.03060
1598.93853,0.03018
1597.97415,0.02979
1597.00977,0.02941
1596.04539,0.02904
1595.08101,0.02869
1594.11664,0.02835
1593.15226,0.02802
1592.18788,0.02770
1591.22350,0.02736
1590.25912,0.02702
1589.29475,0.02667
1588.33037,0.02634
1587.36599,0.02600
1586.40161,0.02564
1585.43724,0.02527
1584.47286,0.02490
1583.50848,0.02454
1582.54410,0.02419
1581.57972,0.02382
1580.61535,0.02342
1579.65097,0.02303
1578.68659,0.02267
1577.72221,0.02232
1576.75783,0.02198
1575.79346,0.02163
1574.82908,0.02129
1573.86470,0.02096
1572.90032,0.02062
1571.93594,0.02030
1570.97157,0.01998
1570.00719,0.01966
1569.04281,0.01934
1568.07843,0.01905
1567.11406,0.01879
1566.14968,0.01855
1565.18530,0.01831
1564.22092,0.01808
1563.25654,0.01785
1562.29217,0.01762
1561.32779,0.01739
1560.36341,0.01718
1559.39903,0.01699
1558.43465,0.01681
1557.47028,0.01662
1556.50590,0.01644
1555.54152,0.01626
1554.57714,0.01608
1553.61276,0.01589
1552.64839,0.01570
1551.68401,0.01551
1550.71963,0.01533
1549.75525,0.01518
1548.79088,0.01504
1547.82650,0.01492
1546.86212,0.01480
1545.89774,0.01469
1544.93336,0.01457
1543.96899,0.01446
1543.00461,0.01435
1542.04023,0.01425
1541.07585,0.01415
1540.11147,0.01404
1539.14710,0.01394
1538.18272,0.01385
1537.21834,0.01377
1536.25396,0.01368
1535.28959,0.01360
1534.32521,0.01352
1533.36083,0.01343
1532.39645,0.01333
1531.43207,0.01324
1530.46770,0.01315
1529.50332,0.01306
1528.53894,0.01299
1527.57456,0.01294
1526.61018,0.01290
1525.64581,0.01286
1524.68143,0.01282
1523.71705,0.01279
1522.75267,0.01276
1521.78829,0.01272
1520.82392,0.01267
1519.85954,0.01263
1518.89516,0.01261
1517.93078,0.01260
1516.96641,0.01260
1516.00203,0.01259
1515.03765,0.01257
1514.07327,0.01256
1513.10889,0.01254
1512.14452,0.01252
1511.18014,0.01250
1510.21576,0.01248
1509.25138,0.01247
1508.28700,0.01246
1507.32263,0.01246
1506.35825,0.01247
1505.39387,0.01248
1504.42949,0.01248
1503.46512,0.01247
1502.50074,0.01247
1501.53636,0.01248
1500.57198,0.01248
1499.60760,0.01249
1498.64323,0.01251
1497.67885,0.01252
1496.71447,0.01251
1495.75009,0.01250
1494.78571,0.01250
1493.82134,0.01253
1492.85696,0.01256
1491.89258,0.01260
1490.92820,0.01266
1489.96382,0.01273
1488.99945,0.01280
1488.03507,0.01288
1487.07069,0.01297
1486.10631,0.01305
1485.14194,0.01311
1484.17756,0.01317
1483.21318,0.01324
1482.24880,0.01332
1481.28442,0.01342
1480.32005,0.01354
1479.35567,0.01367
1478.39129,0.01380
1477.42691,0.01393
1476.46253,0.01407
1475.49816,0.01423
1474.53378,0.01439
1473.56940,0.01455
1472.60502,0.01471
1471.64065,0.01487
1470.67627,0.01502
1469.71189,0.01519
1468.74751,0.01535
1467.78313,0.01551
1466.81876,0.01566
1465.85438,0.01581
1464.89000,0.01595
1463.92562,0.01610
1462.96124,0.01625
1461.99687,0.01641
1461.03249,0.01656
1460.06811,0.01670
1459.10373,0.01685
1458.13935,0.01699
1457.17498,0.01713
1456.21060,0.01727
1455.24622,0.01742
1454.28184,0.01757
1453.31747,0.01771
1452.35309,0.01785
1451.38871,0.01800
1450.42433,0.01816
1449.45995,0.01835
1448.49558,0.01855
1447.53120,0.01875
1446.56682,0.01895
1445.60244,0.01915
1444.63806,0.01934
1443.67369,0.01954
1442.70931,0.01973
1441.74493,0.01992
1440.78055,0.02011
1439.81618,0.02030
1438.85180,0.02051
1437.88742,0.02073
1436.92304,0.02094
1435.95866,0.02115
1434.99429,0.02133
1434.02991,0.02148
1433.06553,0.02162
1432.10115,0.02176
1431.13677,0.02189
1430.17240,0.02203
1429.20802,0.02218
1428.24364,0.02235
1427.27926,0.02254
1426.31488,0.02278
1425.35051,0.02307
1424.38613,0.02340
1423.42175,0.02378
1422.45737,0.02419
1421.49300,0.02464
1420.52862,0.02511
1419.56424,0.02560
1418.59986,0.02611
1417.63548,0.02664
1416.67111,0.02717
1415.70673,0.02770
1414.74235,0.02825
1413.77797,0.02880
1412.81359,0.02934
1411.84922,0.02987
1410.88484,0.03035
1409.92046,0.03080
1408.95608,0.03123
1407.99171,0.03163
1407.02733,0.03199
1406.06295,0.03228
1405.09857,0.03253
1404.13419,0.03275
1403.16982,0.03293
1402.20544,0.03308
1401.24106,0.03316
1400.27668,0.03320
1399.31230,0.03321
1398.34793,0.03319
1397.38355,0.03315
1396.41917,0.03306
1395.45479,0.03293
1394.49041,0.03276
1393.52604,0.03256
1392.56166,0.03235
1391.59728,0.03212
1390.63290,0.03186
1389.66853,0.03159
1388.70415,0.03131
1387.73977,0.03105
1386.77539,0.03079
1385.81101,0.03053
1384.84664,0.03028
1383.88226,0.03002
1382.91788,0.02976
1381.95350,0.02951
1380.98912,0.02928
1380.02475,0.02906
1379.06037,0.02887
1378.09599,0.02870
1377.13161,0.02852
1376.16724,0.02837
1375.20286,0.02823
1374.23848,0.02810
1373.27410,0.02798
1372.30972,0.02786
1371.34535,0.02775
1370.38097,0.02764
1369.41659,0.02755
1368.45221,0.02750
1367.48783,0.02748
1366.52346,0.02747
1365.55908,0.02747
1364.59470,0.02749
1363.63032,0.02751
1362.66594,0.02752
1361.70157,0.02753
1360.73719,0.02754
1359.77281,0.02754
1358.80843,0.02750
1357.84406,0.02742
1356.87968,0.02733
1355.91530,0.02722
1354.95092,0.02709
1353.98654,0.02693
1353.02217,0.02675
1352.05779,0.02657
1351.09341,0.02641
1350.12903,0.02626
1349.16465,0.02612
1348.20028,0.02596
1347.23590,0.02583
1346.27152,0.02575
1345.30714,0.02566
1344.34276,0.02555
1343.37839,0.02541
1342.41401,0.02527
1341.44963,0.02517
1340.48525,0.02508
1339.52088,0.02499
1338.55650,0.02485
1337.59212,0.02473
1336.62774,0.02466
1335.66336,0.02463
1334.69899,0.02461
1333.73461,0.02453
1332.77023,0.02444
1331.80585,0.02439
1330.84147,0.02439
1329.87710,0.02438
1328.91272,0.02433
1327.94834,0.02425
1326.98396,0.02418
1326.01959,0.02415
1325.05521,0.02411
1324.09083,0.02404
1323.12645,0.02394
1322.16207,0.02383
1321.19770,0.02373
1320.23332,0.02365
1319.26894,0.02354
1318.30456,0.02341
1317.34018,0.02328
1316.37581,0.02316
1315.41143,0.02305
1314.44705,0.02294
1313.48267,0.02282
1312.51829,0.02265
1311.55392,0.02250
1310.58954,0.02247
1309.62516,0.02251
1308.66078,0.02256
1307.69641,0.02261
1306.73203,0.02265
1305.76765,0.02264
1304.80327,0.02257
1303.83889,0.02243
1302.87452,0.02222
1301.91014,0.02195
1300.94576,0.02162
1299.98138,0.02138
1299.01700,0.02126
1298.05263,0.02118
1297.08825,0.02114
1296.12387,0.02112
1295.15949,0.02109
1294.19512,0.02105
1293.23074,0.02100
1292.26636,0.02095
1291.30198,0.02089
1290.33760,0.02081
1289.37323,0.02074
1288.40885,0.02069
1287.44447,0.02067
1286.48009,0.02067
1285.51571,0.02066
1284.55134,0.02064
1283.58696,0.02062
1282.62258,0.02060
1281.65820,0.02058
1280.69382,0.02058
1279.72945,0.02056
1278.76507,0.02053
1277.80069,0.02049
1276.83631,0.02046
1275.87194,0.02044
1274.90756,0.02041
1273.94318,0.02038
1272.97880,0.02036
1272.01442,0.02033
1271.05005,0.02032
1270.08567,0.02031
1269.12129,0.02031
1268.15691,0.02030
1267.19253,0.02029
1266.22816,0.02028
1265.26378,0.02028
1264.29940,0.02029
1263.33502,0.02028
1262.37065,0.02027
1261.40627,0.02025
1260.44189,0.02022
1259.47751,0.02018
1258.51313,0.02015
1257.54876,0.02015
1256.58438,0.02015
1255.62000,0.02018
1254.65562,0.02020
1253.69124,0.02024
1252.72687,0.02030
1251.76249,0.02035
1250.79811,0.02040
1249.83373,0.02045
1248.86935,0.02048
1247.90498,0.02050
1246.94060,0.02053
1245.97622,0.02056
1245.01184,0.02055
1244.04747,0.02053
1243.08309,0.02051
1242.11871,0.02049
1241.15433,0.02048
1240.18995,0.02047
1239.22558,0.02048
1238.26120,0.02049
1237.29682,0.02048
1236.33244,0.02047
1235.36806,0.02046
1234.40369,0.02046
1233.43931,0.02046
1232.47493,0.02048
1231.51055,0.02050
1230.54618,0.02053
1229.58180,0.02057
1228.61742,0.02060
1227.65304,0.02062
1226.68866,0.02064
1225.72429,0.02064
1224.75991,0.02061
1223.79553,0.02058
1222.83115,0.02056
1221.86677,0.02055
1220.90240,0.02053
1219.93802,0.02049
1218.97364,0.02046
1218.00926,0.02044
1217.04488,0.02042
1216.08051,0.02041
1215.11613,0.02038
1214.15175,0.02035
1213.18737,0.02029
1212.22300,0.02025
1211.25862,0.02022
1210.29424,0.02021
1209.32986,0.02018
1208.36548,0.02015
1207.40111,0.02011
1206.43673,0.02006
1205.47235,0.01999
1204.50797,0.01989
1203.54359,0.01976
1202.57922,0.01963
1201.61484,0.01948
1200.65046,0.01933
1199.68608,0.01921
1198.72171,0.01910
1197.75733,0.01901
1196.79295,0.01892
1195.82857,0.01884
1194.86419,0.01876
1193.89982,0.01866
1192.93544,0.01857
1191.97106,0.01848
1191.00668,0.01838
1190.04230,0.01828
1189.07793,0.01819
1188.11355,0.01813
1187.14917,0.01807
1186.18479,0.01802
1185.22041,0.01798
1184.25604,0.01792
1183.29166,0.01787
1182.32728,0.01782
1181.36290,0.01776
1180.39853,0.01769
1179.43415,0.01760
1178.46977,0.01753
1177.50539,0.01750
1176.54101,0.01748
1175.57664,0.01746
1174.61226,0.01744
1173.64788,0.01743
1172.68350,0.01743
1171.71912,0.01743
1170.75475,0.01742
1169.79037,0.01741
1168.82599,0.01737
1167.86161,0.01733
1166.89724,0.01732
1165.93286,0.01732
1164.96848,0.01731
1164.00410,0.01729
1163.03972,0.01728
1162.07535,0.01726
1161.11097,0.01724
1160.14659,0.01722
1159.18221,0.01719
1158.21783,0.01717
1157.25346,0.01714
1156.28908,0.01710
1155.32470,0.01708
1154.36032,0.01706
1153.39594,0.01703
1152.43157,0.01698
1151.46719,0.01693
1150.50281,0.01687
1149.53843,0.01684
1148.57406,0.01680
1147.60968,0.01678
1146.64530,0.01679
1145.68092,0.01679
1144.71654,0.01679
1143.75217,0.01679
1142.78779,0.01679
1141.82341,0.01678
1140.85903,0.01678
1139.89465,0.01678
1138.93028,0.01678
1137.96590,0.01677
1137.00152,0.01674
1136.03714,0.01673
1135.07276,0.01673
1134.10839,0.01672
1133.14401,0.01672
1132.17963,0.01672
1131.21525,0.01673
1130.25088,0.01677
1129.28650,0.01680
1128.32212,0.01681
1127.35774,0.01682
1126.39336,0.01681
1125.42899,0.01680
1124.46461,0.01681
1123.50023,0.01683
1122.53585,0.01686
1121.57147,0.01690
1120.60710,0.01695
1119.64272,0.01699
1118.67834,0.01701
1117.71396,0.01702
1116.74959,0.01702
1115.78521,0.01702
1114.82083,0.01703
1113.85645,0.01705
1112.89207,0.01706
1111.92770,0.01709
1110.96332,0.01714
1109.99894,0.01718
1109.03456,0.01721
1108.07018,0.01723
1107.10581,0.01728
1106.14143,0.01732
1105.17705,0.01738
1104.21267,0.01744
1103.24829,0.01752
1102.28392,0.01761
1101.31954,0.01769
1100.35516,0.01779
1099.39078,0.01789
1098.42641,0.01795
1097.46203,0.01798
1096.49765,0.01801
1095.53327,0.01805
1094.56889,0.01807
1093.60452,0.01809
1092.64014,0.01814
1091.67576,0.01818
1090.71138,0.01821
1089.74700,0.01825
1088.78263,0.01829
1087.81825,0.01833
1086.85387,0.01837
1085.88949,0.01839
1084.92512,0.01841
1083.96074,0.01842
1082.99636,0.01843
1082.03198,0.01845
1081.06760,0.01850
1080.10323,0.01853
1079.13885,0.01855
1078.17447,0.01858
1077.21009,0.01862
1076.24571,0.01866
1075.28134,0.01869
1074.31696,0.01869
1073.35258,0.01866
1072.38820,0.01861
1071.42382,0.01854
1070.45945,0.01847
1069.49507,0.01837
1068.53069,0.01827
1067.56631,0.01817
1066.60194,0.01811
1065.63756,0.01807
1064.67318,0.01801
1063.70880,0.01795
1062.74442,0.01789
1061.78005,0.01785
1060.81567,0.01782
1059.85129,0.01776
1058.88691,0.01768
1057.92253,0.01760
1056.95816,0.01753
1055.99378,0.01745
1055.02940,0.01739
1054.06502,0.01732
1053.10065,0.01724
1052.13627,0.01715
1051.17189,0.01706
1050.20751,0.01699
1049.24313,0.01691
1048.27876,0.01681
1047.31438,0.01673
1046.35000,0.01665
1045.38562,0.01657
1044.42124,0.01648
1043.45687,0.01638
1042.49249,0.01629
1041.52811,0.01619
1040.56373,0.01609
1039.59935,0.01600
1038.63498,0.01592
1037.67060,0.01584
1036.70622,0.01575
1035.74184,0.01565
1034.77747,0.01557
1033.81309,0.01548
1032.84871,0.01538
1031.88433,0.01529
1030.91995,0.01519
1029.95558,0.01510
1028.99120,0.01502
1028.02682,0.01496
1027.06244,0.01489
1026.09806,0.01483
1025.13369,0.01478
1024.16931,0.01475
1023.20493,0.01474
1022.24055,0.01472
1021.27618,0.01468
1020.31180,0.01463
1019.34742,0.01458
1018.38304,0.01453
1017.41866,0.01450
1016.45429,0.01445
1015.48991,0.01440
1014.52553,0.01435
1013.56115,0.01432
1012.59677,0.01431
1011.63240,0.01428
1010.66802,0.01424
1009.70364,0.01420
1008.73926,0.01415
1007.77488,0.01414
1006.81051,0.01414
1005.84613,0.01413
1004.88175,0.01412
1003.91737,0.01413
1002.95300,0.01414
1001.98862,0.01414
1001.02424,0.01413
1000.05986,0.01412
999.09548,0.01413
998.13111,0.01413
997.16673,0.01411
996.20235,0.01410
995.23797,0.01408
994.27359,0.01404
993.30922,0.01402
992.34484,0.01401
991.38046,0.01400
990.41608,0.01400
989.45171,0.01401
988.48733,0.01405
987.52295,0.01409
986.55857,0.01412
985.59419,0.01414
984.62982,0.01416
983.66544,0.01416
982.70106,0.01415
981.73668,0.01413
980.77230,0.01409
979.80793,0.01407
978.84355,0.01404
977.87917,0.01403
976.91479,0.01403
975.95041,0.01402
974.98604,0.01403
974.02166,0.01405
973.05728,0.01406
972.09290,0.01406
971.12853,0.01406
970.16415,0.01403
969.19977,0.01400
968.23539,0.01396
967.27101,0.01393
966.30664,0.01393
965.34226,0.01394
964.37788,0.01396
963.41350,0.01399
962.44912,0.01401
961.48475,0.01402
960.52037,0.01401
959.55599,0.01400
958.59161,0.01397
957.62724,0.01394
956.66286,0.01389
955.69848,0.01385
954.73410,0.01384
953.76972,0.01382
952.80535,0.01380
951.84097,0.01378
950.87659,0.01375
949.91221,0.01373
948.94783,0.01369
947.98346,0.01364
947.01908,0.01357
946.05470,0.01350
945.09032,0.01344
944.12594,0.01340
943.16157,0.01337
942.19719,0.01335
941.23281,0.01335
940.26843,0.01334
939.30406,0.01334
938.33968,0.01333
937.37530,0.01328
936.41092,0.01322
935.44654,0.01316
934.48217,0.01313
933.51779,0.01315
932.55341,0.01320
931.58903,0.01329
930.62465,0.01338
929.66028,0.01349
928.69590,0.01359
927.73152,0.01370
926.76714,0.01380
925.80276,0.01388
924.83839,0.01394
923.87401,0.01403
922.90963,0.01416
921.94525,0.01430
920.98088,0.01444
920.01650,0.01454
919.05212,0.01458
918.08774,0.01461
917.12336,0.01463
916.15899,0.01464
915.19461,0.01463
914.23023,0.01463
913.26585,0.01460
912.30147,0.01458
911.33710,0.01458
910.37272,0.01456
909.40834,0.01449
908.44396,0.01438
907.47959,0.01419
906.51521,0.01400
905.55083,0.01381
904.58645,0.01360
903.62207,0.01337
902.65770,0.01316
901.69332,0.01296
900.72894,0.01277
899.76456,0.01261
898.80018,0.01248
897.83581,0.01236
896.87143,0.01226
895.90705,0.01217
894.94267,0.01211
893.97829,0.01207
893.01392,0.01205
892.04954,0.01203
891.08516,0.01200
890.12078,0.01195
889.15641,0.01189
888.19203,0.01184
887.22765,0.01177
886.26327,0.01166
885.29889,0.01153
884.33452,0.01143
883.37014,0.01135
882.40576,0.01131
881.44138,0.01128
880.47700,0.01128
879.51263,0.01130
878.54825,0.01137
877.58387,0.01148
876.61949,0.01159
875.65512,0.01166
874.69074,0.01169
873.72636,0.01171
872.76198,0.01172
871.79760,0.01173
870.83323,0.01170
869.86885,0.01165
868.90447,0.01163
867.94009,0.01161
866.97571,0.01163
866.01134,0.01165
865.04696,0.01164
864.08258,0.01165
863.11820,0.01166
862.15382,0.01167
861.18945,0.01168
860.22507,0.01169
859.26069,0.01172
858.29631,0.01174
857.33194,0.01175
856.36756,0.01178
855.40318,0.01181
854.43880,0.01185
853.47442,0.01188
852.51005,0.01192
851.54567,0.01196
850.58129,0.01194
849.61691,0.01190
848.65253,0.01189
847.68816,0.01191
846.72378,0.01192
845.75940,0.01194
844.79502,0.01197
843.83065,0.01199
842.86627,0.01201
841.90189,0.01201
840.93751,0.01198
839.97313,0.01194
839.00876,0.01187
838.04438,0.01182
837.08000,0.01178
836.11562,0.01176
835.15124,0.01175
834.18687,0.01177
833.22249,0.01179
832.25811,0.01181
831.29373,0.01183
830.32935,0.01186
829.36498,0.01188
828.40060,0.01190
827.43622,0.01190
826.47184,0.01188
825.50747,0.01182
824.54309,0.01175
823.57871,0.01170
822.61433,0.01165
821.64995,0.01162
820.68558,0.01161
819.72120,0.01164
818.75682,0.01168
817.79244,0.01176
816.82806,0.01182
815.86369,0.01183
814.89931,0.01184
813.93493,0.01186
812.97055,0.01190
812.00618,0.01195
811.04180,0.01201
810.07742,0.01208
809.11304,0.01215
808.14866,0.01220
807.18429,0.01224
806.21991,0.01224
805.25553,0.01218
804.29115,0.01210
803.32677,0.01201
802.36240,0.01193
801.39802,0.01186
800.43364,0.01184
799.46926,0.01183
798.50488,0.01182
797.54051,0.01184
796.57613,0.01186
795.61175,0.01192
794.64737,0.01197
793.68300,0.01200
792.71862,0.01199
791.75424,0.01194
790.78986,0.01187
789.82548,0.01181
788.86111,0.01177
787.89673,0.01172
786.93235,0.01170
785.96797,0.01168
785.00359,0.01166
784.03922,0.01165
783.07484,0.01164
782.11046,0.01163
781.14608,0.01164
780.18171,0.01166
779.21733,0.01168
778.25295,0.01170
777.28857,0.01170
776.32419,0.01170
775.35982,0.01170
774.39544,0.01166
773.43106,0.01159
772.46668,0.01154
771.50230,0.01149
770.53793,0.01150
769.57355,0.01155
768.60917,0.01161
767.64479,0.01165
766.68041,0.01168
765.71604,0.01171
764.75166,0.01175
763.78728,0.01180
762.82290,0.01184
761.85853,0.01188
760.89415,0.01190
759.92977,0.01191
758.96539,0.01192
758.00101,0.01195
757.03664,0.01195
756.07226,0.01195
755.10788,0.01200
754.14350,0.01207
753.17912,0.01214
752.21475,0.01216
751.25037,0.01214
750.28599,0.01211
749.32161,0.01210
748.35724,0.01215
747.39286,0.01219
746.42848,0.01220
745.46410,0.01220
744.49972,0.01227
743.53535,0.01241
742.57097,0.01252
741.60659,0.01256
740.64221,0.01253
739.67783,0.01248
738.71346,0.01247
737.74908,0.01249
736.78470,0.01252
735.82032,0.01254
734.85594,0.01257
733.89157,0.01260
732.92719,0.01266
731.96281,0.01275
730.99843,0.01279
730.03406,0.01282
729.06968,0.01282
728.10530,0.01281
727.14092,0.01282
726.17654,0.01286
725.21217,0.01290
724.24779,0.01297
723.28341,0.01306
722.31903,0.01312
721.35465,0.01320
720.39028,0.01332
719.42590,0.01344
718.46152,0.01353
717.49714,0.01359
716.53276,0.01363
715.56839,0.01366
714.60401,0.01370
713.63963,0.01375
712.67525,0.01379
711.71088,0.01383
710.74650,0.01389
709.78212,0.01398
708.81774,0.01408
707.85336,0.01414
706.88899,0.01417
705.92461,0.01420
704.96023,0.01420
703.99585,0.01418
703.03147,0.01415
702.06710,0.01413
701.10272,0.01412
700.13834,0.01411
699.17396,0.01408
698.20959,0.01406
697.24521,0.01404
696.28083,0.01404
695.31645,0.01405
694.35207,0.01405
693.38770,0.01404
692.42332,0.01401
691.45894,0.01395
690.49456,0.01390
689.53018,0.01386
688.56581,0.01385
687.60143,0.01384
686.63705,0.01381
685.67267,0.01381
684.70829,0.01384
683.74392,0.01386
682.77954,0.01386
681.81516,0.01384
680.85078,0.01380
679.88641,0.01371
678.92203,0.01359
677.95765,0.01346
676.99327,0.01333
676.02889,0.01317
675.06452,0.01298
674.10014,0.01277
673.13576,0.01277
672.17138,0.01308
671.20700,0.01344
670.24263,0.01374
669.27825,0.01394
668.31387,0.01402
667.34949,0.01401
666.38512,0.01388
665.42074,0.01366
664.45636,0.01341
663.49198,0.01312
662.52760,0.01286
661.56323,0.01291
660.59885,0.01318
659.63447,0.01335
658.67009,0.01345
657.70571,0.01353
656.74134,0.01360
655.77696,0.01364
654.81258,0.01361
653.84820,0.01358
652.88382,0.01358
651.91945,0.01356
650.95507,0.01354
649.99069,0.01357
649.02631,0.01362
648.06194,0.01366
647.09756,0.01370
646.13318,0.01373
645.16880,0.01377
644.20442,0.01381
643.24005,0.01383
642.27567,0.01387
641.31129,0.01391
640.34691,0.01390
639.38253,0.01387
638.41816,0.01384
637.45378,0.01383
636.48940,0.01377
635.52502,0.01363
634.56065,0.01349
633.59627,0.01345
632.63189,0.01350
631.66751,0.01355
630.70313,0.01356
629.73876,0.01372
628.77438,0.01389
627.81000,0.01387
626.84562,0.01424
625.88124,0.01520
624.91687,0.01649
623.95249,0.01743
622.98811,0.01745
622.02373,0.01704
621.05935,0.01679
620.09498,0.01670
619.13060,0.01637
618.16622,0.01578
617.20184,0.01479
616.23747,0.01300
615.27309,0.01154
614.30871,0.01146
613.34433,0.01226
612.37995,0.01246
611.41558,0.01177
610.45120,0.01144
609.48682,0.01192
608.52244,0.01296
607.55806,0.01409
606.59369,0.01488
605.62931,0.01512
604.66493,0.01464
603.70055,0.01433
602.73618,0.01480
601.77180,0.01521
600.80742,0.01488
599.84304,0.01416
598.87866,0.01367
597.91429,0.01352
596.94991,0.01370
595.98553,0.01397
595.02115,0.01411
594.05677,0.01428
593.09240,0.01449
592.12802,0.01457
591.16364,0.01447
590.19926,0.01433
589.23488,0.01428
588.27051,0.01435
587.30613,0.01451
586.34175,0.01466
585.37737,0.01465
584.41300,0.01453
583.44862,0.01447
582.48424,0.01444
581.51986,0.01437
580.55548,0.01420
579.59111,0.01401
578.62673,0.01394
577.66235,0.01390
576.69797,0.01387
575.73359,0.01389
574.76922,0.01391
573.80484,0.01391
572.84046,0.01398
571.87608,0.01407
570.91171,0.01405
569.94733,0.01407
568.98295,0.01418
568.01857,0.01428
567.05419,0.01432
566.08982,0.01425
565.12544,0.01424
564.16106,0.01425
563.19668,0.01415
562.23230,0.01407
561.26793,0.01401
560.30355,0.01388
559.33917,0.01369
558.37479,0.01357
557.41041,0.01354
556.44604,0.01351
555.48166,0.01348
554.51728,0.01350
553.55290,0.01363
552.58853,0.01378
551.62415,0.01386
550.65977,0.01398
549.69539,0.01408
548.73101,0.01412
547.76664,0.01412
546.80226,0.01408
545.83788,0.01402
544.87350,0.01398
543.90912,0.01397
542.94475,0.01405
541.98037,0.01418
541.01599,0.01421
540.05161,0.01409
539.08724,0.01397
538.12286,0.01383
537.15848,0.01368
536.19410,0.01362
535.22972,0.01363
534.26535,0.01361
533.30097,0.01358
532.33659,0.01360
531.37221,0.01363
530.40783,0.01363
529.44346,0.01353
528.47908,0.01343
527.51470,0.01340
526.55032,0.01337
525.58594,0.01341
524.62157,0.01359
523.65719,0.01378
522.69281,0.01378
521.72843,0.01366
520.76406,0.01361
519.79968,0.01361
518.83530,0.01360
517.87092,0.01353
516.90654,0.01342
515.94217,0.01338
514.97779,0.01341
514.01341,0.01350
513.04903,0.01357
512.08465,0.01359
511.12028,0.01355
510.15590,0.01349
509.19152,0.01355
508.22714,0.01368
507.26276,0.01378
506.29839,0.01374
505.33401,0.01362
504.36963,0.01353
503.40525,0.01352
502.44088,0.01359
501.47650,0.01355
500.51212,0.01344
499.54774,0.01336
498.58336,0.01335
497.61899,0.01342
496.65461,0.01353
495.69023,0.01360
494.72585,0.01354
493.76147,0.01343
492.79710,0.01343
491.83272,0.01350
490.86834,0.01349
489.90396,0.01336
488.93959,0.01325
487.97521,0.01327
487.01083,0.01337
486.04645,0.01349
485.08207,0.01362
484.11770,0.01371
483.15332,0.01373
482.18894,0.01378
481.22456,0.01386
480.26018,0.01380
479.29581,0.01361
478.33143,0.01345
477.36705,0.01336
476.40267,0.01327
475.43829,0.01321
474.47392,0.01319
473.50954,0.01317
472.54516,0.01312
471.58078,0.01306
470.61641,0.01300
469.65203,0.01290
468.68765,0.01274
467.72327,0.01264
466.75889,0.01262
465.79452,0.01264
464.83014,0.01267
463.86576,0.01270
462.90138,0.01275
461.93700,0.01279
460.97263,0.01284
460.00825,0.01292
459.04387,0.01297
458.07949,0.01293
457.11512,0.01282
456.15074,0.01271
455.18636,0.01259
454.22198,0.01247
453.25760,0.01239
452.29323,0.01237
451.32885,0.01240
450.36447,0.01248
449.40009,0.01264
448.43571,0.01284
447.47134,0.01298
446.50696,0.01301
445.54258,0.01294
444.57820,0.01288
443.61382,0.01277
442.64945,0.01264
441.68507,0.01263
440.72069,0.01267
439.75631,0.01273
438.79194,0.01282
437.82756,0.01286
436.86318,0.01283
435.89880,0.01273
434.93442,0.01260
433.97005,0.01244
433.00567,0.01230
432.04129,0.01212
431.07691,0.01199
430.11253,0.01204
429.14816,0.01210
428.18378,0.01217
427.21940,0.01227
426.25502,0.01227
425.29065,0.01222
424.32627,0.01218
423.36189,0.01214
422.39751,0.01208
421.43313,0.01200
420.46876,0.01195
419.50438,0.01192
418.54000,0.01191
417.57562,0.01185
416.61124,0.01177
415.64687,0.01169
414.68249,0.01153
413.71811,0.01139
412.75373,0.01128
411.78935,0.01123
410.82498,0.01124
409.86060,0.01126
408.89622,0.01127
407.93184,0.01125
406.96747,0.01119
406.00309,0.01108
405.03871,0.01092
404.07433,0.01092
403.10995,0.01092
402.14558,0.01092
401.18120,0.01092
400.21682,0.01092
399.25244,0.01092
