3998.31069,0.01411
3997.34631,0.01411
3996.38194,0.01411
3995.41756,0.01411
3994.45318,0.01411
3993.48880,0.01411
3992.52442,0.01411
3991.56005,0.01414
3990.59567,0.01408
3989.63129,0.01402
3988.66691,0.01397
3987.70253,0.01391
3986.73816,0.01384
3985.77378,0.01382
3984.80940,0.01378
3983.84502,0.01365
3982.88065,0.01358
3981.91627,0.01363
3980.95189,0.01372
3979.98751,0.01380
3979.02313,0.01386
3978.05876,0.01395
3977.09438,0.01402
3976.13000,0.01401
3975.16562,0.01394
3974.20124,0.01390
3973.23687,0.01378
3972.27249,0.01363
3971.30811,0.01354
3970.34373,0.01347
3969.37935,0.01342
3968.41498,0.01340
3967.45060,0.01341
3966.48622,0.01351
3965.52184,0.01363
3964.55747,0.01372
3963.59309,0.01379
3962.62871,0.01384
3961.66433,0.01381
3960.69995,0.01376
3959.73558,0.01374
3958.77120,0.01373
3957.80682,0.01373
3956.84244,0.01370
3955.87806,0.01366
3954.91369,0.01363
3953.94931,0.01357
3952.98493,0.01353
3952.02055,0.01348
3951.05618,0.01346
3950.09180,0.01348
3949.12742,0.01354
3948.16304,0.01363
3947.19866,0.01370
3946.23429,0.01373
3945.26991,0.01373
3944.30553,0.01367
3943.34115,0.01360
3942.37677,0.01362
3941.41240,0.01366
3940.44802,0.01368
3939.48364,0.01373
3938.51926,0.01383
3937.55488,0.01391
3936.59051,0.01390
3935.62613,0.01383
3934.66175,0.01372
3933.69737,0.01362
3932.73300,0.01351
3931.76862,0.01343
3930.80424,0.01340
3929.83986,0.01335
3928.87548,0.01326
3927.91111,0.01320
3926.94673,0.01324
3925.98235,0.01330
3925.01797,0.01328
3924.05359,0.01327
3923.08922,0.01333
3922.12484,0.01342
3921.16046,0.01349
3920.19608,0.01353
3919.23171,0.01360
3918.26733,0.01366
3917.30295,0.01365
3916.33857,0.01362
3915.37419,0.01363
3914.40982,0.01358
3913.44544,0.01344
3912.48106,0.01331
3911.51668,0.01320
3910.55230,0.01308
3909.58793,0.01297
3908.62355,0.01287
3907.65917,0.01284
3906.69479,0.01288
3905.73041,0.01286
3904.76604,0.01282
3903.80166,0.01288
3902.83728,0.01296
3901.87290,0.01304
3900.90853,0.01307
3899.94415,0.01310
3898.97977,0.01315
3898.01539,0.01318
3897.05101,0.01319
3896.08664,0.01324
3895.12226,0.01333
3894.15788,0.01339
3893.19350,0.01338
3892.22912,0.01333
3891.26475,0.01330
3890.30037,0.01332
3889.33599,0.01334
3888.37161,0.01335
3887.40724,0.01327
3886.44286,0.01317
3885.47848,0.01322
3884.51410,0.01338
3883.54972,0.01356
3882.58535,0.01372
3881.62097,0.01374
3880.65659,0.01368
3879.69221,0.01366
3878.72783,0.01365
3877.76346,0.01353
3876.79908,0.01332
3875.83470,0.01309
3874.87032,0.01293
3873.90594,0.01288
3872.94157,0.01287
3871.97719,0.01289
3871.01281,0.01296
3870.04843,0.01305
3869.08406,0.01312
3868.11968,0.01317
3867.15530,0.01320
3866.19092,0.01323
3865.22654,0.01329
3864.26217,0.01331
3863.29779,0.01327
3862.33341,0.01321
3861.36903,0.01314
3860.40465,0.01304
3859.44028,0.01300
3858.47590,0.01298
3857.51152,0.01294
3856.54714,0.01290
3855.58276,0.01289
3854.61839,0.01293
3853.65401,0.01296
3852.68963,0.01293
3851.72525,0.01289
3850.76088,0.01285
3849.79650,0.01278
3848.83212,0.01271
3847.86774,0.01271
3846.90336,0.01270
3845.93899,0.01269
3844.97461,0.01265
3844.01023,0.01258
3843.04585,0.01257
3842.08147,0.01257
3841.11710,0.01261
3840.15272,0.01272
3839.18834,0.01285
3838.22396,0.01297
3837.25959,0.01303
3836.29521,0.01309
3835.33083,0.01314
3834.36645,0.01310
3833.40207,0.01297
3832.43770,0.01285
3831.47332,0.01279
3830.50894,0.01275
3829.54456,0.01272
3828.58018,0.01268
3827.61581,0.01263
3826.65143,0.01257
3825.68705,0.01248
3824.72267,0.01247
3823.75829,0.01254
3822.79392,0.01254
3821.82954,0.01254
3820.86516,0.01265
3819.90078,0.01279
3818.93641,0.01295
3817.97203,0.01306
3817.00765,0.01303
3816.04327,0.01295
3815.07889,0.01284
3814.11452,0.01272
3813.15014,0.01263
3812.18576,0.01258
3811.22138,0.01250
3810.25700,0.01241
3809.29263,0.01241
3808.32825,0.01245
3807.36387,0.01250
3806.39949,0.01260
3805.43512,0.01268
3804.47074,0.01277
3803.50636,0.01287
3802.54198,0.01291
3801.57760,0.01293
3800.61323,0.01298
3799.64885,0.01303
3798.68447,0.01302
3797.72009,0.01297
3796.75571,0.01294
3795.79134,0.01291
3794.82696,0.01285
3793.86258,0.01273
3792.89820,0.01262
3791.93382,0.01248
3790.96945,0.01231
3790.00507,0.01225
3789.04069,0.01230
3788.07631,0.01238
3787.11194,0.01243
3786.14756,0.01247
3785.18318,0.01256
3784.21880,0.01261
3783.25442,0.01260
3782.29005,0.01266
3781.32567,0.01272
3780.36129,0.01275
3779.39691,0.01276
3778.43253,0.01279
3777.46816,0.01280
3776.50378,0.01272
3775.53940,0.01260
3774.57502,0.01251
3773.61065,0.01243
3772.64627,0.01234
3771.68189,0.01231
3770.71751,0.01235
3769.75313,0.01234
3768.78876,0.01234
3767.82438,0.01235
3766.86000,0.01235
3765.89562,0.01235
3764.93124,0.01235
3763.96687,0.01239
3763.00249,0.01244
3762.03811,0.01247
3761.07373,0.01243
3760.10935,0.01238
3759.14498,0.01231
3758.18060,0.01220
3757.21622,0.01220
3756.25184,0.01223
3755.28747,0.01223
3754.32309,0.01233
3753.35871,0.01246
3752.39433,0.01253
3751.42995,0.01254
3750.46558,0.01252
3749.50120,0.01256
3748.53682,0.01262
3747.57244,0.01263
3746.60806,0.01257
3745.64369,0.01251
3744.67931,0.01251
3743.71493,0.01256
3742.75055,0.01257
3741.78618,0.01249
3740.82180,0.01239
3739.85742,0.01230
3738.89304,0.01230
3737.92866,0.01243
3736.96429,0.01257
3735.99991,0.01261
3735.03553,0.01254
3734.07115,0.01244
3733.10677,0.01240
3732.14240,0.01233
3731.17802,0.01218
3730.21364,0.01206
3729.24926,0.01200
3728.28488,0.01203
3727.32051,0.01213
3726.35613,0.01225
3725.39175,0.01240
3724.42737,0.01248
3723.46300,0.01247
3722.49862,0.01239
3721.53424,0.01231
3720.56986,0.01223
3719.60548,0.01212
3718.64111,0.01201
3717.67673,0.01196
3716.71235,0.01198
3715.74797,0.01200
3714.78359,0.01199
3713.81922,0.01197
3712.85484,0.01194
3711.89046,0.01194
3710.92608,0.01197
3709.96171,0.01196
3708.99733,0.01187
3708.03295,0.01180
3707.06857,0.01180
3706.10419,0.01184
3705.13982,0.01192
3704.17544,0.01209
3703.21106,0.01234
3702.24668,0.01254
3701.28230,0.01269
3700.31793,0.01279
3699.35355,0.01276
3698.38917,0.01254
3697.42479,0.01226
3696.46041,0.01206
3695.49604,0.01184
3694.53166,0.01165
3693.56728,0.01167
3692.60290,0.01179
3691.63853,0.01190
3690.67415,0.01196
3689.70977,0.01198
3688.74539,0.01196
3687.78101,0.01189
3686.81664,0.01181
3685.85226,0.01175
3684.88788,0.01172
3683.92350,0.01171
3682.95912,0.01176
3681.99475,0.01185
3681.03037,0.01185
3680.06599,0.01186
3679.10161,0.01198
3678.13724,0.01212
3677.17286,0.01221
3676.20848,0.01232
3675.24410,0.01245
3674.27972,0.01254
3673.31535,0.01262
3672.35097,0.01272
3671.38659,0.01272
3670.42221,0.01258
3669.45783,0.01241
3668.49346,0.01229
3667.52908,0.01221
3666.56470,0.01216
3665.60032,0.01214
3664.63594,0.01217
3663.67157,0.01227
3662.70719,0.01237
3661.74281,0.01247
3660.77843,0.01256
3659.81406,0.01262
3658.84968,0.01262
3657.88530,0.01258
3656.92092,0.01255
3655.95654,0.01258
3654.99217,0.01267
3654.02779,0.01277
3653.06341,0.01290
3652.09903,0.01310
3651.13465,0.01329
3650.17028,0.01347
3649.20590,0.01357
3648.24152,0.01358
3647.27714,0.01351
3646.31276,0.01339
3645.34839,0.01334
3644.38401,0.01333
3643.41963,0.01327
3642.45525,0.01324
3641.49088,0.01332
3640.52650,0.01345
3639.56212,0.01361
3638.59774,0.01379
3637.63336,0.01390
3636.66899,0.01392
3635.70461,0.01396
3634.74023,0.01411
3633.77585,0.01434
3632.81147,0.01451
3631.84710,0.01457
3630.88272,0.01455
3629.91834,0.01450
3628.95396,0.01445
3627.98959,0.01439
3627.02521,0.01441
3626.06083,0.01445
3625.09645,0.01445
3624.13207,0.01452
3623.16770,0.01470
3622.20332,0.01494
3621.23894,0.01512
3620.27456,0.01517
3619.31018,0.01510
3618.34581,0.01504
3617.38143,0.01503
3616.41705,0.01503
3615.45267,0.01508
3614.48829,0.01514
3613.52392,0.01520
3612.55954,0.01530
3611.59516,0.01543
3610.63078,0.01556
3609.66641,0.01568
3608.70203,0.01579
3607.73765,0.01586
3606.77327,0.01599
3605.80889,0.01611
3604.84452,0.01611
3603.88014,0.01608
3602.91576,0.01606
3601.95138,0.01604
3600.98700,0.01602
3600.02263,0.01592
3599.05825,0.01577
3598.09387,0.01567
3597.12949,0.01566
3596.16512,0.01573
3595.20074,0.01587
3594.23636,0.01597
3593.27198,0.01601
3592.30760,0.01612
3591.34323,0.01626
3590.37885,0.01638
3589.41447,0.01649
3588.45009,0.01652
3587.48571,0.01649
3586.52134,0.01650
3585.55696,0.01659
3584.59258,0.01672
3583.62820,0.01682
3582.66382,0.01687
3581.69945,0.01688
3580.73507,0.01690
3579.77069,0.01689
3578.80631,0.01687
3577.84194,0.01684
3576.87756,0.01677
3575.91318,0.01666
3574.94880,0.01650
3573.98442,0.01642
3573.02005,0.01644
3572.05567,0.01650
3571.09129,0.01654
3570.12691,0.01654
3569.16253,0.01658
3568.19816,0.01668
3567.23378,0.01679
3566.26940,0.01688
3565.30502,0.01691
3564.34065,0.01691
3563.37627,0.01687
3562.41189,0.01688
3561.44751,0.01696
3560.48313,0.01702
3559.51876,0.01701
3558.55438,0.01697
3557.59000,0.01701
3556.62562,0.01712
3555.66124,0.01720
3554.69687,0.01718
3553.73249,0.01714
3552.76811,0.01711
3551.80373,0.01703
3550.83935,0.01697
3549.87498,0.01693
3548.91060,0.01690
3547.94622,0.01688
3546.98184,0.01691
3546.01747,0.01701
3545.05309,0.01712
3544.08871,0.01716
3543.12433,0.01713
3542.15995,0.01708
3541.19558,0.01711
3540.23120,0.01715
3539.26682,0.01718
3538.30244,0.01724
3537.33806,0.01735
3536.37369,0.01751
3535.40931,0.01764
3534.44493,0.01774
3533.48055,0.01779
3532.51618,0.01780
3531.55180,0.01775
3530.58742,0.01766
3529.62304,0.01761
3528.65866,0.01754
3527.69429,0.01748
3526.72991,0.01755
3525.76553,0.01769
3524.80115,0.01785
3523.83677,0.01799
3522.87240,0.01813
3521.90802,0.01828
3520.94364,0.01845
3519.97926,0.01859
3519.01488,0.01866
3518.05051,0.01868
3517.08613,0.01863
3516.12175,0.01858
3515.15737,0.01856
3514.19300,0.01850
3513.22862,0.01843
3512.26424,0.01835
3511.29986,0.01826
3510.33548,0.01821
3509.37111,0.01822
3508.40673,0.01826
3507.44235,0.01830
3506.47797,0.01838
3505.51359,0.01850
3504.54922,0.01864
3503.58484,0.01879
3502.62046,0.01889
3501.65608,0.01906
3500.69171,0.01927
3499.72733,0.01943
3498.76295,0.01960
3497.79857,0.01969
3496.83419,0.01969
3495.86982,0.01965
3494.90544,0.01961
3493.94106,0.01959
3492.97668,0.01950
3492.01230,0.01934
3491.04793,0.01922
3490.08355,0.01921
3489.11917,0.01922
3488.15479,0.01924
3487.19041,0.01928
3486.22604,0.01930
3485.26166,0.01936
3484.29728,0.01945
3483.33290,0.01956
3482.36853,0.01975
3481.40415,0.01993
3480.43977,0.02011
3479.47539,0.02027
3478.51101,0.02041
3477.54664,0.02049
3476.58226,0.02051
3475.61788,0.02049
3474.65350,0.02046
3473.68912,0.02047
3472.72475,0.02045
3471.76037,0.02039
3470.79599,0.02037
3469.83161,0.02043
3468.86724,0.02053
3467.90286,0.02063
3466.93848,0.02071
3465.97410,0.02074
3465.00972,0.02075
3464.04535,0.02080
3463.08097,0.02084
3462.11659,0.02085
3461.15221,0.02090
3460.18783,0.02098
3459.22346,0.02109
3458.25908,0.02122
3457.29470,0.02133
3456.33032,0.02141
3455.36594,0.02144
3454.40157,0.02145
3453.43719,0.02146
3452.47281,0.02148
3451.50843,0.02145
3450.54406,0.02142
3449.57968,0.02148
3448.61530,0.02163
3447.65092,0.02176
3446.68654,0.02182
3445.72217,0.02190
3444.75779,0.02200
3443.79341,0.02209
3442.82903,0.02213
3441.86465,0.02213
3440.90028,0.02213
3439.93590,0.02211
3438.97152,0.02207
3438.00714,0.02203
3437.04276,0.02202
3436.07839,0.02199
3435.11401,0.02196
3434.14963,0.02197
3433.18525,0.02203
3432.22088,0.02212
3431.25650,0.02217
3430.29212,0.02225
3429.32774,0.02237
3428.36336,0.02248
3427.39899,0.02256
3426.43461,0.02261
3425.47023,0.02266
3424.50585,0.02272
3423.54147,0.02279
3422.57710,0.02289
3421.61272,0.02301
3420.64834,0.02309
3419.68396,0.02310
3418.71959,0.02309
3417.75521,0.02310
3416.79083,0.02310
3415.82645,0.02308
3414.86207,0.02307
3413.89770,0.02312
3412.93332,0.02321
3411.96894,0.02329
3411.00456,0.02338
3410.04018,0.02343
3409.07581,0.02346
3408.11143,0.02347
3407.14705,0.02345
3406.18267,0.02347
3405.21829,0.02349
3404.25392,0.02349
3403.28954,0.02351
3402.32516,0.02353
3401.36078,0.02351
3400.39641,0.02348
3399.43203,0.02348
3398.46765,0.02346
3397.50327,0.02344
3396.53889,0.02345
3395.57452,0.02344
3394.61014,0.02344
3393.64576,0.02343
3392.68138,0.02344
3391.71700,0.02345
3390.75263,0.02340
3389.78825,0.02335
3388.82387,0.02334
3387.85949,0.02338
3386.89512,0.02337
3385.93074,0.02335
3384.96636,0.02341
3384.00198,0.02350
3383.03760,0.02360
3382.07323,0.02371
3381.10885,0.02383
3380.14447,0.02397
3379.18009,0.02408
3378.21571,0.02415
3377.25134,0.02414
3376.28696,0.02412
3375.32258,0.02405
3374.35820,0.02397
3373.39382,0.02394
3372.42945,0.02392
3371.46507,0.02391
3370.50069,0.02392
3369.53631,0.02396
3368.57194,0.02401
3367.60756,0.02402
3366.64318,0.02397
3365.67880,0.02390
3364.71442,0.02388
3363.75005,0.02390
3362.78567,0.02391
3361.82129,0.02391
3360.85691,0.02394
3359.89253,0.02396
3358.92816,0.02397
3357.96378,0.02393
3356.99940,0.02383
3356.03502,0.02377
3355.07065,0.02375
3354.10627,0.02371
3353.14189,0.02369
3352.17751,0.02367
3351.21313,0.02363
3350.24876,0.02361
3349.28438,0.02367
3348.32000,0.02374
3347.35562,0.02376
3346.39124,0.02378
3345.42687,0.02382
3344.46249,0.02384
3343.49811,0.02381
3342.53373,0.02371
3341.56935,0.02360
3340.60498,0.02350
3339.64060,0.02341
3338.67622,0.02336
3337.71184,0.02333
3336.74747,0.02332
3335.78309,0.02331
3334.81871,0.02329
3333.85433,0.02328
3332.88995,0.02326
3331.92558,0.02324
3330.96120,0.02320
3329.99682,0.02318
3329.03244,0.02317
3328.06806,0.02319
3327.10369,0.02324
3326.13931,0.02327
3325.17493,0.02331
3324.21055,0.02332
3323.24618,0.02331
3322.28180,0.02330
3321.31742,0.02328
3320.35304,0.02327
3319.38866,0.02325
3318.42429,0.02325
3317.45991,0.02326
3316.49553,0.02330
3315.53115,0.02334
3314.56677,0.02333
3313.60240,0.02333
3312.63802,0.02334
3311.67364,0.02332
3310.70926,0.02326
3309.74488,0.02319
3308.78051,0.02315
3307.81613,0.02313
3306.85175,0.02315
3305.88737,0.02317
3304.92300,0.02318
3303.95862,0.02318
3302.99424,0.02314
3302.02986,0.02317
3301.06548,0.02322
3300.10111,0.02318
3299.13673,0.02308
3298.17235,0.02299
3297.20797,0.02294
3296.24359,0.02286
3295.27922,0.02277
3294.31484,0.02274
3293.35046,0.02273
3292.38608,0.02273
3291.42171,0.02273
3290.45733,0.02276
3289.49295,0.02279
3288.52857,0.02280
3287.56419,0.02283
3286.59982,0.02286
3285.63544,0.02289
3284.67106,0.02286
3283.70668,0.02282
3282.74230,0.02281
3281.77793,0.02281
3280.81355,0.02279
3279.84917,0.02274
3278.88479,0.02267
3277.92041,0.02259
3276.95604,0.02255
3275.99166,0.02251
3275.02728,0.02249
3274.06290,0.02251
3273.09853,0.02254
3272.13415,0.02260
3271.16977,0.02269
3270.20539,0.02275
3269.24101,0.02279
3268.27664,0.02281
3267.31226,0.02283
3266.34788,0.02281
3265.38350,0.02278
3264.41912,0.02276
3263.45475,0.02276
3262.49037,0.02274
3261.52599,0.02269
3260.56161,0.02265
3259.59724,0.02257
3258.63286,0.02245
3257.66848,0.02234
3256.70410,0.02227
3255.73972,0.02224
3254.77535,0.02222
3253.81097,0.02220
3252.84659,0.02225
3251.88221,0.02238
3250.91783,0.02253
3249.95346,0.02264
3248.98908,0.02270
3248.02470,0.02273
3247.06032,0.02271
3246.09594,0.02268
3245.13157,0.02262
3244.16719,0.02250
3243.20281,0.02237
3242.23843,0.02230
3241.27406,0.02226
3240.30968,0.02226
3239.34530,0.02226
3238.38092,0.02228
3237.41654,0.02231
3236.45217,0.02236
3235.48779,0.02241
3234.52341,0.02243
3233.55903,0.02240
3232.59465,0.02234
3231.63028,0.02231
3230.66590,0.02231
3229.70152,0.02228
3228.73714,0.02223
3227.77276,0.02217
3226.80839,0.02206
3225.84401,0.02196
3224.87963,0.02188
3223.91525,0.02184
3222.95088,0.02180
3221.98650,0.02178
3221.02212,0.02182
3220.05774,0.02186
3219.09336,0.02192
3218.12899,0.02199
3217.16461,0.02203
3216.20023,0.02199
3215.23585,0.02188
3214.27147,0.02180
3213.30710,0.02179
3212.34272,0.02180
3211.37834,0.02180
3210.41396,0.02177
3209.44959,0.02175
3208.48521,0.02170
3207.52083,0.02167
3206.55645,0.02167
3205.59207,0.02168
3204.62770,0.02170
3203.66332,0.02174
3202.69894,0.02183
3201.73456,0.02196
3200.77018,0.02208
3199.80581,0.02215
3198.84143,0.02217
3197.87705,0.02217
3196.91267,0.02208
3195.94829,0.02192
3194.98392,0.02178
3194.01954,0.02171
3193.05516,0.02168
3192.09078,0.02163
3191.12641,0.02162
3190.16203,0.02165
3189.19765,0.02168
3188.23327,0.02171
3187.26889,0.02173
3186.30452,0.02173
3185.34014,0.02166
3184.37576,0.02160
3183.41138,0.02162
3182.44700,0.02171
3181.48263,0.02178
3180.51825,0.02181
3179.55387,0.02179
3178.58949,0.02173
3177.62512,0.02165
3176.66074,0.02157
3175.69636,0.02146
3174.73198,0.02129
3173.76760,0.02114
3172.80323,0.02108
3171.83885,0.02107
3170.87447,0.02109
3169.91009,0.02110
3168.94571,0.02110
3167.98134,0.02112
3167.01696,0.02115
3166.05258,0.02123
3165.08820,0.02133
3164.12382,0.02137
3163.15945,0.02133
3162.19507,0.02126
3161.23069,0.02119
3160.26631,0.02113
3159.30194,0.02106
3158.33756,0.02101
3157.37318,0.02098
3156.40880,0.02098
3155.44442,0.02100
3154.48005,0.02106
3153.51567,0.02116
3152.55129,0.02126
3151.58691,0.02129
3150.62253,0.02128
3149.65816,0.02129
3148.69378,0.02127
3147.72940,0.02124
3146.76502,0.02119
3145.80065,0.02111
3144.83627,0.02106
3143.87189,0.02106
3142.90751,0.02105
3141.94313,0.02106
3140.97876,0.02108
3140.01438,0.02107
3139.05000,0.02103
3138.08562,0.02098
3137.12124,0.02091
3136.15687,0.02085
3135.19249,0.02082
3134.22811,0.02079
3133.26373,0.02079
3132.29935,0.02082
3131.33498,0.02079
3130.37060,0.02077
3129.40622,0.02073
3128.44184,0.02069
3127.47747,0.02073
3126.51309,0.02083
3125.54871,0.02092
3124.58433,0.02097
3123.61995,0.02098
3122.65558,0.02093
3121.69120,0.02086
3120.72682,0.02075
3119.76244,0.02058
3118.79806,0.02051
3117.83369,0.02051
3116.86931,0.02057
3115.90493,0.02068
3114.94055,0.02075
3113.97618,0.02077
3113.01180,0.02077
3112.04742,0.02077
3111.08304,0.02076
3110.11866,0.02075
3109.15429,0.02077
3108.18991,0.02082
3107.22553,0.02091
3106.26115,0.02099
3105.29677,0.02101
3104.33240,0.02095
3103.36802,0.02083
3102.40364,0.02068
3101.43926,0.02050
3100.47488,0.02046
3099.51051,0.02052
3098.54613,0.02063
3097.58175,0.02078
3096.61737,0.02085
3095.65300,0.02089
3094.68862,0.02089
3093.72424,0.02084
3092.75986,0.02073
3091.79548,0.02061
3090.83111,0.02060
3089.86673,0.02068
3088.90235,0.02088
3087.93797,0.02107
3086.97359,0.02113
3086.00922,0.02111
3085.04484,0.02102
3084.08046,0.02087
3083.11608,0.02066
3082.15171,0.02048
3081.18733,0.02044
3080.22295,0.02050
3079.25857,0.02069
3078.29419,0.02088
3077.32982,0.02096
3076.36544,0.02098
3075.40106,0.02093
3074.43668,0.02083
3073.47230,0.02068
3072.50793,0.02058
3071.54355,0.02059
3070.57917,0.02071
3069.61479,0.02086
3068.65041,0.02096
3067.68604,0.02104
3066.72166,0.02108
3065.75728,0.02103
3064.79290,0.02090
3063.82853,0.02072
3062.86415,0.02059
3061.89977,0.02057
3060.93539,0.02064
3059.97101,0.02071
3059.00664,0.02071
3058.04226,0.02070
3057.07788,0.02068
3056.11350,0.02063
3055.14912,0.02052
3054.18475,0.02040
3053.22037,0.02030
3052.25599,0.02025
3051.29161,0.02029
3050.32724,0.02036
3049.36286,0.02038
3048.39848,0.02039
3047.43410,0.02043
3046.46972,0.02046
3045.50535,0.02043
3044.54097,0.02040
3043.57659,0.02039
3042.61221,0.02045
3041.64783,0.02056
3040.68346,0.02062
3039.71908,0.02062
3038.75470,0.02057
3037.79032,0.02051
3036.82594,0.02046
3035.86157,0.02039
3034.89719,0.02028
3033.93281,0.02019
3032.96843,0.02017
3032.00406,0.02019
3031.03968,0.02023
3030.07530,0.02030
3029.11092,0.02035
3028.14654,0.02037
3027.18217,0.02036
3026.21779,0.02033
3025.25341,0.02023
3024.28903,0.02008
3023.32465,0.02008
3022.36028,0.02037
3021.39590,0.02086
3020.43152,0.02138
3019.46714,0.02184
3018.50276,0.02218
3017.53839,0.02236
3016.57401,0.02235
3015.60963,0.02213
3014.64525,0.02174
3013.68088,0.02124
3012.71650,0.02075
3011.75212,0.02041
3010.78774,0.02026
3009.82336,0.02019
3008.85899,0.02013
3007.89461,0.02006
3006.93023,0.01997
3005.96585,0.01987
3005.00147,0.01979
3004.03710,0.01973
3003.07272,0.01971
3002.10834,0.01971
3001.14396,0.01967
3000.17959,0.01958
2999.21521,0.01949
2998.25083,0.01943
2997.28645,0.01939
2996.32207,0.01935
2995.35770,0.01931
2994.39332,0.01929
2993.42894,0.01931
2992.46456,0.01933
2991.50018,0.01933
2990.53581,0.01928
2989.57143,0.01921
2988.60705,0.01914
2987.64267,0.01907
2986.67829,0.01898
2985.71392,0.01885
2984.74954,0.01874
2983.78516,0.01869
2982.82078,0.01867
2981.85641,0.01865
2980.89203,0.01866
2979.92765,0.01867
2978.96327,0.01866
2977.99889,0.01867
2977.03452,0.01870
2976.07014,0.01874
2975.10576,0.01874
2974.14138,0.01873
2973.17700,0.01878
2972.21263,0.01886
2971.24825,0.01890
2970.28387,0.01887
2969.31949,0.01881
2968.35512,0.01871
2967.39074,0.01857
2966.42636,0.01842
2965.46198,0.01826
2964.49760,0.01812
2963.53323,0.01808
2962.56885,0.01813
2961.60447,0.01822
2960.64009,0.01829
2959.67571,0.01834
2958.71134,0.01836
2957.74696,0.01832
2956.78258,0.01827
2955.81820,0.01819
2954.85382,0.01807
2953.88945,0.01795
2952.92507,0.01794
2951.96069,0.01802
2950.99631,0.01809
2950.03194,0.01809
2949.06756,0.01802
2948.10318,0.01791
2947.13880,0.01780
2946.17442,0.01765
2945.21005,0.01749
2944.24567,0.01731
2943.28129,0.01717
2942.31691,0.01717
2941.35253,0.01727
2940.38816,0.01738
2939.42378,0.01746
2938.45940,0.01751
2937.49502,0.01753
2936.53065,0.01756
2935.56627,0.01758
2934.60189,0.01753
2933.63751,0.01743
2932.67313,0.01737
2931.70876,0.01738
2930.74438,0.01743
2929.78000,0.01745
2928.81562,0.01741
2927.85124,0.01737
2926.88687,0.01731
2925.92249,0.01726
2924.95811,0.01721
2923.99373,0.01715
2923.02935,0.01705
2922.06498,0.01703
2921.10060,0.01709
2920.13622,0.01715
2919.17184,0.01714
2918.20747,0.01709
2917.24309,0.01699
2916.27871,0.01690
2915.31433,0.01679
2914.34995,0.01666
2913.38558,0.01654
2912.42120,0.01641
2911.45682,0.01629
2910.49244,0.01623
2909.52806,0.01619
2908.56369,0.01614
2907.59931,0.01609
2906.63493,0.01603
2905.67055,0.01595
2904.70618,0.01587
2903.74180,0.01581
2902.77742,0.01575
2901.81304,0.01572
2900.84866,0.01572
2899.88429,0.01576
2898.91991,0.01582
2897.95553,0.01589
2896.99115,0.01594
2896.02677,0.01596
2895.06240,0.01597
2894.09802,0.01594
2893.13364,0.01590
2892.16926,0.01585
2891.20488,0.01581
2890.24051,0.01579
2889.27613,0.01579
2888.31175,0.01581
2887.34737,0.01579
2886.38300,0.01573
2885.41862,0.01564
2884.45424,0.01556
2883.48986,0.01550
2882.52548,0.01542
2881.56111,0.01535
2880.59673,0.01530
2879.63235,0.01531
2878.66797,0.01535
2877.70359,0.01538
2876.73922,0.01543
2875.77484,0.01544
2874.81046,0.01541
2873.84608,0.01538
2872.88171,0.01537
2871.91733,0.01535
2870.95295,0.01531
2869.98857,0.01526
2869.02419,0.01521
2868.05982,0.01518
2867.09544,0.01516
2866.13106,0.01517
2865.16668,0.01520
2864.20230,0.01520
2863.23793,0.01521
2862.27355,0.01527
2861.30917,0.01533
2860.34479,0.01537
2859.38041,0.01540
2858.41604,0.01542
2857.45166,0.01542
2856.48728,0.01541
2855.52290,0.01539
2854.55853,0.01539
2853.59415,0.01538
2852.62977,0.01535
2851.66539,0.01532
2850.70101,0.01528
2849.73664,0.01522
2848.77226,0.01517
2847.80788,0.01515
2846.84350,0.01513
2845.87912,0.01508
2844.91475,0.01503
2843.95037,0.01497
2842.98599,0.01492
2842.02161,0.01486
2841.05724,0.01480
2840.09286,0.01474
2839.12848,0.01469
2838.16410,0.01468
2837.19972,0.01470
2836.23535,0.01471
2835.27097,0.01469
2834.30659,0.01469
2833.34221,0.01469
2832.37783,0.01468
2831.41346,0.01467
2830.44908,0.01465
2829.48470,0.01459
2828.52032,0.01452
2827.55594,0.01447
2826.59157,0.01443
2825.62719,0.01441
2824.66281,0.01439
2823.69843,0.01436
2822.73406,0.01435
2821.76968,0.01437
2820.80530,0.01442
2819.84092,0.01447
2818.87654,0.01449
2817.91217,0.01450
2816.94779,0.01449
2815.98341,0.01446
2815.01903,0.01443
2814.05465,0.01439
2813.09028,0.01435
2812.12590,0.01431
2811.16152,0.01426
2810.19714,0.01423
2809.23276,0.01420
2808.26839,0.01418
2807.30401,0.01416
2806.33963,0.01415
2805.37525,0.01412
2804.41088,0.01408
2803.44650,0.01405
2802.48212,0.01406
2801.51774,0.01413
2800.55336,0.01421
2799.58899,0.01425
2798.62461,0.01424
2797.66023,0.01422
2796.69585,0.01419
2795.73147,0.01416
2794.76710,0.01411
2793.80272,0.01403
2792.83834,0.01395
2791.87396,0.01389
2790.90959,0.01387
2789.94521,0.01387
2788.98083,0.01386
2788.01645,0.01385
2787.05207,0.01384
2786.08770,0.01382
2785.12332,0.01382
2784.15894,0.01382
2783.19456,0.01379
2782.23018,0.01376
2781.26581,0.01374
2780.30143,0.01372
2779.33705,0.01370
2778.37267,0.01370
2777.40829,0.01370
2776.44392,0.01369
2775.47954,0.01370
2774.51516,0.01370
2773.55078,0.01370
2772.58641,0.01368
2771.62203,0.01365
2770.65765,0.01362
2769.69327,0.01360
2768.72889,0.01360
2767.76452,0.01360
2766.80014,0.01363
2765.83576,0.01365
2764.87138,0.01368
2763.90700,0.01372
2762.94263,0.01374
2761.97825,0.01373
2761.01387,0.01372
2760.04949,0.01369
2759.08512,0.01363
2758.12074,0.01358
2757.15636,0.01356
2756.19198,0.01353
2755.22760,0.01347
2754.26323,0.01342
2753.29885,0.01339
2752.33447,0.01336
2751.37009,0.01332
2750.40571,0.01328
2749.44134,0.01325
2748.47696,0.01322
2747.51258,0.01321
2746.54820,0.01323
2745.58382,0.01327
2744.61945,0.01330
2743.65507,0.01331
2742.69069,0.01333
2741.72631,0.01335
2740.76194,0.01335
2739.79756,0.01333
2738.83318,0.01329
2737.86880,0.01324
2736.90442,0.01318
2735.94005,0.01314
2734.97567,0.01312
2734.01129,0.01311
2733.04691,0.01313
2732.08253,0.01315
2731.11816,0.01318
2730.15378,0.01318
2729.18940,0.01314
2728.22502,0.01311
2727.26065,0.01308
2726.29627,0.01302
2725.33189,0.01297
2724.36751,0.01295
2723.40313,0.01293
2722.43876,0.01292
2721.47438,0.01293
2720.51000,0.01295
2719.54562,0.01297
2718.58124,0.01296
2717.61687,0.01292
2716.65249,0.01291
2715.68811,0.01291
2714.72373,0.01288
2713.75935,0.01285
2712.79498,0.01284
2711.83060,0.01282
2710.86622,0.01279
2709.90184,0.01276
2708.93747,0.01272
2707.97309,0.01269
2707.00871,0.01265
2706.04433,0.01263
2705.07995,0.01263
2704.11558,0.01263
2703.15120,0.01262
2702.18682,0.01263
2701.22244,0.01265
2700.25806,0.01265
2699.29369,0.01263
2698.32931,0.01260
2697.36493,0.01257
2696.40055,0.01254
2695.43618,0.01250
2694.47180,0.01247
2693.50742,0.01245
2692.54304,0.01245
2691.57866,0.01246
2690.61429,0.01248
2689.64991,0.01249
2688.68553,0.01246
2687.72115,0.01243
2686.75677,0.01241
2685.79240,0.01240
2684.82802,0.01237
2683.86364,0.01233
2682.89926,0.01230
2681.93488,0.01227
2680.97051,0.01225
2680.00613,0.01224
2679.04175,0.01225
2678.07737,0.01225
2677.11300,0.01225
2676.14862,0.01225
2675.18424,0.01225
2674.21986,0.01224
2673.25548,0.01223
2672.29111,0.01221
2671.32673,0.01217
2670.36235,0.01211
2669.39797,0.01205
2668.43359,0.01201
2667.46922,0.01200
2666.50484,0.01199
2665.54046,0.01197
2664.57608,0.01196
2663.61171,0.01194
2662.64733,0.01192
2661.68295,0.01193
2660.71857,0.01193
2659.75419,0.01193
2658.78982,0.01189
2657.82544,0.01187
2656.86106,0.01186
2655.89668,0.01185
2654.93230,0.01183
2653.96793,0.01178
2653.00355,0.01173
2652.03917,0.01167
2651.07479,0.01162
2650.11041,0.01158
2649.14604,0.01154
2648.18166,0.01150
2647.21728,0.01146
2646.25290,0.01143
2645.28853,0.01142
2644.32415,0.01142
2643.35977,0.01141
2642.39539,0.01138
2641.43101,0.01137
2640.46664,0.01139
2639.50226,0.01142
2638.53788,0.01144
2637.57350,0.01143
2636.60912,0.01143
2635.64475,0.01139
2634.68037,0.01136
2633.71599,0.01136
2632.75161,0.01134
2631.78724,0.01131
2630.82286,0.01130
2629.85848,0.01129
2628.89410,0.01129
2627.92972,0.01126
2626.96535,0.01119
2626.00097,0.01112
2625.03659,0.01110
2624.07221,0.01112
2623.10783,0.01117
2622.14346,0.01122
2621.17908,0.01125
2620.21470,0.01128
2619.25032,0.01129
2618.28594,0.01128
2617.32157,0.01124
2616.35719,0.01116
2615.39281,0.01104
2614.42843,0.01092
2613.46406,0.01083
2612.49968,0.01080
2611.53530,0.01082
2610.57092,0.01085
2609.60654,0.01087
2608.64217,0.01089
2607.67779,0.01091
2606.71341,0.01094
2605.74903,0.01098
2604.78465,0.01099
2603.82028,0.01096
2602.85590,0.01089
2601.89152,0.01085
2600.92714,0.01082
2599.96276,0.01081
2598.99839,0.01078
2598.03401,0.01072
2597.06963,0.01068
2596.10525,0.01063
2595.14088,0.01059
2594.17650,0.01054
2593.21212,0.01055
2592.24774,0.01060
2591.28336,0.01061
2590.31899,0.01058
2589.35461,0.01050
2588.39023,0.01040
2587.42585,0.01034
2586.46147,0.01029
2585.49710,0.01025
2584.53272,0.01023
2583.56834,0.01026
2582.60396,0.01030
2581.63959,0.01038
2580.67521,0.01047
2579.71083,0.01048
2578.74645,0.01041
2577.78207,0.01030
2576.81770,0.01019
2575.85332,0.01013
2574.88894,0.01009
2573.92456,0.01011
2572.96018,0.01017
2571.99581,0.01025
2571.03143,0.01023
2570.06705,0.01017
2569.10267,0.01016
2568.13829,0.01009
2567.17392,0.00996
2566.20954,0.00983
2565.24516,0.00977
2564.28078,0.00978
2563.31641,0.00985
2562.35203,0.00993
2561.38765,0.00996
2560.42327,0.00994
2559.45889,0.00991
2558.49452,0.00988
2557.53014,0.00986
2556.56576,0.00980
2555.60138,0.00977
2554.63700,0.00983
2553.67263,0.00992
2552.70825,0.01004
2551.74387,0.01012
2550.77949,0.01014
2549.81512,0.01010
2548.85074,0.01003
2547.88636,0.00996
2546.92198,0.00991
2545.95760,0.00989
2544.99323,0.00990
2544.02885,0.00995
2543.06447,0.01001
2542.10009,0.01006
2541.13571,0.01009
2540.17134,0.01008
2539.20696,0.01003
2538.24258,0.00995
2537.27820,0.00986
2536.31382,0.00980
2535.34945,0.00983
2534.38507,0.00981
2533.42069,0.00974
2532.45631,0.00968
2531.49194,0.00968
2530.52756,0.00967
2529.56318,0.00963
2528.59880,0.00957
2527.63442,0.00951
2526.67005,0.00946
2525.70567,0.00945
2524.74129,0.00953
2523.77691,0.00960
2522.81253,0.00956
2521.84816,0.00950
2520.88378,0.00948
2519.91940,0.00948
2518.95502,0.00942
2517.99065,0.00932
2517.02627,0.00926
2516.06189,0.00919
2515.09751,0.00914
2514.13313,0.00916
2513.16876,0.00921
2512.20438,0.00921
2511.24000,0.00918
2510.27562,0.00919
2509.31124,0.00920
2508.34687,0.00921
2507.38249,0.00923
2506.41811,0.00926
2505.45373,0.00929
2504.48935,0.00928
2503.52498,0.00928
2502.56060,0.00930
2501.59622,0.00928
2500.63184,0.00924
2499.66747,0.00925
2498.70309,0.00929
2497.73871,0.00926
2496.77433,0.00922
2495.80995,0.00917
2494.84558,0.00913
2493.88120,0.00908
2492.91682,0.00901
2491.95244,0.00894
2490.98806,0.00892
2490.02369,0.00892
2489.05931,0.00892
2488.09493,0.00895
2487.13055,0.00901
2486.16618,0.00907
2485.20180,0.00910
2484.23742,0.00910
2483.27304,0.00910
2482.30866,0.00907
2481.34429,0.00896
2480.37991,0.00884
2479.41553,0.00877
2478.45115,0.00873
2477.48677,0.00869
2476.52240,0.00870
2475.55802,0.00880
2474.59364,0.00893
2473.62926,0.00903
2472.66488,0.00907
2471.70051,0.00907
2470.73613,0.00902
2469.77175,0.00891
2468.80737,0.00882
2467.84300,0.00872
2466.87862,0.00860
2465.91424,0.00849
2464.94986,0.00836
2463.98548,0.00829
2463.02111,0.00829
2462.05673,0.00832
2461.09235,0.00840
2460.12797,0.00852
2459.16359,0.00861
2458.19922,0.00870
2457.23484,0.00878
2456.27046,0.00882
2455.30608,0.00885
2454.34171,0.00879
2453.37733,0.00865
2452.41295,0.00857
2451.44857,0.00853
2450.48419,0.00848
2449.51982,0.00845
2448.55544,0.00841
2447.59106,0.00834
2446.62668,0.00824
2445.66230,0.00819
2444.69793,0.00820
2443.73355,0.00823
2442.76917,0.00826
2441.80479,0.00829
2440.84041,0.00836
2439.87604,0.00841
2438.91166,0.00847
2437.94728,0.00854
2436.98290,0.00860
2436.01853,0.00863
2435.05415,0.00861
2434.08977,0.00855
2433.12539,0.00849
2432.16101,0.00845
2431.19664,0.00838
2430.23226,0.00830
2429.26788,0.00825
2428.30350,0.00825
2427.33912,0.00827
2426.37475,0.00834
2425.41037,0.00842
2424.44599,0.00845
2423.48161,0.00845
2422.51724,0.00842
2421.55286,0.00837
2420.58848,0.00833
2419.62410,0.00826
2418.65972,0.00817
2417.69535,0.00810
2416.73097,0.00801
2415.76659,0.00793
2414.80221,0.00790
2413.83783,0.00785
2412.87346,0.00778
2411.90908,0.00779
2410.94470,0.00788
2409.98032,0.00797
2409.01594,0.00805
2408.05157,0.00810
2407.08719,0.00811
2406.12281,0.00814
2405.15843,0.00816
2404.19406,0.00819
2403.22968,0.00818
2402.26530,0.00813
2401.30092,0.00809
2400.33654,0.00809
2399.37217,0.00807
2398.40779,0.00806
2397.44341,0.00806
2396.47903,0.00805
2395.51465,0.00804
2394.55028,0.00802
2393.58590,0.00800
2392.62152,0.00799
2391.65714,0.00799
2390.69276,0.00797
2389.72839,0.00792
2388.76401,0.00788
2387.79963,0.00787
2386.83525,0.00791
2385.87088,0.00797
2384.90650,0.00805
2383.94212,0.00812
2382.97774,0.00818
2382.01336,0.00825
2381.04899,0.00830
2380.08461,0.00834
2379.12023,0.00837
2378.15585,0.00841
2377.19147,0.00850
2376.22710,0.00861
2375.26272,0.00875
2374.29834,0.00890
2373.33396,0.00900
2372.36959,0.00902
2371.40521,0.00902
2370.44083,0.00903
2369.47645,0.00904
2368.51207,0.00906
2367.54770,0.00911
2366.58332,0.00919
2365.61894,0.00931
2364.65456,0.00942
2363.69018,0.00949
2362.72581,0.00954
2361.76143,0.00952
2360.79705,0.00944
2359.83267,0.00939
2358.86829,0.00939
2357.90392,0.00935
2356.93954,0.00926
2355.97516,0.00917
2355.01078,0.00907
2354.04641,0.00896
2353.08203,0.00882
2352.11765,0.00868
2351.15327,0.00862
2350.18889,0.00862
2349.22452,0.00864
2348.26014,0.00868
2347.29576,0.00872
2346.33138,0.00873
2345.36700,0.00875
2344.40263,0.00880
2343.43825,0.00885
2342.47387,0.00888
2341.50949,0.00890
2340.54512,0.00890
2339.58074,0.00892
2338.61636,0.00897
2337.65198,0.00904
2336.68760,0.00905
2335.72323,0.00904
2334.75885,0.00902
2333.79447,0.00898
2332.83009,0.00897
2331.86571,0.00896
2330.90134,0.00891
2329.93696,0.00883
2328.97258,0.00874
2328.00820,0.00868
2327.04382,0.00866
2326.07945,0.00864
2325.11507,0.00857
2324.15069,0.00846
2323.18631,0.00834
2322.22194,0.00822
2321.25756,0.00811
2320.29318,0.00801
2319.32880,0.00794
2318.36442,0.00791
2317.40005,0.00792
2316.43567,0.00796
2315.47129,0.00801
2314.50691,0.00802
2313.54253,0.00800
2312.57816,0.00796
2311.61378,0.00792
2310.64940,0.00789
2309.68502,0.00784
2308.72065,0.00780
2307.75627,0.00776
2306.79189,0.00769
2305.82751,0.00759
2304.86313,0.00747
2303.89876,0.00737
2302.93438,0.00725
2301.97000,0.00716
2301.00562,0.00712
2300.04124,0.00707
2299.07687,0.00711
2298.11249,0.00721
2297.14811,0.00731
2296.18373,0.00736
2295.21935,0.00732
2294.25498,0.00724
2293.29060,0.00721
2292.32622,0.00717
2291.36184,0.00711
2290.39747,0.00711
2289.43309,0.00713
2288.46871,0.00716
2287.50433,0.00722
2286.53995,0.00721
2285.57558,0.00713
2284.61120,0.00702
2283.64682,0.00692
2282.68244,0.00682
2281.71806,0.00671
2280.75369,0.00664
2279.78931,0.00666
2278.82493,0.00674
2277.86055,0.00679
2276.89618,0.00684
2275.93180,0.00689
2274.96742,0.00687
2274.00304,0.00683
2273.03866,0.00688
2272.07429,0.00709
2271.10991,0.00727
2270.14553,0.00730
2269.18115,0.00719
2268.21677,0.00698
2267.25240,0.00667
2266.28802,0.00635
2265.32364,0.00617
2264.35926,0.00604
2263.39488,0.00593
2262.43051,0.00598
2261.46613,0.00627
2260.50175,0.00666
2259.53737,0.00694
2258.57300,0.00700
2257.60862,0.00682
2256.64424,0.00657
2255.67986,0.00640
2254.71548,0.00628
2253.75111,0.00618
2252.78673,0.00614
2251.82235,0.00629
2250.85797,0.00659
2249.89359,0.00686
2248.92922,0.00696
2247.96484,0.00686
2247.00046,0.00661
2246.03608,0.00626
2245.07171,0.00599
2244.10733,0.00592
2243.14295,0.00596
2242.17857,0.00592
2241.21419,0.00587
2240.24982,0.00588
2239.28544,0.00593
2238.32106,0.00605
2237.35668,0.00616
2236.39230,0.00616
2235.42793,0.00607
2234.46355,0.00599
2233.49917,0.00601
2232.53479,0.00605
2231.57041,0.00593
2230.60604,0.00548
2229.64166,0.00498
2228.67728,0.00466
2227.71290,0.00453
2226.74853,0.00460
2225.78415,0.00480
2224.81977,0.00523
2223.85539,0.00582
2222.89101,0.00635
2221.92664,0.00680
2220.96226,0.00721
2219.99788,0.00747
2219.03350,0.00757
2218.06912,0.00760
2217.10475,0.00756
2216.14037,0.00742
2215.17599,0.00706
2214.21161,0.00656
2213.24724,0.00620
2212.28286,0.00588
2211.31848,0.00553
2210.35410,0.00531
2209.38972,0.00514
2208.42535,0.00492
2207.46097,0.00473
2206.49659,0.00465
2205.53221,0.00468
2204.56783,0.00467
2203.60346,0.00454
2202.63908,0.00433
2201.67470,0.00412
2200.71032,0.00395
2199.74594,0.00382
2198.78157,0.00362
2197.81719,0.00328
2196.85281,0.00294
2195.88843,0.00273
2194.92406,0.00263
2193.95968,0.00258
2192.99530,0.00255
2192.03092,0.00262
2191.06654,0.00266
2190.10217,0.00267
2189.13779,0.00268
2188.17341,0.00269
2187.20903,0.00270
2186.24465,0.00271
2185.28028,0.00272
2184.31590,0.00273
2183.35152,0.00274
2182.38714,0.00275
2181.42276,0.00276
2180.45839,0.00277
2179.49401,0.00278
2178.52963,0.00279
2177.56525,0.00280
2176.60088,0.00281
2175.63650,0.00282
2174.67212,0.00283
2173.70774,0.00284
2172.74336,0.00285
2171.77899,0.00286
2170.81461,0.00287
2169.85023,0.00288
2168.88585,0.00289
2167.92147,0.00290
2166.95710,0.00290
2165.99272,0.00291
2165.02834,0.00292
2164.06396,0.00293
2163.09959,0.00294
2162.13521,0.00295
2161.17083,0.00296
2160.20645,0.00297
2159.24207,0.00298
2158.27770,0.00299
2157.31332,0.00300
2156.34894,0.00301
2155.38456,0.00302
2154.42018,0.00303
2153.45581,0.00304
2152.49143,0.00305
2151.52705,0.00306
2150.56267,0.00307
2149.59829,0.00308
2148.63392,0.00309
2147.66954,0.00310
2146.70516,0.00311
2145.74078,0.00312
2144.77641,0.00313
2143.81203,0.00314
2142.84765,0.00315
2141.88327,0.00316
2140.91889,0.00317
2139.95452,0.00318
2138.99014,0.00319
2138.02576,0.00320
2137.06138,0.00321
2136.09700,0.00321
2135.13263,0.00322
2134.16825,0.00323
2133.20387,0.00324
2132.23949,0.00325
2131.27512,0.00326
2130.31074,0.00327
2129.34636,0.00328
2128.38198,0.00329
2127.41760,0.00330
2126.45323,0.00331
2125.48885,0.00332
2124.52447,0.00333
2123.56009,0.00334
2122.59571,0.00335
2121.63134,0.00336
2120.66696,0.00337
2119.70258,0.00338
2118.73820,0.00339
2117.77382,0.00340
2116.80945,0.00341
2115.84507,0.00342
2114.88069,0.00343
2113.91631,0.00344
2112.95194,0.00345
2111.98756,0.00346
2111.02318,0.00347
2110.05880,0.00348
2109.09442,0.00349
2108.13005,0.00350
2107.16567,0.00351
2106.20129,0.00351
2105.23691,0.00352
2104.27253,0.00353
2103.30816,0.00354
2102.34378,0.00355
2101.37940,0.00356
2100.41502,0.00357
2099.45065,0.00358
2098.48627,0.00359
2097.52189,0.00360
2096.55751,0.00361
2095.59313,0.00362
2094.62876,0.00363
2093.66438,0.00364
2092.70000,0.00365
2091.73562,0.00366
2090.77124,0.00367
2089.80687,0.00368
2088.84249,0.00369
2087.87811,0.00370
2086.91373,0.00371
2085.94935,0.00372
2084.98498,0.00373
2084.02060,0.00374
2083.05622,0.00375
2082.09184,0.00376
2081.12747,0.00377
2080.16309,0.00378
2079.19871,0.00379
2078.23433,0.00380
2077.26995,0.00381
2076.30558,0.00381
2075.34120,0.00382
2074.37682,0.00383
2073.41244,0.00384
2072.44806,0.00385
2071.48369,0.00386
2070.51931,0.00387
2069.55493,0.00388
2068.59055,0.00389
2067.62618,0.00390
2066.66180,0.00391
2065.69742,0.00392
2064.73304,0.00393
2063.76866,0.00394
2062.80429,0.00395
2061.83991,0.00396
2060.87553,0.00397
2059.91115,0.00398
2058.94677,0.00399
2057.98240,0.00400
2057.01802,0.00401
2056.05364,0.00402
2055.08926,0.00403
2054.12488,0.00404
2053.16051,0.00405
2052.19613,0.00406
2051.23175,0.00407
2050.26737,0.00408
2049.30300,0.00409
2048.33862,0.00410
2047.37424,0.00411
2046.40986,0.00412
2045.44548,0.00412
2044.48111,0.00413
2043.51673,0.00414
2042.55235,0.00415
2041.58797,0.00416
2040.62359,0.00417
2039.65922,0.00418
2038.69484,0.00419
2037.73046,0.00420
2036.76608,0.00421
2035.80171,0.00422
2034.83733,0.00423
2033.87295,0.00424
2032.90857,0.00425
2031.94419,0.00426
2030.97982,0.00427
2030.01544,0.00428
2029.05106,0.00429
2028.08668,0.00430
2027.12230,0.00431
2026.15793,0.00432
2025.19355,0.00433
2024.22917,0.00434
2023.26479,0.00435
2022.30041,0.00436
2021.33604,0.00437
2020.37166,0.00438
2019.40728,0.00439
2018.44290,0.00440
2017.47853,0.00441
2016.51415,0.00442
2015.54977,0.00442
2014.58539,0.00443
2013.62101,0.00444
2012.65664,0.00445
2011.69226,0.00446
2010.72788,0.00447
2009.76350,0.00448
2008.79912,0.00449
2007.83475,0.00450
2006.87037,0.00451
2005.90599,0.00452
2004.94161,0.00453
2003.97724,0.00454
2003.01286,0.00455
2002.04848,0.00456
2001.08410,0.00457
2000.11972,0.00458
1999.15535,0.00459
1998.19097,0.00460
1997.22659,0.00461
1996.26221,0.00462
1995.29783,0.00463
1994.33346,0.00464
1993.36908,0.00465
1992.40470,0.00466
1991.44032,0.00467
1990.47594,0.00468
1989.51157,0.00469
1988.54719,0.00470
1987.58281,0.00471
1986.61843,0.00472
1985.65406,0.00472
1984.68968,0.00473
1983.72530,0.00474
1982.76092,0.00475
1981.79654,0.00476
1980.83217,0.00477
1979.86779,0.00478
1978.90341,0.00479
1977.93903,0.00480
1976.97465,0.00481
1976.01028,0.00482
1975.04590,0.00483
1974.08152,0.00484
1973.11714,0.00485
1972.15276,0.00486
1971.18839,0.00487
1970.22401,0.00488
1969.25963,0.00489
1968.29525,0.00490
1967.33088,0.00491
1966.36650,0.00492
1965.40212,0.00493
1964.43774,0.00494
1963.47336,0.00495
1962.50899,0.00496
1961.54461,0.00497
1960.58023,0.00498
1959.61585,0.00499
1958.65147,0.00500
1957.68710,0.00501
1956.72272,0.00502
1955.75834,0.00503
1954.79396,0.00503
1953.82959,0.00504
1952.86521,0.00505
1951.90083,0.00506
1950.93645,0.00507
1949.97207,0.00508
1949.00770,0.00509
1948.04332,0.00510
1947.07894,0.00511
1946.11456,0.00512
1945.15018,0.00513
1944.18581,0.00514
1943.22143,0.00515
1942.25705,0.00516
1941.29267,0.00517
1940.32829,0.00518
1939.36392,0.00519
1938.39954,0.00520
1937.43516,0.00521
1936.47078,0.00522
1935.50641,0.00523
1934.54203,0.00524
1933.57765,0.00525
1932.61327,0.00526
1931.64889,0.00527
1930.68452,0.00525
1929.72014,0.00524
1928.75576,0.00529
1927.79138,0.00538
1926.82700,0.00552
1925.86263,0.00555
1924.89825,0.00547
1923.93387,0.00537
1922.96949,0.00528
1922.00512,0.00524
1921.04074,0.00522
1920.07636,0.00520
1919.11198,0.00514
1918.14760,0.00512
1917.18323,0.00509
1916.21885,0.00504
1915.25447,0.00498
1914.29009,0.00481
1913.32571,0.00466
1912.36134,0.00467
1911.39696,0.00476
1910.43258,0.00481
1909.46820,0.00481
1908.50382,0.00480
1907.53945,0.00476
1906.57507,0.00471
1905.61069,0.00463
1904.64631,0.00454
1903.68194,0.00456
1902.71756,0.00464
1901.75318,0.00479
1900.78880,0.00496
1899.82442,0.00504
1898.86005,0.00497
1897.89567,0.00482
1896.93129,0.00465
1895.96691,0.00457
1895.00253,0.00456
1894.03816,0.00457
1893.07378,0.00466
1892.10940,0.00484
1891.14502,0.00500
1890.18065,0.00514
1889.21627,0.00517
1888.25189,0.00514
1887.28751,0.00511
1886.32313,0.00507
1885.35876,0.00502
1884.39438,0.00497
1883.43000,0.00491
1882.46562,0.00492
1881.50124,0.00495
1880.53687,0.00494
1879.57249,0.00493
1878.60811,0.00491
1877.64373,0.00484
1876.67935,0.00480
1875.71498,0.00483
1874.75060,0.00485
1873.78622,0.00483
1872.82184,0.00475
1871.85747,0.00471
1870.89309,0.00474
1869.92871,0.00476
1868.96433,0.00473
1867.99995,0.00473
1867.03558,0.00475
1866.07120,0.00480
1865.10682,0.00487
1864.14244,0.00493
1863.17806,0.00493
1862.21369,0.00492
1861.24931,0.00494
1860.28493,0.00503
1859.32055,0.00514
1858.35618,0.00517
1857.39180,0.00516
1856.42742,0.00514
1855.46304,0.00510
1854.49866,0.00507
1853.53429,0.00503
1852.56991,0.00495
1851.60553,0.00484
1850.64115,0.00479
1849.67677,0.00480
1848.71240,0.00484
1847.74802,0.00488
1846.78364,0.00493
1845.81926,0.00502
1844.85488,0.00508
1843.89051,0.00510
1842.92613,0.00512
1841.96175,0.00517
1840.99737,0.00525
1840.03300,0.00530
1839.06862,0.00532
1838.10424,0.00532
1837.13986,0.00531
1836.17548,0.00532
1835.21111,0.00533
1834.24673,0.00533
1833.28235,0.00530
1832.31797,0.00522
1831.35359,0.00520
1830.38922,0.00524
1829.42484,0.00531
1828.46046,0.00538
1827.49608,0.00545
1826.53171,0.00555
1825.56733,0.00563
1824.60295,0.00572
1823.63857,0.00579
1822.67419,0.00580
1821.70982,0.00579
1820.74544,0.00576
1819.78106,0.00575
1818.81668,0.00575
1817.85230,0.00576
1816.88793,0.00579
1815.92355,0.00583
1814.95917,0.00587
1813.99479,0.00590
1813.03041,0.00595
1812.06604,0.00601
1811.10166,0.00605
1810.13728,0.00609
1809.17290,0.00611
1808.20853,0.00614
1807.24415,0.00618
1806.27977,0.00620
1805.31539,0.00621
1804.35101,0.00619
1803.38664,0.00618
1802.42226,0.00618
1801.45788,0.00619
1800.49350,0.00621
1799.52912,0.00621
1798.56475,0.00622
1797.60037,0.00624
1796.63599,0.00626
1795.67161,0.00627
1794.70724,0.00627
1793.74286,0.00626
1792.77848,0.00626
1791.81410,0.00627
1790.84972,0.00630
1789.88535,0.00634
1788.92097,0.00638
1787.95659,0.00643
1786.99221,0.00650
1786.02783,0.00655
1785.06346,0.00657
1784.09908,0.00659
1783.13470,0.00661
1782.17032,0.00664
1781.20594,0.00667
1780.24157,0.00674
1779.27719,0.00683
1778.31281,0.00693
1777.34843,0.00703
1776.38406,0.00715
1775.41968,0.00725
1774.45530,0.00732
1773.49092,0.00738
1772.52654,0.00746
1771.56217,0.00755
1770.59779,0.00765
1769.63341,0.00774
1768.66903,0.00784
1767.70465,0.00794
1766.74028,0.00805
1765.77590,0.00815
1764.81152,0.00828
1763.84714,0.00839
1762.88276,0.00850
1761.91839,0.00861
1760.95401,0.00874
1759.98963,0.00886
1759.02525,0.00898
1758.06088,0.00910
1757.09650,0.00924
1756.13212,0.00937
1755.16774,0.00949
1754.20336,0.00962
1753.23899,0.00978
1752.27461,0.00994
1751.31023,0.01010
1750.34585,0.01024
1749.38147,0.01037
1748.41710,0.01051
1747.45272,0.01066
1746.48834,0.01083
1745.52396,0.01100
1744.55959,0.01115
1743.59521,0.01128
1742.63083,0.01142
1741.66645,0.01158
1740.70207,0.01173
1739.73770,0.01184
1738.77332,0.01193
1737.80894,0.01201
1736.84456,0.01209
1735.88018,0.01216
1734.91581,0.01223
1733.95143,0.01228
1732.98705,0.01232
1732.02267,0.01236
1731.05829,0.01243
1730.09392,0.01249
1729.12954,0.01254
1728.16516,0.01260
1727.20078,0.01265
1726.23641,0.01271
1725.27203,0.01278
1724.30765,0.01284
1723.34327,0.01287
1722.37889,0.01288
1721.41452,0.01290
1720.45014,0.01292
1719.48576,0.01293
1718.52138,0.01294
1717.55700,0.01293
1716.59263,0.01291
1715.62825,0.01288
1714.66387,0.01287
1713.69949,0.01285
1712.73512,0.01283
1711.77074,0.01280
1710.80636,0.01276
1709.84198,0.01273
1708.87760,0.01269
1707.91323,0.01269
1706.94885,0.01269
1705.98447,0.01269
1705.02009,0.01266
1704.05571,0.01266
1703.09134,0.01270
1702.12696,0.01277
1701.16258,0.01284
1700.19820,0.01289
1699.23382,0.01293
1698.26945,0.01295
1697.30507,0.01295
1696.34069,0.01298
1695.37631,0.01304
1694.41194,0.01308
1693.44756,0.01312
1692.48318,0.01321
1691.51880,0.01334
1690.55442,0.01348
1689.59005,0.01363
1688.62567,0.01377
1687.66129,0.01392
1686.69691,0.01411
1685.73253,0.01433
1684.76816,0.01460
1683.80378,0.01492
1682.83940,0.01527
1681.87502,0.01564
1680.91065,0.01604
1679.94627,0.01647
1678.98189,0.01690
1678.01751,0.01737
1677.05313,0.01787
1676.08876,0.01842
1675.12438,0.01901
1674.16000,0.01961
1673.19562,0.02022
1672.23124,0.02085
1671.26687,0.02151
1670.30249,0.02218
1669.33811,0.02286
1668.37373,0.02355
1667.40935,0.02426
1666.44498,0.02499
1665.48060,0.02575
1664.51622,0.02655
1663.55184,0.02736
1662.58747,0.02818
1661.62309,0.02902
1660.65871,0.02988
1659.69433,0.03076
1658.72995,0.03164
1657.76558,0.03253
1656.80120,0.03338
1655.83682,0.03422
1654.87244,0.03506
1653.90806,0.03589
1652.94369,0.03674
1651.97931,0.03759
1651.01493,0.03844
1650.05055,0.03928
1649.08618,0.04010
1648.12180,0.04092
1647.15742,0.04173
1646.19304,0.04251
1645.22866,0.04328
1644.26429,0.04404
1643.29991,0.04479
1642.33553,0.04552
1641.37115,0.04625
1640.40677,0.04693
1639.44240,0.04757
1638.47802,0.04816
1637.51364,0.04874
1636.54926,0.04926
1635.58488,0.04974
1634.62051,0.05017
1633.65613,0.05056
1632.69175,0.05090
1631.72737,0.05120
1630.76300,0.05145
1629.79862,0.05162
1628.83424,0.05173
1627.86986,0.05176
1626.90548,0.05173
1625.94111,0.05163
1624.97673,0.05145
1624.01235,0.05120
1623.04797,0.05090
1622.08359,0.05055
1621.11922,0.05010
1620.15484,0.04957
1619.19046,0.04898
1618.22608,0.04833
1617.26171,0.04761
1616.29733,0.04681
1615.33295,0.04597
1614.36857,0.04510
1613.40419,0.04420
1612.43982,0.04331
1611.47544,0.04241
1610.51106,0.04149
1609.54668,0.04054
1608.58230,0.03960
1607.61793,0.03870
1606.65355,0.03782
1605.68917,0.03696
1604.72479,0.03612
1603.76041,0.03532
1602.79604,0.03455
1601.83166,0.03383
1600.86728,0.03314
1599.90290,0.03249
1598.93853,0.03186
1597.97415,0.03127
1597.00977,0.03070
1596.04539,0.03015
1595.08101,0.02964
1594.11664,0.02914
1593.15226,0.02865
1592.18788,0.02816
1591.22350,0.02765
1590.25912,0.02716
1589.29475,0.02668
1588.33037,0.02621
1587.36599,0.02574
1586.40161,0.02524
1585.43724,0.02473
1584.47286,0.02422
1583.50848,0.02372
1582.54410,0.02324
1581.57972,0.02274
1580.61535,0.02223
1579.65097,0.02173
1578.68659,0.02128
1577.72221,0.02084
1576.75783,0.02042
1575.79346,0.01999
1574.82908,0.01957
1573.86470,0.01915
1572.90032,0.01874
1571.93594,0.01835
1570.97157,0.01797
1570.00719,0.01759
1569.04281,0.01722
1568.07843,0.01688
1567.11406,0.01658
1566.14968,0.01630
1565.18530,0.01603
1564.22092,0.01578
1563.25654,0.01551
1562.29217,0.01524
1561.32779,0.01498
1560.36341,0.01474
1559.39903,0.01453
1558.43465,0.01433
1557.47028,0.01413
1556.50590,0.01393
1555.54152,0.01375
1554.57714,0.01357
1553.61276,0.01340
1552.64839,0.01322
1551.68401,0.01302
1550.71963,0.01284
1549.75525,0.01268
1548.79088,0.01255
1547.82650,0.01243
1546.86212,0.01232
1545.89774,0.01221
1544.93336,0.01211
1543.96899,0.01200
1543.00461,0.01188
1542.04023,0.01177
1541.07585,0.01166
1540.11147,0.01154
1539.14710,0.01143
1538.18272,0.01134
1537.21834,0.01124
1536.25396,0.01115
1535.28959,0.01108
1534.32521,0.01101
1533.36083,0.01093
1532.39645,0.01084
1531.43207,0.01074
1530.46770,0.01066
1529.50332,0.01059
1528.53894,0.01053
1527.57456,0.01048
1526.61018,0.01043
1525.64581,0.01037
1524.68143,0.01032
1523.71705,0.01028
1522.75267,0.01026
1521.78829,0.01023
1520.82392,0.01019
1519.85954,0.01015
1518.89516,0.01013
1517.93078,0.01014
1516.96641,0.01015
1516.00203,0.01015
1515.03765,0.01014
1514.07327,0.01012
1513.10889,0.01012
1512.14452,0.01013
1511.18014,0.01012
1510.21576,0.01010
1509.25138,0.01008
1508.28700,0.01006
1507.32263,0.01006
1506.35825,0.01006
1505.39387,0.01007
1504.42949,0.01007
1503.46512,0.01009
1502.50074,0.01012
1501.53636,0.01016
1500.57198,0.01019
1499.60760,0.01021
1498.64323,0.01023
1497.67885,0.01024
1496.71447,0.01024
1495.75009,0.01023
1494.78571,0.01023
1493.82134,0.01025
1492.85696,0.01028
1491.89258,0.01033
1490.92820,0.01041
1489.96382,0.01049
1488.99945,0.01058
1488.03507,0.01067
1487.07069,0.01076
1486.10631,0.01083
1485.14194,0.01090
1484.17756,0.01097
1483.21318,0.01106
1482.24880,0.01116
1481.28442,0.01127
1480.32005,0.01140
1479.35567,0.01155
1478.39129,0.01172
1477.42691,0.01189
1476.46253,0.01206
1475.49816,0.01223
1474.53378,0.01240
1473.56940,0.01258
1472.60502,0.01276
1471.64065,0.01296
1470.67627,0.01314
1469.71189,0.01333
1468.74751,0.01351
1467.78313,0.01370
1466.81876,0.01389
1465.85438,0.01409
1464.89000,0.01428
1463.92562,0.01446
1462.96124,0.01464
1461.99687,0.01483
1461.03249,0.01502
1460.06811,0.01520
1459.10373,0.01538
1458.13935,0.01554
1457.17498,0.01571
1456.21060,0.01587
1455.24622,0.01606
1454.28184,0.01625
1453.31747,0.01643
1452.35309,0.01661
1451.38871,0.01679
1450.42433,0.01700
1449.45995,0.01721
1448.49558,0.01743
1447.53120,0.01767
1446.56682,0.01790
1445.60244,0.01814
1444.63806,0.01838
1443.67369,0.01863
1442.70931,0.01889
1441.74493,0.01915
1440.78055,0.01943
1439.81618,0.01972
1438.85180,0.02000
1437.88742,0.02028
1436.92304,0.02055
1435.95866,0.02081
1434.99429,0.02103
1434.02991,0.02123
1433.06553,0.02139
1432.10115,0.02154
1431.13677,0.02169
1430.17240,0.02187
1429.20802,0.02208
1428.24364,0.02232
1427.27926,0.02259
1426.31488,0.02292
1425.35051,0.02331
1424.38613,0.02376
1423.42175,0.02427
1422.45737,0.02484
1421.49300,0.02546
1420.52862,0.02610
1419.56424,0.02679
1418.59986,0.02754
1417.63548,0.02830
1416.67111,0.02908
1415.70673,0.02985
1414.74235,0.03062
1413.77797,0.03138
1412.81359,0.03211
1411.84922,0.03280
1410.88484,0.03343
1409.92046,0.03401
1408.95608,0.03454
1407.99171,0.03503
1407.02733,0.03547
1406.06295,0.03583
1405.09857,0.03613
1404.13419,0.03638
1403.16982,0.03659
1402.20544,0.03673
1401.24106,0.03680
1400.27668,0.03679
1399.31230,0.03674
1398.34793,0.03663
1397.38355,0.03648
1396.41917,0.03630
1395.45479,0.03606
1394.49041,0.03577
1393.52604,0.03544
1392.56166,0.03508
1391.59728,0.03469
1390.63290,0.03427
1389.66853,0.03383
1388.70415,0.03339
1387.73977,0.03295
1386.77539,0.03251
1385.81101,0.03210
1384.84664,0.03170
1383.88226,0.03132
1382.91788,0.03094
1381.95350,0.03057
1380.98912,0.03021
1380.02475,0.02989
1379.06037,0.02960
1378.09599,0.02935
1377.13161,0.02911
1376.16724,0.02889
1375.20286,0.02869
1374.23848,0.02853
1373.27410,0.02840
1372.30972,0.02828
1371.34535,0.02817
1370.38097,0.02808
1369.41659,0.02802
1368.45221,0.02800
1367.48783,0.02801
1366.52346,0.02803
1365.55908,0.02806
1364.59470,0.02811
1363.63032,0.02817
1362.66594,0.02823
1361.70157,0.02827
1360.73719,0.02828
1359.77281,0.02827
1358.80843,0.02822
1357.84406,0.02814
1356.87968,0.02802
1355.91530,0.02788
1354.95092,0.02770
1353.98654,0.02748
1353.02217,0.02723
1352.05779,0.02697
1351.09341,0.02671
1350.12903,0.02642
1349.16465,0.02613
1348.20028,0.02582
1347.23590,0.02556
1346.27152,0.02536
1345.30714,0.02517
1344.34276,0.02496
1343.37839,0.02473
1342.41401,0.02454
1341.44963,0.02440
1340.48525,0.02427
1339.52088,0.02412
1338.55650,0.02393
1337.59212,0.02377
1336.62774,0.02366
1335.66336,0.02361
1334.69899,0.02358
1333.73461,0.02350
1332.77023,0.02343
1331.80585,0.02342
1330.84147,0.02346
1329.87710,0.02349
1328.91272,0.02346
1327.94834,0.02339
1326.98396,0.02332
1326.01959,0.02328
1325.05521,0.02322
1324.09083,0.02312
1323.12645,0.02299
1322.16207,0.02284
1321.19770,0.02271
1320.23332,0.02258
1319.26894,0.02242
1318.30456,0.02224
1317.34018,0.02203
1316.37581,0.02182
1315.41143,0.02163
1314.44705,0.02145
1313.48267,0.02124
1312.51829,0.02099
1311.55392,0.02075
1310.58954,0.02065
1309.62516,0.02062
1308.66078,0.02061
1307.69641,0.02060
1306.73203,0.02058
1305.76765,0.02052
1304.80327,0.02041
1303.83889,0.02024
1302.87452,0.02001
1301.91014,0.01969
1300.94576,0.01932
1299.98138,0.01903
1299.01700,0.01889
1298.05263,0.01879
1297.08825,0.01870
1296.12387,0.01864
1295.15949,0.01856
1294.19512,0.01848
1293.23074,0.01841
1292.26636,0.01833
1291.30198,0.01826
1290.33760,0.01818
1289.37323,0.01808
1288.40885,0.01802
1287.44447,0.01800
1286.48009,0.01798
1285.51571,0.01797
1284.55134,0.01792
1283.58696,0.01786
1282.62258,0.01779
1281.65820,0.01775
1280.69382,0.01772
1279.72945,0.01768
1278.76507,0.01763
1277.80069,0.01755
1276.83631,0.01748
1275.87194,0.01743
1274.90756,0.01739
1273.94318,0.01734
1272.97880,0.01728
1272.01442,0.01722
1271.05005,0.01719
1270.08567,0.01717
1269.12129,0.01715
1268.15691,0.01713
1267.19253,0.01712
1266.22816,0.01709
1265.26378,0.01706
1264.29940,0.01704
1263.33502,0.01700
1262.37065,0.01696
1261.40627,0.01693
1260.44189,0.01689
1259.47751,0.01684
1258.51313,0.01682
1257.54876,0.01681
1256.58438,0.01683
1255.62000,0.01687
1254.65562,0.01689
1253.69124,0.01691
1252.72687,0.01695
1251.76249,0.01699
1250.79811,0.01701
1249.83373,0.01703
1248.86935,0.01702
1247.90498,0.01702
1246.94060,0.01703
1245.97622,0.01703
1245.01184,0.01703
1244.04747,0.01701
1243.08309,0.01699
1242.11871,0.01698
1241.15433,0.01700
1240.18995,0.01702
1239.22558,0.01704
1238.26120,0.01706
1237.29682,0.01707
1236.33244,0.01708
1235.36806,0.01708
1234.40369,0.01708
1233.43931,0.01708
1232.47493,0.01708
1231.51055,0.01709
1230.54618,0.01711
1229.58180,0.01713
1228.61742,0.01715
1227.65304,0.01716
1226.68866,0.01718
1225.72429,0.01719
1224.75991,0.01717
1223.79553,0.01715
1222.83115,0.01714
1221.86677,0.01713
1220.90240,0.01712
1219.93802,0.01709
1218.97364,0.01707
1218.00926,0.01706
1217.04488,0.01704
1216.08051,0.01703
1215.11613,0.01702
1214.15175,0.01701
1213.18737,0.01700
1212.22300,0.01699
1211.25862,0.01700
1210.29424,0.01700
1209.32986,0.01698
1208.36548,0.01693
1207.40111,0.01686
1206.43673,0.01680
1205.47235,0.01671
1204.50797,0.01659
1203.54359,0.01645
1202.57922,0.01631
1201.61484,0.01616
1200.65046,0.01602
1199.68608,0.01589
1198.72171,0.01576
1197.75733,0.01566
1196.79295,0.01556
1195.82857,0.01549
1194.86419,0.01542
1193.89982,0.01535
1192.93544,0.01527
1191.97106,0.01518
1191.00668,0.01508
1190.04230,0.01496
1189.07793,0.01484
1188.11355,0.01475
1187.14917,0.01466
1186.18479,0.01457
1185.22041,0.01449
1184.25604,0.01442
1183.29166,0.01436
1182.32728,0.01432
1181.36290,0.01429
1180.39853,0.01424
1179.43415,0.01419
1178.46977,0.01415
1177.50539,0.01411
1176.54101,0.01408
1175.57664,0.01404
1174.61226,0.01398
1173.64788,0.01392
1172.68350,0.01388
1171.71912,0.01386
1170.75475,0.01385
1169.79037,0.01385
1168.82599,0.01383
1167.86161,0.01380
1166.89724,0.01377
1165.93286,0.01375
1164.96848,0.01371
1164.00410,0.01366
1163.03972,0.01362
1162.07535,0.01357
1161.11097,0.01355
1160.14659,0.01353
1159.18221,0.01352
1158.21783,0.01351
1157.25346,0.01347
1156.28908,0.01342
1155.32470,0.01338
1154.36032,0.01336
1153.39594,0.01332
1152.43157,0.01330
1151.46719,0.01328
1150.50281,0.01327
1149.53843,0.01328
1148.57406,0.01330
1147.60968,0.01332
1146.64530,0.01332
1145.68092,0.01331
1144.71654,0.01329
1143.75217,0.01326
1142.78779,0.01324
1141.82341,0.01325
1140.85903,0.01327
1139.89465,0.01329
1138.93028,0.01330
1137.96590,0.01329
1137.00152,0.01328
1136.03714,0.01328
1135.07276,0.01326
1134.10839,0.01325
1133.14401,0.01327
1132.17963,0.01331
1131.21525,0.01336
1130.25088,0.01340
1129.28650,0.01344
1128.32212,0.01347
1127.35774,0.01347
1126.39336,0.01346
1125.42899,0.01345
1124.46461,0.01346
1123.50023,0.01348
1122.53585,0.01352
1121.57147,0.01357
1120.60710,0.01360
1119.64272,0.01361
1118.67834,0.01362
1117.71396,0.01363
1116.74959,0.01364
1115.78521,0.01363
1114.82083,0.01362
1113.85645,0.01361
1112.89207,0.01358
1111.92770,0.01358
1110.96332,0.01359
1109.99894,0.01357
1109.03456,0.01355
1108.07018,0.01356
1107.10581,0.01360
1106.14143,0.01364
1105.17705,0.01370
1104.21267,0.01377
1103.24829,0.01385
1102.28392,0.01391
1101.31954,0.01397
1100.35516,0.01406
1099.39078,0.01414
1098.42641,0.01421
1097.46203,0.01428
1096.49765,0.01435
1095.53327,0.01439
1094.56889,0.01443
1093.60452,0.01448
1092.64014,0.01453
1091.67576,0.01456
1090.71138,0.01459
1089.74700,0.01461
1088.78263,0.01464
1087.81825,0.01468
1086.85387,0.01472
1085.88949,0.01475
1084.92512,0.01475
1083.96074,0.01475
1082.99636,0.01472
1082.03198,0.01470
1081.06760,0.01469
1080.10323,0.01466
1079.13885,0.01464
1078.17447,0.01464
1077.21009,0.01466
1076.24571,0.01469
1075.28134,0.01470
1074.31696,0.01470
1073.35258,0.01468
1072.38820,0.01463
1071.42382,0.01455
1070.45945,0.01446
1069.49507,0.01437
1068.53069,0.01429
1067.56631,0.01421
1066.60194,0.01416
1065.63756,0.01412
1064.67318,0.01405
1063.70880,0.01401
1062.74442,0.01396
1061.78005,0.01391
1060.81567,0.01384
1059.85129,0.01377
1058.88691,0.01370
1057.92253,0.01365
1056.95816,0.01360
1055.99378,0.01354
1055.02940,0.01348
1054.06502,0.01340
1053.10065,0.01330
1052.13627,0.01319
1051.17189,0.01307
1050.20751,0.01295
1049.24313,0.01283
1048.27876,0.01273
1047.31438,0.01264
1046.35000,0.01257
1045.38562,0.01250
1044.42124,0.01243
1043.45687,0.01237
1042.49249,0.01229
1041.52811,0.01217
1040.56373,0.01206
1039.59935,0.01196
1038.63498,0.01187
1037.67060,0.01178
1036.70622,0.01168
1035.74184,0.01159
1034.77747,0.01152
1033.81309,0.01147
1032.84871,0.01143
1031.88433,0.01139
1030.91995,0.01133
1029.95558,0.01125
1028.99120,0.01118
1028.02682,0.01114
1027.06244,0.01109
1026.09806,0.01103
1025.13369,0.01097
1024.16931,0.01093
1023.20493,0.01090
1022.24055,0.01088
1021.27618,0.01087
1020.31180,0.01083
1019.34742,0.01079
1018.38304,0.01075
1017.41866,0.01072
1016.45429,0.01068
1015.48991,0.01064
1014.52553,0.01061
1013.56115,0.01061
1012.59677,0.01060
1011.63240,0.01057
1010.66802,0.01055
1009.70364,0.01054
1008.73926,0.01054
1007.77488,0.01056
1006.81051,0.01059
1005.84613,0.01062
1004.88175,0.01065
1003.91737,0.01069
1002.95300,0.01071
1001.98862,0.01072
1001.02424,0.01071
1000.05986,0.01069
999.09548,0.01069
998.13111,0.01072
997.16673,0.01078
996.20235,0.01084
995.23797,0.01089
994.27359,0.01093
993.30922,0.01096
992.34484,0.01096
991.38046,0.01093
990.41608,0.01089
989.45171,0.01086
988.48733,0.01086
987.52295,0.01091
986.55857,0.01097
985.59419,0.01105
984.62982,0.01113
983.66544,0.01120
982.70106,0.01125
981.73668,0.01128
980.77230,0.01128
979.80793,0.01127
978.84355,0.01127
977.87917,0.01127
976.91479,0.01130
975.95041,0.01134
974.98604,0.01139
974.02166,0.01142
973.05728,0.01142
972.09290,0.01140
971.12853,0.01139
970.16415,0.01137
969.19977,0.01132
968.23539,0.01131
967.27101,0.01134
966.30664,0.01140
965.34226,0.01149
964.37788,0.01157
963.41350,0.01164
962.44912,0.01166
961.48475,0.01165
960.52037,0.01166
959.55599,0.01169
958.59161,0.01170
957.62724,0.01169
956.66286,0.01170
955.69848,0.01174
954.73410,0.01178
953.76972,0.01176
952.80535,0.01170
951.84097,0.01164
950.87659,0.01156
949.91221,0.01150
948.94783,0.01147
947.98346,0.01142
947.01908,0.01138
946.05470,0.01134
945.09032,0.01130
944.12594,0.01129
943.16157,0.01126
942.19719,0.01121
941.23281,0.01115
940.26843,0.01110
939.30406,0.01106
938.33968,0.01104
937.37530,0.01101
936.41092,0.01097
935.44654,0.01096
934.48217,0.01100
933.51779,0.01109
932.55341,0.01121
931.58903,0.01137
930.62465,0.01153
929.66028,0.01174
928.69590,0.01199
927.73152,0.01223
926.76714,0.01244
925.80276,0.01263
924.83839,0.01277
923.87401,0.01293
922.90963,0.01312
921.94525,0.01332
920.98088,0.01348
920.01650,0.01360
919.05212,0.01370
918.08774,0.01380
917.12336,0.01390
916.15899,0.01394
915.19461,0.01398
914.23023,0.01399
913.26585,0.01395
912.30147,0.01390
911.33710,0.01382
910.37272,0.01369
909.40834,0.01352
908.44396,0.01333
907.47959,0.01310
906.51521,0.01279
905.55083,0.01250
904.58645,0.01222
903.62207,0.01195
902.65770,0.01168
901.69332,0.01141
900.72894,0.01113
899.76456,0.01086
898.80018,0.01066
897.83581,0.01054
896.87143,0.01044
895.90705,0.01031
894.94267,0.01016
893.97829,0.01007
893.01392,0.01001
892.04954,0.00993
891.08516,0.00983
890.12078,0.00972
889.15641,0.00961
888.19203,0.00953
887.22765,0.00952
886.26327,0.00949
885.29889,0.00942
884.33452,0.00936
883.37014,0.00931
882.40576,0.00929
881.44138,0.00930
880.47700,0.00930
879.51263,0.00928
878.54825,0.00929
877.58387,0.00931
876.61949,0.00931
875.65512,0.00932
874.69074,0.00932
873.72636,0.00930
872.76198,0.00927
871.79760,0.00926
870.83323,0.00928
869.86885,0.00932
868.90447,0.00940
867.94009,0.00948
866.97571,0.00958
866.01134,0.00966
865.04696,0.00968
864.08258,0.00969
863.11820,0.00973
862.15382,0.00973
861.18945,0.00972
860.22507,0.00971
859.26069,0.00971
858.29631,0.00970
857.33194,0.00969
856.36756,0.00966
855.40318,0.00966
854.43880,0.00969
853.47442,0.00969
852.51005,0.00972
851.54567,0.00977
850.58129,0.00979
849.61691,0.00979
848.65253,0.00980
847.68816,0.00981
846.72378,0.00979
845.75940,0.00976
844.79502,0.00974
843.83065,0.00974
842.86627,0.00975
841.90189,0.00972
840.93751,0.00970
839.97313,0.00968
839.00876,0.00965
838.04438,0.00961
837.08000,0.00958
836.11562,0.00954
835.15124,0.00950
834.18687,0.00950
833.22249,0.00951
832.25811,0.00951
831.29373,0.00950
830.32935,0.00948
829.36498,0.00946
828.40060,0.00944
827.43622,0.00942
826.47184,0.00940
825.50747,0.00938
824.54309,0.00939
823.57871,0.00943
822.61433,0.00946
821.64995,0.00949
820.68558,0.00953
819.72120,0.00958
818.75682,0.00961
817.79244,0.00966
816.82806,0.00970
815.86369,0.00974
814.89931,0.00979
813.93493,0.00986
812.97055,0.00993
812.00618,0.00997
811.04180,0.01000
810.07742,0.01004
809.11304,0.01009
808.14866,0.01010
807.18429,0.01010
806.21991,0.01009
805.25553,0.01004
804.29115,0.01001
803.32677,0.00998
802.36240,0.00992
801.39802,0.00987
800.43364,0.00982
799.46926,0.00981
798.50488,0.00982
797.54051,0.00986
796.57613,0.00989
795.61175,0.00993
794.64737,0.00997
793.68300,0.00999
792.71862,0.00999
791.75424,0.00996
790.78986,0.00992
789.82548,0.00986
788.86111,0.00980
787.89673,0.00974
786.93235,0.00968
785.96797,0.00963
785.00359,0.00956
784.03922,0.00949
783.07484,0.00943
782.11046,0.00939
781.14608,0.00939
780.18171,0.00943
779.21733,0.00949
778.25295,0.00956
777.28857,0.00959
776.32419,0.00958
775.35982,0.00956
774.39544,0.00952
773.43106,0.00945
772.46668,0.00940
771.50230,0.00936
770.53793,0.00937
769.57355,0.00943
768.60917,0.00951
767.64479,0.00957
766.68041,0.00961
765.71604,0.00964
764.75166,0.00970
763.78728,0.00979
762.82290,0.00985
761.85853,0.00986
760.89415,0.00983
759.92977,0.00980
758.96539,0.00980
758.00101,0.00983
757.03664,0.00983
756.07226,0.00984
755.10788,0.00992
754.14350,0.01003
753.17912,0.01015
752.21475,0.01025
751.25037,0.01028
750.28599,0.01025
749.32161,0.01023
748.35724,0.01022
747.39286,0.01020
746.42848,0.01017
745.46410,0.01015
744.49972,0.01015
743.53535,0.01024
742.57097,0.01034
741.60659,0.01041
740.64221,0.01045
739.67783,0.01047
738.71346,0.01051
737.74908,0.01060
736.78470,0.01067
735.82032,0.01070
734.85594,0.01072
733.89157,0.01074
732.92719,0.01075
731.96281,0.01079
730.99843,0.01085
730.03406,0.01091
729.06968,0.01094
728.10530,0.01097
727.14092,0.01106
726.17654,0.01117
725.21217,0.01123
724.24779,0.01127
723.28341,0.01132
722.31903,0.01138
721.35465,0.01146
720.39028,0.01155
719.42590,0.01165
718.46152,0.01175
717.49714,0.01181
716.53276,0.01187
715.56839,0.01193
714.60401,0.01200
713.63963,0.01204
712.67525,0.01209
711.71088,0.01216
710.74650,0.01224
709.78212,0.01231
708.81774,0.01239
707.85336,0.01245
706.88899,0.01250
705.92461,0.01254
704.96023,0.01259
703.99585,0.01263
703.03147,0.01265
702.06710,0.01267
701.10272,0.01268
700.13834,0.01266
699.17396,0.01261
698.20959,0.01258
697.24521,0.01259
696.28083,0.01262
695.31645,0.01266
694.35207,0.01270
693.38770,0.01275
692.42332,0.01276
691.45894,0.01271
690.49456,0.01264
689.53018,0.01258
688.56581,0.01251
687.60143,0.01241
686.63705,0.01230
685.67267,0.01222
684.70829,0.01216
683.74392,0.01210
682.77954,0.01201
681.81516,0.01194
680.85078,0.01183
679.88641,0.01168
678.92203,0.01159
677.95765,0.01152
676.99327,0.01142
676.02889,0.01129
675.06452,0.01113
674.10014,0.01096
673.13576,0.01099
672.17138,0.01125
671.20700,0.01156
670.24263,0.01179
669.27825,0.01189
668.31387,0.01193
667.34949,0.01194
666.38512,0.01184
665.42074,0.01165
664.45636,0.01143
663.49198,0.01116
662.52760,0.01094
661.56323,0.01099
660.59885,0.01121
659.63447,0.01137
658.67009,0.01146
657.70571,0.01153
656.74134,0.01160
655.77696,0.01164
654.81258,0.01163
653.84820,0.01164
652.88382,0.01165
651.91945,0.01163
650.95507,0.01162
649.99069,0.01166
649.02631,0.01173
648.06194,0.01178
647.09756,0.01183
646.13318,0.01188
645.16880,0.01191
644.20442,0.01192
643.24005,0.01193
642.27567,0.01199
641.31129,0.01205
640.34691,0.01207
639.38253,0.01208
638.41816,0.01209
637.45378,0.01207
636.48940,0.01205
635.52502,0.01199
634.56065,0.01189
633.59627,0.01173
632.63189,0.01164
631.66751,0.01168
630.70313,0.01182
629.73876,0.01223
628.77438,0.01271
627.81000,0.01285
626.84562,0.01331
625.88124,0.01448
624.91687,0.01594
623.95249,0.01672
622.98811,0.01646
622.02373,0.01540
621.05935,0.01409
620.09498,0.01329
619.13060,0.01273
618.16622,0.01209
617.20184,0.01116
616.23747,0.00994
615.27309,0.00959
614.30871,0.01045
613.34433,0.01166
612.37995,0.01201
611.41558,0.01163
610.45120,0.01098
609.48682,0.01052
608.52244,0.01094
607.55806,0.01140
606.59369,0.01126
605.62931,0.01101
604.66493,0.01089
603.70055,0.01107
602.73618,0.01164
601.77180,0.01207
600.80742,0.01204
599.84304,0.01192
598.87866,0.01180
597.91429,0.01182
596.94991,0.01211
595.98553,0.01224
595.02115,0.01216
594.05677,0.01232
593.09240,0.01262
592.12802,0.01275
591.16364,0.01271
590.19926,0.01254
589.23488,0.01243
588.27051,0.01249
587.30613,0.01261
586.34175,0.01271
585.37737,0.01265
584.41300,0.01251
583.44862,0.01243
582.48424,0.01239
581.51986,0.01240
580.55548,0.01238
579.59111,0.01230
578.62673,0.01225
577.66235,0.01225
576.69797,0.01228
575.73359,0.01222
574.76922,0.01216
573.80484,0.01218
572.84046,0.01229
571.87608,0.01244
570.91171,0.01262
569.94733,0.01276
568.98295,0.01279
568.01857,0.01270
567.05419,0.01252
566.08982,0.01233
565.12544,0.01220
564.16106,0.01208
563.19668,0.01193
562.23230,0.01188
561.26793,0.01188
560.30355,0.01185
559.33917,0.01182
558.37479,0.01184
557.41041,0.01189
556.44604,0.01185
555.48166,0.01171
554.51728,0.01166
553.55290,0.01180
552.58853,0.01194
551.62415,0.01199
550.65977,0.01204
549.69539,0.01202
548.73101,0.01190
547.76664,0.01185
546.80226,0.01186
545.83788,0.01185
544.87350,0.01177
543.90912,0.01167
542.94475,0.01172
541.98037,0.01187
541.01599,0.01196
540.05161,0.01200
539.08724,0.01200
538.12286,0.01191
537.15848,0.01175
536.19410,0.01162
535.22972,0.01154
534.26535,0.01144
533.30097,0.01137
532.33659,0.01136
531.37221,0.01144
530.40783,0.01155
529.44346,0.01159
528.47908,0.01159
527.51470,0.01159
526.55032,0.01151
525.58594,0.01140
524.62157,0.01143
523.65719,0.01162
522.69281,0.01169
521.72843,0.01165
520.76406,0.01168
519.79968,0.01182
518.83530,0.01198
517.87092,0.01194
516.90654,0.01177
515.94217,0.01164
514.97779,0.01158
514.01341,0.01160
513.04903,0.01163
512.08465,0.01168
511.12028,0.01164
510.15590,0.01152
509.19152,0.01152
508.22714,0.01169
507.26276,0.01185
506.29839,0.01185
505.33401,0.01185
504.36963,0.01196
503.40525,0.01208
502.44088,0.01208
501.47650,0.01192
500.51212,0.01171
499.54774,0.01151
498.58336,0.01134
497.61899,0.01128
496.65461,0.01129
495.69023,0.01132
494.72585,0.01135
493.76147,0.01143
492.79710,0.01149
491.83272,0.01150
490.86834,0.01143
489.90396,0.01131
488.93959,0.01121
487.97521,0.01124
487.01083,0.01130
486.04645,0.01136
485.08207,0.01138
484.11770,0.01136
483.15332,0.01138
482.18894,0.01144
481.22456,0.01148
480.26018,0.01145
479.29581,0.01144
478.33143,0.01145
477.36705,0.01147
476.40267,0.01147
475.43829,0.01141
474.47392,0.01135
473.50954,0.01129
472.54516,0.01123
471.58078,0.01116
470.61641,0.01106
469.65203,0.01090
468.68765,0.01072
467.72327,0.01066
466.75889,0.01066
465.79452,0.01068
464.83014,0.01078
463.86576,0.01084
462.90138,0.01086
461.93700,0.01088
460.97263,0.01091
460.00825,0.01086
459.04387,0.01073
458.07949,0.01060
457.11512,0.01047
456.15074,0.01039
455.18636,0.01037
454.22198,0.01044
453.25760,0.01056
452.29323,0.01057
451.32885,0.01056
450.36447,0.01055
449.40009,0.01059
448.43571,0.01069
447.47134,0.01074
446.50696,0.01074
445.54258,0.01078
444.57820,0.01090
443.61382,0.01106
442.64945,0.01120
441.68507,0.01129
440.72069,0.01130
439.75631,0.01128
438.79194,0.01122
437.82756,0.01114
436.86318,0.01108
435.89880,0.01095
434.93442,0.01082
433.97005,0.01073
433.00567,0.01070
432.04129,0.01063
431.07691,0.01050
430.11253,0.01041
429.14816,0.01035
428.18378,0.01035
427.21940,0.01038
426.25502,0.01039
425.29065,0.01041
424.32627,0.01044
423.36189,0.01048
422.39751,0.01049
421.43313,0.01040
420.46876,0.01024
419.50438,0.01006
418.54000,0.00990
417.57562,0.00973
416.61124,0.00960
415.64687,0.00951
414.68249,0.00940
413.71811,0.00932
412.75373,0.00930
411.78935,0.00931
410.82498,0.00932
409.86060,0.00932
408.89622,0.00933
407.93184,0.00934
406.96747,0.00931
406.00309,0.00923
405.03871,0.00921
404.07433,0.00921
403.10995,0.00921
402.14558,0.00921
401.18120,0.00921
400.21682,0.00921
399.25244,0.00921
