3998.31069,0.05994
3997.34631,0.05994
3996.38194,0.05994
3995.41756,0.05994
3994.45318,0.05994
3993.48880,0.05994
3992.52442,0.05994
3991.56005,0.06001
3990.59567,0.05999
3989.63129,0.05995
3988.66691,0.05986
3987.70253,0.05978
3986.73816,0.05970
3985.77378,0.05968
3984.80940,0.05968
3983.84502,0.05967
3982.88065,0.05964
3981.91627,0.05965
3980.95189,0.05975
3979.98751,0.05983
3979.02313,0.05988
3978.05876,0.05992
3977.09438,0.05992
3976.13000,0.05992
3975.16562,0.05992
3974.20124,0.05990
3973.23687,0.05975
3972.27249,0.05952
3971.30811,0.05934
3970.34373,0.05918
3969.37935,0.05907
3968.41498,0.05900
3967.45060,0.05899
3966.48622,0.05907
3965.52184,0.05918
3964.55747,0.05926
3963.59309,0.05930
3962.62871,0.05927
3961.66433,0.05918
3960.69995,0.05910
3959.73558,0.05903
3958.77120,0.05897
3957.80682,0.05893
3956.84244,0.05888
3955.87806,0.05888
3954.91369,0.05892
3953.94931,0.05891
3952.98493,0.05891
3952.02055,0.05894
3951.05618,0.05900
3950.09180,0.05908
3949.12742,0.05917
3948.16304,0.05925
3947.19866,0.05933
3946.23429,0.05938
3945.26991,0.05939
3944.30553,0.05935
3943.34115,0.05927
3942.37677,0.05922
3941.41240,0.05917
3940.44802,0.05915
3939.48364,0.05921
3938.51926,0.05930
3937.55488,0.05933
3936.59051,0.05926
3935.62613,0.05916
3934.66175,0.05906
3933.69737,0.05892
3932.73300,0.05872
3931.76862,0.05855
3930.80424,0.05848
3929.83986,0.05847
3928.87548,0.05844
3927.91111,0.05840
3926.94673,0.05836
3925.98235,0.05833
3925.01797,0.05830
3924.05359,0.05830
3923.08922,0.05834
3922.12484,0.05838
3921.16046,0.05843
3920.19608,0.05850
3919.23171,0.05862
3918.26733,0.05873
3917.30295,0.05869
3916.33857,0.05856
3915.37419,0.05850
3914.40982,0.05846
3913.44544,0.05840
3912.48106,0.05834
3911.51668,0.05824
3910.55230,0.05811
3909.58793,0.05804
3908.62355,0.05799
3907.65917,0.05797
3906.69479,0.05799
3905.73041,0.05792
3904.76604,0.05784
3903.80166,0.05788
3902.83728,0.05797
3901.87290,0.05807
3900.90853,0.05815
3899.94415,0.05818
3898.97977,0.05821
3898.01539,0.05829
3897.05101,0.05835
3896.08664,0.05838
3895.12226,0.05837
3894.15788,0.05828
3893.19350,0.05816
3892.22912,0.05807
3891.26475,0.05805
3890.30037,0.05809
3889.33599,0.05813
3888.37161,0.05817
3887.40724,0.05815
3886.44286,0.05808
3885.47848,0.05809
3884.51410,0.05818
3883.54972,0.05827
3882.58535,0.05831
3881.62097,0.05828
3880.65659,0.05825
3879.69221,0.05830
3878.72783,0.05835
3877.76346,0.05832
3876.79908,0.05822
3875.83470,0.05802
3874.87032,0.05778
3873.90594,0.05765
3872.94157,0.05761
3871.97719,0.05756
3871.01281,0.05751
3870.04843,0.05749
3869.08406,0.05752
3868.11968,0.05757
3867.15530,0.05764
3866.19092,0.05771
3865.22654,0.05775
3864.26217,0.05770
3863.29779,0.05760
3862.33341,0.05752
3861.36903,0.05746
3860.40465,0.05737
3859.44028,0.05727
3858.47590,0.05713
3857.51152,0.05701
3856.54714,0.05696
3855.58276,0.05694
3854.61839,0.05697
3853.65401,0.05698
3852.68963,0.05697
3851.72525,0.05695
3850.76088,0.05692
3849.79650,0.05689
3848.83212,0.05686
3847.86774,0.05685
3846.90336,0.05682
3845.93899,0.05683
3844.97461,0.05687
3844.01023,0.05686
3843.04585,0.05693
3842.08147,0.05703
3841.11710,0.05712
3840.15272,0.05720
3839.18834,0.05724
3838.22396,0.05727
3837.25959,0.05724
3836.29521,0.05724
3835.33083,0.05723
3834.36645,0.05712
3833.40207,0.05695
3832.43770,0.05685
3831.47332,0.05679
3830.50894,0.05670
3829.54456,0.05660
3828.58018,0.05648
3827.61581,0.05635
3826.65143,0.05628
3825.68705,0.05630
3824.72267,0.05640
3823.75829,0.05646
3822.79392,0.05643
3821.82954,0.05641
3820.86516,0.05647
3819.90078,0.05653
3818.93641,0.05654
3817.97203,0.05651
3817.00765,0.05640
3816.04327,0.05629
3815.07889,0.05624
3814.11452,0.05621
3813.15014,0.05616
3812.18576,0.05614
3811.22138,0.05613
3810.25700,0.05613
3809.29263,0.05616
3808.32825,0.05618
3807.36387,0.05625
3806.39949,0.05637
3805.43512,0.05644
3804.47074,0.05644
3803.50636,0.05641
3802.54198,0.05634
3801.57760,0.05627
3800.61323,0.05622
3799.64885,0.05618
3798.68447,0.05612
3797.72009,0.05602
3796.75571,0.05595
3795.79134,0.05591
3794.82696,0.05585
3793.86258,0.05582
3792.89820,0.05582
3791.93382,0.05580
3790.96945,0.05577
3790.00507,0.05575
3789.04069,0.05573
3788.07631,0.05575
3787.11194,0.05580
3786.14756,0.05578
3785.18318,0.05573
3784.21880,0.05568
3783.25442,0.05566
3782.29005,0.05573
3781.32567,0.05578
3780.36129,0.05581
3779.39691,0.05585
3778.43253,0.05587
3777.46816,0.05581
3776.50378,0.05569
3775.53940,0.05554
3774.57502,0.05542
3773.61065,0.05540
3772.64627,0.05545
3771.68189,0.05550
3770.71751,0.05557
3769.75313,0.05559
3768.78876,0.05558
3767.82438,0.05553
3766.86000,0.05545
3765.89562,0.05535
3764.93124,0.05525
3763.96687,0.05519
3763.00249,0.05516
3762.03811,0.05518
3761.07373,0.05517
3760.10935,0.05514
3759.14498,0.05507
3758.18060,0.05497
3757.21622,0.05499
3756.25184,0.05502
3755.28747,0.05506
3754.32309,0.05521
3753.35871,0.05538
3752.39433,0.05545
3751.42995,0.05540
3750.46558,0.05531
3749.50120,0.05523
3748.53682,0.05508
3747.57244,0.05486
3746.60806,0.05473
3745.64369,0.05470
3744.67931,0.05468
3743.71493,0.05474
3742.75055,0.05481
3741.78618,0.05480
3740.82180,0.05474
3739.85742,0.05466
3738.89304,0.05464
3737.92866,0.05466
3736.96429,0.05465
3735.99991,0.05460
3735.03553,0.05452
3734.07115,0.05445
3733.10677,0.05441
3732.14240,0.05437
3731.17802,0.05430
3730.21364,0.05429
3729.24926,0.05431
3728.28488,0.05435
3727.32051,0.05451
3726.35613,0.05466
3725.39175,0.05478
3724.42737,0.05483
3723.46300,0.05479
3722.49862,0.05471
3721.53424,0.05468
3720.56986,0.05470
3719.60548,0.05467
3718.64111,0.05457
3717.67673,0.05444
3716.71235,0.05430
3715.74797,0.05419
3714.78359,0.05402
3713.81922,0.05382
3712.85484,0.05368
3711.89046,0.05363
3710.92608,0.05365
3709.96171,0.05365
3708.99733,0.05364
3708.03295,0.05365
3707.06857,0.05368
3706.10419,0.05377
3705.13982,0.05386
3704.17544,0.05398
3703.21106,0.05416
3702.24668,0.05432
3701.28230,0.05446
3700.31793,0.05457
3699.35355,0.05447
3698.38917,0.05416
3697.42479,0.05382
3696.46041,0.05366
3695.49604,0.05356
3694.53166,0.05345
3693.56728,0.05346
3692.60290,0.05351
3691.63853,0.05358
3690.67415,0.05362
3689.70977,0.05365
3688.74539,0.05366
3687.78101,0.05361
3686.81664,0.05359
3685.85226,0.05363
3684.88788,0.05372
3683.92350,0.05377
3682.95912,0.05378
3681.99475,0.05380
3681.03037,0.05376
3680.06599,0.05381
3679.10161,0.05396
3678.13724,0.05410
3677.17286,0.05426
3676.20848,0.05446
3675.24410,0.05468
3674.27972,0.05483
3673.31535,0.05494
3672.35097,0.05503
3671.38659,0.05505
3670.42221,0.05493
3669.45783,0.05480
3668.49346,0.05486
3667.52908,0.05492
3666.56470,0.05492
3665.60032,0.05496
3664.63594,0.05510
3663.67157,0.05532
3662.70719,0.05557
3661.74281,0.05585
3660.77843,0.05610
3659.81406,0.05628
3658.84968,0.05640
3657.88530,0.05653
3656.92092,0.05673
3655.95654,0.05694
3654.99217,0.05718
3654.02779,0.05747
3653.06341,0.05783
3652.09903,0.05824
3651.13465,0.05859
3650.17028,0.05884
3649.20590,0.05897
3648.24152,0.05901
3647.27714,0.05903
3646.31276,0.05910
3645.34839,0.05926
3644.38401,0.05944
3643.41963,0.05965
3642.45525,0.05991
3641.49088,0.06026
3640.52650,0.06064
3639.56212,0.06092
3638.59774,0.06111
3637.63336,0.06122
3636.66899,0.06130
3635.70461,0.06141
3634.74023,0.06162
3633.77585,0.06188
3632.81147,0.06207
3631.84710,0.06227
3630.88272,0.06250
3629.91834,0.06271
3628.95396,0.06284
3627.98959,0.06291
3627.02521,0.06303
3626.06083,0.06317
3625.09645,0.06326
3624.13207,0.06333
3623.16770,0.06345
3622.20332,0.06364
3621.23894,0.06381
3620.27456,0.06398
3619.31018,0.06415
3618.34581,0.06427
3617.38143,0.06440
3616.41705,0.06454
3615.45267,0.06467
3614.48829,0.06478
3613.52392,0.06493
3612.55954,0.06512
3611.59516,0.06535
3610.63078,0.06556
3609.66641,0.06569
3608.70203,0.06579
3607.73765,0.06586
3606.77327,0.06593
3605.80889,0.06597
3604.84452,0.06595
3603.88014,0.06593
3602.91576,0.06592
3601.95138,0.06595
3600.98700,0.06603
3600.02263,0.06605
3599.05825,0.06598
3598.09387,0.06592
3597.12949,0.06590
3596.16512,0.06594
3595.20074,0.06606
3594.23636,0.06619
3593.27198,0.06629
3592.30760,0.06646
3591.34323,0.06663
3590.37885,0.06676
3589.41447,0.06689
3588.45009,0.06696
3587.48571,0.06698
3586.52134,0.06698
3585.55696,0.06698
3584.59258,0.06698
3583.62820,0.06695
3582.66382,0.06687
3581.69945,0.06682
3580.73507,0.06687
3579.77069,0.06689
3578.80631,0.06686
3577.84194,0.06686
3576.87756,0.06686
3575.91318,0.06686
3574.94880,0.06681
3573.98442,0.06680
3573.02005,0.06683
3572.05567,0.06681
3571.09129,0.06682
3570.12691,0.06687
3569.16253,0.06694
3568.19816,0.06700
3567.23378,0.06704
3566.26940,0.06708
3565.30502,0.06713
3564.34065,0.06713
3563.37627,0.06712
3562.41189,0.06717
3561.44751,0.06723
3560.48313,0.06728
3559.51876,0.06734
3558.55438,0.06745
3557.59000,0.06761
3556.62562,0.06776
3555.66124,0.06783
3554.69687,0.06785
3553.73249,0.06788
3552.76811,0.06791
3551.80373,0.06793
3550.83935,0.06796
3549.87498,0.06801
3548.91060,0.06809
3547.94622,0.06822
3546.98184,0.06843
3546.01747,0.06861
3545.05309,0.06871
3544.08871,0.06873
3543.12433,0.06869
3542.15995,0.06869
3541.19558,0.06873
3540.23120,0.06880
3539.26682,0.06889
3538.30244,0.06896
3537.33806,0.06905
3536.37369,0.06924
3535.40931,0.06945
3534.44493,0.06961
3533.48055,0.06967
3532.51618,0.06972
3531.55180,0.06979
3530.58742,0.06988
3529.62304,0.07003
3528.65866,0.07017
3527.69429,0.07030
3526.72991,0.07043
3525.76553,0.07055
3524.80115,0.07069
3523.83677,0.07081
3522.87240,0.07086
3521.90802,0.07092
3520.94364,0.07104
3519.97926,0.07122
3519.01488,0.07140
3518.05051,0.07154
3517.08613,0.07166
3516.12175,0.07174
3515.15737,0.07186
3514.19300,0.07195
3513.22862,0.07201
3512.26424,0.07203
3511.29986,0.07199
3510.33548,0.07198
3509.37111,0.07203
3508.40673,0.07213
3507.44235,0.07220
3506.47797,0.07228
3505.51359,0.07241
3504.54922,0.07257
3503.58484,0.07283
3502.62046,0.07311
3501.65608,0.07336
3500.69171,0.07357
3499.72733,0.07366
3498.76295,0.07374
3497.79857,0.07383
3496.83419,0.07385
3495.86982,0.07382
3494.90544,0.07380
3493.94106,0.07380
3492.97668,0.07380
3492.01230,0.07384
3491.04793,0.07389
3490.08355,0.07396
3489.11917,0.07404
3488.15479,0.07410
3487.19041,0.07416
3486.22604,0.07424
3485.26166,0.07436
3484.29728,0.07451
3483.33290,0.07462
3482.36853,0.07476
3481.40415,0.07488
3480.43977,0.07503
3479.47539,0.07518
3478.51101,0.07527
3477.54664,0.07534
3476.58226,0.07536
3475.61788,0.07533
3474.65350,0.07532
3473.68912,0.07534
3472.72475,0.07537
3471.76037,0.07539
3470.79599,0.07544
3469.83161,0.07552
3468.86724,0.07564
3467.90286,0.07578
3466.93848,0.07589
3465.97410,0.07601
3465.00972,0.07610
3464.04535,0.07615
3463.08097,0.07618
3462.11659,0.07619
3461.15221,0.07628
3460.18783,0.07641
3459.22346,0.07656
3458.25908,0.07671
3457.29470,0.07685
3456.33032,0.07698
3455.36594,0.07711
3454.40157,0.07719
3453.43719,0.07721
3452.47281,0.07722
3451.50843,0.07718
3450.54406,0.07711
3449.57968,0.07713
3448.61530,0.07724
3447.65092,0.07736
3446.68654,0.07744
3445.72217,0.07756
3444.75779,0.07773
3443.79341,0.07787
3442.82903,0.07792
3441.86465,0.07792
3440.90028,0.07791
3439.93590,0.07782
3438.97152,0.07772
3438.00714,0.07770
3437.04276,0.07771
3436.07839,0.07769
3435.11401,0.07771
3434.14963,0.07776
3433.18525,0.07781
3432.22088,0.07782
3431.25650,0.07781
3430.29212,0.07783
3429.32774,0.07790
3428.36336,0.07799
3427.39899,0.07812
3426.43461,0.07830
3425.47023,0.07847
3424.50585,0.07866
3423.54147,0.07883
3422.57710,0.07894
3421.61272,0.07898
3420.64834,0.07898
3419.68396,0.07886
3418.71959,0.07869
3417.75521,0.07860
3416.79083,0.07853
3415.82645,0.07850
3414.86207,0.07855
3413.89770,0.07863
3412.93332,0.07875
3411.96894,0.07888
3411.00456,0.07899
3410.04018,0.07909
3409.07581,0.07913
3408.11143,0.07915
3407.14705,0.07917
3406.18267,0.07923
3405.21829,0.07927
3404.25392,0.07930
3403.28954,0.07938
3402.32516,0.07943
3401.36078,0.07941
3400.39641,0.07934
3399.43203,0.07928
3398.46765,0.07924
3397.50327,0.07919
3396.53889,0.07918
3395.57452,0.07918
3394.61014,0.07914
3393.64576,0.07910
3392.68138,0.07910
3391.71700,0.07913
3390.75263,0.07912
3389.78825,0.07909
3388.82387,0.07915
3387.85949,0.07928
3386.89512,0.07940
3385.93074,0.07948
3384.96636,0.07958
3384.00198,0.07966
3383.03760,0.07966
3382.07323,0.07967
3381.10885,0.07967
3380.14447,0.07963
3379.18009,0.07958
3378.21571,0.07960
3377.25134,0.07966
3376.28696,0.07974
3375.32258,0.07975
3374.35820,0.07972
3373.39382,0.07972
3372.42945,0.07969
3371.46507,0.07961
3370.50069,0.07958
3369.53631,0.07956
3368.57194,0.07952
3367.60756,0.07947
3366.64318,0.07943
3365.67880,0.07943
3364.71442,0.07944
3363.75005,0.07943
3362.78567,0.07943
3361.82129,0.07949
3360.85691,0.07953
3359.89253,0.07952
3358.92816,0.07954
3357.96378,0.07952
3356.99940,0.07944
3356.03502,0.07935
3355.07065,0.07929
3354.10627,0.07924
3353.14189,0.07921
3352.17751,0.07918
3351.21313,0.07912
3350.24876,0.07909
3349.28438,0.07909
3348.32000,0.07907
3347.35562,0.07906
3346.39124,0.07904
3345.42687,0.07902
3344.46249,0.07901
3343.49811,0.07902
3342.53373,0.07902
3341.56935,0.07899
3340.60498,0.07894
3339.64060,0.07891
3338.67622,0.07890
3337.71184,0.07884
3336.74747,0.07877
3335.78309,0.07872
3334.81871,0.07864
3333.85433,0.07856
3332.88995,0.07847
3331.92558,0.07839
3330.96120,0.07832
3329.99682,0.07827
3329.03244,0.07827
3328.06806,0.07828
3327.10369,0.07824
3326.13931,0.07817
3325.17493,0.07813
3324.21055,0.07812
3323.24618,0.07814
3322.28180,0.07819
3321.31742,0.07821
3320.35304,0.07823
3319.38866,0.07826
3318.42429,0.07831
3317.45991,0.07833
3316.49553,0.07833
3315.53115,0.07831
3314.56677,0.07824
3313.60240,0.07817
3312.63802,0.07814
3311.67364,0.07810
3310.70926,0.07802
3309.74488,0.07787
3308.78051,0.07772
3307.81613,0.07758
3306.85175,0.07753
3305.88737,0.07755
3304.92300,0.07758
3303.95862,0.07761
3302.99424,0.07763
3302.02986,0.07770
3301.06548,0.07776
3300.10111,0.07775
3299.13673,0.07767
3298.17235,0.07755
3297.20797,0.07740
3296.24359,0.07728
3295.27922,0.07724
3294.31484,0.07720
3293.35046,0.07714
3292.38608,0.07711
3291.42171,0.07713
3290.45733,0.07719
3289.49295,0.07723
3288.52857,0.07722
3287.56419,0.07720
3286.59982,0.07723
3285.63544,0.07727
3284.67106,0.07731
3283.70668,0.07732
3282.74230,0.07725
3281.77793,0.07713
3280.81355,0.07704
3279.84917,0.07696
3278.88479,0.07687
3277.92041,0.07676
3276.95604,0.07666
3275.99166,0.07661
3275.02728,0.07661
3274.06290,0.07660
3273.09853,0.07660
3272.13415,0.07662
3271.16977,0.07662
3270.20539,0.07663
3269.24101,0.07664
3268.27664,0.07665
3267.31226,0.07664
3266.34788,0.07657
3265.38350,0.07650
3264.41912,0.07645
3263.45475,0.07636
3262.49037,0.07627
3261.52599,0.07623
3260.56161,0.07622
3259.59724,0.07620
3258.63286,0.07615
3257.66848,0.07608
3256.70410,0.07605
3255.73972,0.07598
3254.77535,0.07584
3253.81097,0.07575
3252.84659,0.07572
3251.88221,0.07575
3250.91783,0.07582
3249.95346,0.07592
3248.98908,0.07598
3248.02470,0.07600
3247.06032,0.07600
3246.09594,0.07603
3245.13157,0.07601
3244.16719,0.07586
3243.20281,0.07568
3242.23843,0.07557
3241.27406,0.07551
3240.30968,0.07548
3239.34530,0.07544
3238.38092,0.07540
3237.41654,0.07534
3236.45217,0.07527
3235.48779,0.07527
3234.52341,0.07526
3233.55903,0.07517
3232.59465,0.07504
3231.63028,0.07498
3230.66590,0.07501
3229.70152,0.07503
3228.73714,0.07498
3227.77276,0.07490
3226.80839,0.07483
3225.84401,0.07472
3224.87963,0.07462
3223.91525,0.07456
3222.95088,0.07448
3221.98650,0.07441
3221.02212,0.07443
3220.05774,0.07448
3219.09336,0.07452
3218.12899,0.07451
3217.16461,0.07445
3216.20023,0.07434
3215.23585,0.07421
3214.27147,0.07412
3213.30710,0.07406
3212.34272,0.07400
3211.37834,0.07396
3210.41396,0.07397
3209.44959,0.07403
3208.48521,0.07402
3207.52083,0.07397
3206.55645,0.07395
3205.59207,0.07390
3204.62770,0.07386
3203.66332,0.07386
3202.69894,0.07390
3201.73456,0.07392
3200.77018,0.07389
3199.80581,0.07385
3198.84143,0.07381
3197.87705,0.07376
3196.91267,0.07360
3195.94829,0.07342
3194.98392,0.07325
3194.01954,0.07309
3193.05516,0.07300
3192.09078,0.07294
3191.12641,0.07290
3190.16203,0.07289
3189.19765,0.07286
3188.23327,0.07284
3187.26889,0.07287
3186.30452,0.07286
3185.34014,0.07273
3184.37576,0.07260
3183.41138,0.07256
3182.44700,0.07256
3181.48263,0.07255
3180.51825,0.07252
3179.55387,0.07245
3178.58949,0.07231
3177.62512,0.07217
3176.66074,0.07206
3175.69636,0.07198
3174.73198,0.07188
3173.76760,0.07172
3172.80323,0.07163
3171.83885,0.07164
3170.87447,0.07166
3169.91009,0.07165
3168.94571,0.07159
3167.98134,0.07152
3167.01696,0.07144
3166.05258,0.07139
3165.08820,0.07137
3164.12382,0.07134
3163.15945,0.07126
3162.19507,0.07111
3161.23069,0.07095
3160.26631,0.07082
3159.30194,0.07071
3158.33756,0.07063
3157.37318,0.07060
3156.40880,0.07059
3155.44442,0.07058
3154.48005,0.07060
3153.51567,0.07065
3152.55129,0.07071
3151.58691,0.07071
3150.62253,0.07065
3149.65816,0.07058
3148.69378,0.07051
3147.72940,0.07043
3146.76502,0.07033
3145.80065,0.07021
3144.83627,0.07011
3143.87189,0.07005
3142.90751,0.07006
3141.94313,0.07011
3140.97876,0.07013
3140.01438,0.07008
3139.05000,0.06999
3138.08562,0.06989
3137.12124,0.06976
3136.15687,0.06962
3135.19249,0.06950
3134.22811,0.06942
3133.26373,0.06936
3132.29935,0.06929
3131.33498,0.06923
3130.37060,0.06914
3129.40622,0.06903
3128.44184,0.06893
3127.47747,0.06891
3126.51309,0.06896
3125.54871,0.06899
3124.58433,0.06904
3123.61995,0.06912
3122.65558,0.06913
3121.69120,0.06901
3120.72682,0.06880
3119.76244,0.06852
3118.79806,0.06835
3117.83369,0.06828
3116.86931,0.06826
3115.90493,0.06826
3114.94055,0.06824
3113.97618,0.06818
3113.01180,0.06814
3112.04742,0.06812
3111.08304,0.06804
3110.11866,0.06791
3109.15429,0.06780
3108.18991,0.06774
3107.22553,0.06782
3106.26115,0.06794
3105.29677,0.06794
3104.33240,0.06789
3103.36802,0.06777
3102.40364,0.06758
3101.43926,0.06736
3100.47488,0.06727
3099.51051,0.06728
3098.54613,0.06729
3097.58175,0.06732
3096.61737,0.06732
3095.65300,0.06730
3094.68862,0.06726
3093.72424,0.06718
3092.75986,0.06699
3091.79548,0.06675
3090.83111,0.06661
3089.86673,0.06664
3088.90235,0.06680
3087.93797,0.06692
3086.97359,0.06687
3086.00922,0.06674
3085.04484,0.06657
3084.08046,0.06639
3083.11608,0.06616
3082.15171,0.06598
3081.18733,0.06589
3080.22295,0.06590
3079.25857,0.06606
3078.29419,0.06623
3077.32982,0.06626
3076.36544,0.06619
3075.40106,0.06607
3074.43668,0.06590
3073.47230,0.06576
3072.50793,0.06570
3071.54355,0.06571
3070.57917,0.06577
3069.61479,0.06585
3068.65041,0.06584
3067.68604,0.06576
3066.72166,0.06563
3065.75728,0.06545
3064.79290,0.06516
3063.82853,0.06486
3062.86415,0.06468
3061.89977,0.06465
3060.93539,0.06468
3059.97101,0.06464
3059.00664,0.06454
3058.04226,0.06443
3057.07788,0.06433
3056.11350,0.06423
3055.14912,0.06409
3054.18475,0.06391
3053.22037,0.06372
3052.25599,0.06362
3051.29161,0.06364
3050.32724,0.06365
3049.36286,0.06357
3048.39848,0.06349
3047.43410,0.06345
3046.46972,0.06341
3045.50535,0.06336
3044.54097,0.06326
3043.57659,0.06314
3042.61221,0.06303
3041.64783,0.06297
3040.68346,0.06292
3039.71908,0.06281
3038.75470,0.06269
3037.79032,0.06257
3036.82594,0.06248
3035.86157,0.06240
3034.89719,0.06232
3033.93281,0.06224
3032.96843,0.06217
3032.00406,0.06211
3031.03968,0.06206
3030.07530,0.06201
3029.11092,0.06196
3028.14654,0.06188
3027.18217,0.06179
3026.21779,0.06170
3025.25341,0.06156
3024.28903,0.06140
3023.32465,0.06137
3022.36028,0.06161
3021.39590,0.06202
3020.43152,0.06246
3019.46714,0.06287
3018.50276,0.06319
3017.53839,0.06337
3016.57401,0.06335
3015.60963,0.06311
3014.64525,0.06270
3013.68088,0.06215
3012.71650,0.06158
3011.75212,0.06115
3010.78774,0.06089
3009.82336,0.06074
3008.85899,0.06065
3007.89461,0.06059
3006.93023,0.06055
3005.96585,0.06049
3005.00147,0.06040
3004.03710,0.06031
3003.07272,0.06026
3002.10834,0.06020
3001.14396,0.06009
3000.17959,0.05994
2999.21521,0.05978
2998.25083,0.05968
2997.28645,0.05962
2996.32207,0.05955
2995.35770,0.05948
2994.39332,0.05945
2993.42894,0.05947
2992.46456,0.05953
2991.50018,0.05958
2990.53581,0.05955
2989.57143,0.05945
2988.60705,0.05932
2987.64267,0.05921
2986.67829,0.05909
2985.71392,0.05891
2984.74954,0.05873
2983.78516,0.05862
2982.82078,0.05858
2981.85641,0.05859
2980.89203,0.05864
2979.92765,0.05870
2978.96327,0.05875
2977.99889,0.05877
2977.03452,0.05878
2976.07014,0.05878
2975.10576,0.05874
2974.14138,0.05871
2973.17700,0.05874
2972.21263,0.05880
2971.24825,0.05884
2970.28387,0.05884
2969.31949,0.05882
2968.35512,0.05873
2967.39074,0.05860
2966.42636,0.05845
2965.46198,0.05827
2964.49760,0.05808
2963.53323,0.05800
2962.56885,0.05804
2961.60447,0.05811
2960.64009,0.05815
2959.67571,0.05821
2958.71134,0.05826
2957.74696,0.05828
2956.78258,0.05827
2955.81820,0.05822
2954.85382,0.05815
2953.88945,0.05809
2952.92507,0.05809
2951.96069,0.05816
2950.99631,0.05822
2950.03194,0.05821
2949.06756,0.05813
2948.10318,0.05804
2947.13880,0.05794
2946.17442,0.05781
2945.21005,0.05766
2944.24567,0.05752
2943.28129,0.05746
2942.31691,0.05754
2941.35253,0.05771
2940.38816,0.05789
2939.42378,0.05806
2938.45940,0.05818
2937.49502,0.05828
2936.53065,0.05837
2935.56627,0.05842
2934.60189,0.05840
2933.63751,0.05833
2932.67313,0.05831
2931.70876,0.05837
2930.74438,0.05849
2929.78000,0.05857
2928.81562,0.05862
2927.85124,0.05867
2926.88687,0.05872
2925.92249,0.05876
2924.95811,0.05876
2923.99373,0.05872
2923.02935,0.05867
2922.06498,0.05862
2921.10060,0.05859
2920.13622,0.05853
2919.17184,0.05844
2918.20747,0.05828
2917.24309,0.05809
2916.27871,0.05792
2915.31433,0.05776
2914.34995,0.05758
2913.38558,0.05738
2912.42120,0.05720
2911.45682,0.05706
2910.49244,0.05694
2909.52806,0.05683
2908.56369,0.05668
2907.59931,0.05653
2906.63493,0.05636
2905.67055,0.05616
2904.70618,0.05598
2903.74180,0.05587
2902.77742,0.05579
2901.81304,0.05573
2900.84866,0.05571
2899.88429,0.05573
2898.91991,0.05577
2897.95553,0.05582
2896.99115,0.05586
2896.02677,0.05587
2895.06240,0.05584
2894.09802,0.05574
2893.13364,0.05561
2892.16926,0.05552
2891.20488,0.05543
2890.24051,0.05536
2889.27613,0.05530
2888.31175,0.05525
2887.34737,0.05519
2886.38300,0.05514
2885.41862,0.05511
2884.45424,0.05509
2883.48986,0.05504
2882.52548,0.05496
2881.56111,0.05488
2880.59673,0.05481
2879.63235,0.05476
2878.66797,0.05473
2877.70359,0.05471
2876.73922,0.05473
2875.77484,0.05474
2874.81046,0.05474
2873.84608,0.05475
2872.88171,0.05476
2871.91733,0.05474
2870.95295,0.05470
2869.98857,0.05464
2869.02419,0.05457
2868.05982,0.05454
2867.09544,0.05454
2866.13106,0.05453
2865.16668,0.05456
2864.20230,0.05459
2863.23793,0.05462
2862.27355,0.05470
2861.30917,0.05478
2860.34479,0.05486
2859.38041,0.05493
2858.41604,0.05499
2857.45166,0.05505
2856.48728,0.05511
2855.52290,0.05515
2854.55853,0.05517
2853.59415,0.05516
2852.62977,0.05514
2851.66539,0.05508
2850.70101,0.05500
2849.73664,0.05487
2848.77226,0.05473
2847.80788,0.05461
2846.84350,0.05450
2845.87912,0.05438
2844.91475,0.05426
2843.95037,0.05415
2842.98599,0.05404
2842.02161,0.05394
2841.05724,0.05386
2840.09286,0.05377
2839.12848,0.05367
2838.16410,0.05358
2837.19972,0.05352
2836.23535,0.05348
2835.27097,0.05344
2834.30659,0.05341
2833.34221,0.05337
2832.37783,0.05331
2831.41346,0.05324
2830.44908,0.05318
2829.48470,0.05312
2828.52032,0.05306
2827.55594,0.05301
2826.59157,0.05298
2825.62719,0.05294
2824.66281,0.05292
2823.69843,0.05291
2822.73406,0.05292
2821.76968,0.05291
2820.80530,0.05288
2819.84092,0.05286
2818.87654,0.05285
2817.91217,0.05284
2816.94779,0.05283
2815.98341,0.05281
2815.01903,0.05277
2814.05465,0.05272
2813.09028,0.05269
2812.12590,0.05264
2811.16152,0.05257
2810.19714,0.05249
2809.23276,0.05243
2808.26839,0.05240
2807.30401,0.05238
2806.33963,0.05235
2805.37525,0.05233
2804.41088,0.05231
2803.44650,0.05230
2802.48212,0.05233
2801.51774,0.05237
2800.55336,0.05239
2799.58899,0.05240
2798.62461,0.05239
2797.66023,0.05235
2796.69585,0.05229
2795.73147,0.05222
2794.76710,0.05215
2793.80272,0.05207
2792.83834,0.05199
2791.87396,0.05193
2790.90959,0.05188
2789.94521,0.05185
2788.98083,0.05184
2788.01645,0.05183
2787.05207,0.05178
2786.08770,0.05172
2785.12332,0.05169
2784.15894,0.05165
2783.19456,0.05159
2782.23018,0.05152
2781.26581,0.05147
2780.30143,0.05144
2779.33705,0.05140
2778.37267,0.05138
2777.40829,0.05136
2776.44392,0.05133
2775.47954,0.05130
2774.51516,0.05126
2773.55078,0.05122
2772.58641,0.05118
2771.62203,0.05117
2770.65765,0.05117
2769.69327,0.05117
2768.72889,0.05119
2767.76452,0.05122
2766.80014,0.05124
2765.83576,0.05125
2764.87138,0.05126
2763.90700,0.05125
2762.94263,0.05120
2761.97825,0.05114
2761.01387,0.05110
2760.04949,0.05104
2759.08512,0.05095
2758.12074,0.05085
2757.15636,0.05077
2756.19198,0.05068
2755.22760,0.05058
2754.26323,0.05050
2753.29885,0.05046
2752.33447,0.05043
2751.37009,0.05040
2750.40571,0.05038
2749.44134,0.05037
2748.47696,0.05034
2747.51258,0.05031
2746.54820,0.05030
2745.58382,0.05028
2744.61945,0.05025
2743.65507,0.05024
2742.69069,0.05023
2741.72631,0.05023
2740.76194,0.05021
2739.79756,0.05017
2738.83318,0.05015
2737.86880,0.05012
2736.90442,0.05006
2735.94005,0.04997
2734.97567,0.04990
2734.01129,0.04984
2733.04691,0.04980
2732.08253,0.04978
2731.11816,0.04974
2730.15378,0.04969
2729.18940,0.04965
2728.22502,0.04963
2727.26065,0.04963
2726.29627,0.04961
2725.33189,0.04955
2724.36751,0.04950
2723.40313,0.04945
2722.43876,0.04941
2721.47438,0.04938
2720.51000,0.04936
2719.54562,0.04934
2718.58124,0.04933
2717.61687,0.04933
2716.65249,0.04934
2715.68811,0.04934
2714.72373,0.04933
2713.75935,0.04932
2712.79498,0.04929
2711.83060,0.04922
2710.86622,0.04914
2709.90184,0.04905
2708.93747,0.04896
2707.97309,0.04887
2707.00871,0.04880
2706.04433,0.04876
2705.07995,0.04873
2704.11558,0.04871
2703.15120,0.04869
2702.18682,0.04868
2701.22244,0.04866
2700.25806,0.04862
2699.29369,0.04856
2698.32931,0.04852
2697.36493,0.04847
2696.40055,0.04839
2695.43618,0.04832
2694.47180,0.04830
2693.50742,0.04829
2692.54304,0.04826
2691.57866,0.04824
2690.61429,0.04822
2689.64991,0.04819
2688.68553,0.04814
2687.72115,0.04810
2686.75677,0.04808
2685.79240,0.04805
2684.82802,0.04801
2683.86364,0.04799
2682.89926,0.04799
2681.93488,0.04797
2680.97051,0.04793
2680.00613,0.04791
2679.04175,0.04791
2678.07737,0.04789
2677.11300,0.04784
2676.14862,0.04780
2675.18424,0.04776
2674.21986,0.04773
2673.25548,0.04771
2672.29111,0.04767
2671.32673,0.04761
2670.36235,0.04754
2669.39797,0.04747
2668.43359,0.04743
2667.46922,0.04739
2666.50484,0.04735
2665.54046,0.04729
2664.57608,0.04724
2663.61171,0.04720
2662.64733,0.04716
2661.68295,0.04714
2660.71857,0.04711
2659.75419,0.04706
2658.78982,0.04699
2657.82544,0.04692
2656.86106,0.04684
2655.89668,0.04675
2654.93230,0.04666
2653.96793,0.04655
2653.00355,0.04644
2652.03917,0.04633
2651.07479,0.04622
2650.11041,0.04614
2649.14604,0.04608
2648.18166,0.04602
2647.21728,0.04596
2646.25290,0.04591
2645.28853,0.04590
2644.32415,0.04590
2643.35977,0.04591
2642.39539,0.04590
2641.43101,0.04589
2640.46664,0.04588
2639.50226,0.04584
2638.53788,0.04577
2637.57350,0.04569
2636.60912,0.04562
2635.64475,0.04552
2634.68037,0.04542
2633.71599,0.04535
2632.75161,0.04527
2631.78724,0.04522
2630.82286,0.04520
2629.85848,0.04519
2628.89410,0.04517
2627.92972,0.04511
2626.96535,0.04501
2626.00097,0.04492
2625.03659,0.04488
2624.07221,0.04485
2623.10783,0.04482
2622.14346,0.04481
2621.17908,0.04480
2620.21470,0.04483
2619.25032,0.04486
2618.28594,0.04486
2617.32157,0.04483
2616.35719,0.04474
2615.39281,0.04462
2614.42843,0.04452
2613.46406,0.04445
2612.49968,0.04441
2611.53530,0.04439
2610.57092,0.04437
2609.60654,0.04435
2608.64217,0.04434
2607.67779,0.04430
2606.71341,0.04427
2605.74903,0.04424
2604.78465,0.04416
2603.82028,0.04404
2602.85590,0.04393
2601.89152,0.04388
2600.92714,0.04386
2599.96276,0.04382
2598.99839,0.04380
2598.03401,0.04383
2597.06963,0.04386
2596.10525,0.04386
2595.14088,0.04384
2594.17650,0.04375
2593.21212,0.04364
2592.24774,0.04352
2591.28336,0.04341
2590.31899,0.04328
2589.35461,0.04311
2588.39023,0.04292
2587.42585,0.04283
2586.46147,0.04282
2585.49710,0.04281
2584.53272,0.04280
2583.56834,0.04282
2582.60396,0.04286
2581.63959,0.04293
2580.67521,0.04299
2579.71083,0.04298
2578.74645,0.04291
2577.78207,0.04277
2576.81770,0.04264
2575.85332,0.04256
2574.88894,0.04253
2573.92456,0.04255
2572.96018,0.04258
2571.99581,0.04263
2571.03143,0.04263
2570.06705,0.04261
2569.10267,0.04260
2568.13829,0.04254
2567.17392,0.04242
2566.20954,0.04227
2565.24516,0.04209
2564.28078,0.04196
2563.31641,0.04193
2562.35203,0.04193
2561.38765,0.04188
2560.42327,0.04183
2559.45889,0.04184
2558.49452,0.04188
2557.53014,0.04194
2556.56576,0.04196
2555.60138,0.04198
2554.63700,0.04197
2553.67263,0.04190
2552.70825,0.04187
2551.74387,0.04187
2550.77949,0.04178
2549.81512,0.04165
2548.85074,0.04159
2547.88636,0.04159
2546.92198,0.04161
2545.95760,0.04164
2544.99323,0.04169
2544.02885,0.04174
2543.06447,0.04171
2542.10009,0.04166
2541.13571,0.04163
2540.17134,0.04156
2539.20696,0.04143
2538.24258,0.04136
2537.27820,0.04136
2536.31382,0.04136
2535.34945,0.04136
2534.38507,0.04133
2533.42069,0.04127
2532.45631,0.04123
2531.49194,0.04124
2530.52756,0.04124
2529.56318,0.04121
2528.59880,0.04115
2527.63442,0.04107
2526.67005,0.04100
2525.70567,0.04092
2524.74129,0.04084
2523.77691,0.04076
2522.81253,0.04067
2521.84816,0.04061
2520.88378,0.04065
2519.91940,0.04072
2518.95502,0.04072
2517.99065,0.04072
2517.02627,0.04071
2516.06189,0.04063
2515.09751,0.04052
2514.13313,0.04045
2513.16876,0.04040
2512.20438,0.04034
2511.24000,0.04027
2510.27562,0.04025
2509.31124,0.04022
2508.34687,0.04017
2507.38249,0.04016
2506.41811,0.04016
2505.45373,0.04015
2504.48935,0.04012
2503.52498,0.04012
2502.56060,0.04017
2501.59622,0.04017
2500.63184,0.04013
2499.66747,0.04015
2498.70309,0.04019
2497.73871,0.04021
2496.77433,0.04021
2495.80995,0.04017
2494.84558,0.04012
2493.88120,0.04009
2492.91682,0.04003
2491.95244,0.03999
2490.98806,0.03993
2490.02369,0.03985
2489.05931,0.03978
2488.09493,0.03972
2487.13055,0.03969
2486.16618,0.03970
2485.20180,0.03969
2484.23742,0.03964
2483.27304,0.03964
2482.30866,0.03965
2481.34429,0.03962
2480.37991,0.03955
2479.41553,0.03949
2478.45115,0.03945
2477.48677,0.03935
2476.52240,0.03922
2475.55802,0.03917
2474.59364,0.03919
2473.62926,0.03924
2472.66488,0.03929
2471.70051,0.03936
2470.73613,0.03940
2469.77175,0.03935
2468.80737,0.03929
2467.84300,0.03926
2466.87862,0.03922
2465.91424,0.03909
2464.94986,0.03893
2463.98548,0.03884
2463.02111,0.03882
2462.05673,0.03882
2461.09235,0.03884
2460.12797,0.03889
2459.16359,0.03895
2458.19922,0.03897
2457.23484,0.03902
2456.27046,0.03910
2455.30608,0.03915
2454.34171,0.03912
2453.37733,0.03898
2452.41295,0.03885
2451.44857,0.03870
2450.48419,0.03855
2449.51982,0.03846
2448.55544,0.03840
2447.59106,0.03831
2446.62668,0.03823
2445.66230,0.03822
2444.69793,0.03824
2443.73355,0.03825
2442.76917,0.03830
2441.80479,0.03833
2440.84041,0.03832
2439.87604,0.03830
2438.91166,0.03829
2437.94728,0.03832
2436.98290,0.03832
2436.01853,0.03830
2435.05415,0.03831
2434.08977,0.03830
2433.12539,0.03821
2432.16101,0.03810
2431.19664,0.03801
2430.23226,0.03790
2429.26788,0.03780
2428.30350,0.03777
2427.33912,0.03777
2426.37475,0.03783
2425.41037,0.03793
2424.44599,0.03801
2423.48161,0.03806
2422.51724,0.03805
2421.55286,0.03799
2420.58848,0.03788
2419.62410,0.03779
2418.65972,0.03775
2417.69535,0.03774
2416.73097,0.03771
2415.76659,0.03769
2414.80221,0.03767
2413.83783,0.03761
2412.87346,0.03754
2411.90908,0.03752
2410.94470,0.03755
2409.98032,0.03764
2409.01594,0.03775
2408.05157,0.03785
2407.08719,0.03793
2406.12281,0.03796
2405.15843,0.03794
2404.19406,0.03789
2403.22968,0.03779
2402.26530,0.03766
2401.30092,0.03758
2400.33654,0.03753
2399.37217,0.03750
2398.40779,0.03750
2397.44341,0.03749
2396.47903,0.03746
2395.51465,0.03741
2394.55028,0.03736
2393.58590,0.03731
2392.62152,0.03727
2391.65714,0.03726
2390.69276,0.03726
2389.72839,0.03724
2388.76401,0.03722
2387.79963,0.03720
2386.83525,0.03722
2385.87088,0.03729
2384.90650,0.03739
2383.94212,0.03749
2382.97774,0.03757
2382.01336,0.03763
2381.04899,0.03768
2380.08461,0.03774
2379.12023,0.03779
2378.15585,0.03782
2377.19147,0.03783
2376.22710,0.03783
2375.26272,0.03789
2374.29834,0.03798
2373.33396,0.03803
2372.36959,0.03801
2371.40521,0.03793
2370.44083,0.03792
2369.47645,0.03796
2368.51207,0.03802
2367.54770,0.03810
2366.58332,0.03820
2365.61894,0.03834
2364.65456,0.03849
2363.69018,0.03861
2362.72581,0.03868
2361.76143,0.03866
2360.79705,0.03858
2359.83267,0.03851
2358.86829,0.03847
2357.90392,0.03839
2356.93954,0.03827
2355.97516,0.03816
2355.01078,0.03804
2354.04641,0.03793
2353.08203,0.03778
2352.11765,0.03762
2351.15327,0.03757
2350.18889,0.03755
2349.22452,0.03754
2348.26014,0.03754
2347.29576,0.03757
2346.33138,0.03761
2345.36700,0.03765
2344.40263,0.03767
2343.43825,0.03766
2342.47387,0.03765
2341.50949,0.03763
2340.54512,0.03762
2339.58074,0.03766
2338.61636,0.03770
2337.65198,0.03773
2336.68760,0.03777
2335.72323,0.03780
2334.75885,0.03780
2333.79447,0.03774
2332.83009,0.03770
2331.86571,0.03770
2330.90134,0.03768
2329.93696,0.03762
2328.97258,0.03753
2328.00820,0.03747
2327.04382,0.03743
2326.07945,0.03739
2325.11507,0.03730
2324.15069,0.03716
2323.18631,0.03695
2322.22194,0.03676
2321.25756,0.03662
2320.29318,0.03652
2319.32880,0.03644
2318.36442,0.03632
2317.40005,0.03621
2316.43567,0.03618
2315.47129,0.03619
2314.50691,0.03617
2313.54253,0.03610
2312.57816,0.03599
2311.61378,0.03587
2310.64940,0.03578
2309.68502,0.03574
2308.72065,0.03573
2307.75627,0.03571
2306.79189,0.03566
2305.82751,0.03557
2304.86313,0.03549
2303.89876,0.03541
2302.93438,0.03529
2301.97000,0.03522
2301.00562,0.03517
2300.04124,0.03510
2299.07687,0.03509
2298.11249,0.03513
2297.14811,0.03514
2296.18373,0.03513
2295.21935,0.03510
2294.25498,0.03503
2293.29060,0.03494
2292.32622,0.03485
2291.36184,0.03480
2290.39747,0.03482
2289.43309,0.03480
2288.46871,0.03474
2287.50433,0.03475
2286.53995,0.03470
2285.57558,0.03459
2284.61120,0.03455
2283.64682,0.03456
2282.68244,0.03452
2281.71806,0.03440
2280.75369,0.03432
2279.78931,0.03429
2278.82493,0.03428
2277.86055,0.03426
2276.89618,0.03425
2275.93180,0.03428
2274.96742,0.03429
2274.00304,0.03426
2273.03866,0.03431
2272.07429,0.03445
2271.10991,0.03457
2270.14553,0.03453
2269.18115,0.03434
2268.21677,0.03402
2267.25240,0.03361
2266.28802,0.03334
2265.32364,0.03320
2264.35926,0.03313
2263.39488,0.03309
2262.43051,0.03304
2261.46613,0.03312
2260.50175,0.03332
2259.53737,0.03348
2258.57300,0.03347
2257.60862,0.03328
2256.64424,0.03302
2255.67986,0.03285
2254.71548,0.03287
2253.75111,0.03290
2252.78673,0.03293
2251.82235,0.03304
2250.85797,0.03310
2249.89359,0.03311
2248.92922,0.03303
2247.96484,0.03294
2247.00046,0.03287
2246.03608,0.03287
2245.07171,0.03292
2244.10733,0.03291
2243.14295,0.03286
2242.17857,0.03275
2241.21419,0.03261
2240.24982,0.03239
2239.28544,0.03212
2238.32106,0.03200
2237.35668,0.03194
2236.39230,0.03185
2235.42793,0.03180
2234.46355,0.03205
2233.49917,0.03231
2232.53479,0.03211
2231.57041,0.03162
2230.60604,0.03104
2229.64166,0.03060
2228.67728,0.03041
2227.71290,0.03057
2226.74853,0.03097
2225.78415,0.03124
2224.81977,0.03154
2223.85539,0.03204
2222.89101,0.03268
2221.92664,0.03305
2220.96226,0.03294
2219.99788,0.03262
2219.03350,0.03232
2218.06912,0.03223
2217.10475,0.03228
2216.14037,0.03240
2215.17599,0.03237
2214.21161,0.03222
2213.24724,0.03217
2212.28286,0.03205
2211.31848,0.03206
2210.35410,0.03221
2209.38972,0.03210
2208.42535,0.03165
2207.46097,0.03107
2206.49659,0.03065
2205.53221,0.03042
2204.56783,0.03024
2203.60346,0.02993
2202.63908,0.02953
2201.67470,0.02913
2200.71032,0.02878
2199.74594,0.02874
2198.78157,0.02872
2197.81719,0.02846
2196.85281,0.02814
2195.88843,0.02794
2194.92406,0.02796
2193.95968,0.02811
2192.99530,0.02821
2192.03092,0.02821
2191.06654,0.02816
2190.10217,0.02815
2189.13779,0.02815
2188.17341,0.02814
2187.20903,0.02813
2186.24465,0.02813
2185.28028,0.02812
2184.31590,0.02811
2183.35152,0.02811
2182.38714,0.02810
2181.42276,0.02809
2180.45839,0.02809
2179.49401,0.02808
2178.52963,0.02807
2177.56525,0.02807
2176.60088,0.02806
2175.63650,0.02805
2174.67212,0.02805
2173.70774,0.02804
2172.74336,0.02803
2171.77899,0.02803
2170.81461,0.02802
2169.85023,0.02801
2168.88585,0.02800
2167.92147,0.02800
2166.95710,0.02799
2165.99272,0.02798
2165.02834,0.02798
2164.06396,0.02797
2163.09959,0.02796
2162.13521,0.02796
2161.17083,0.02795
2160.20645,0.02794
2159.24207,0.02794
2158.27770,0.02793
2157.31332,0.02792
2156.34894,0.02792
2155.38456,0.02791
2154.42018,0.02790
2153.45581,0.02790
2152.49143,0.02789
2151.52705,0.02788
2150.56267,0.02788
2149.59829,0.02787
2148.63392,0.02786
2147.66954,0.02786
2146.70516,0.02785
2145.74078,0.02784
2144.77641,0.02783
2143.81203,0.02783
2142.84765,0.02782
2141.88327,0.02781
2140.91889,0.02781
2139.95452,0.02780
2138.99014,0.02779
2138.02576,0.02779
2137.06138,0.02778
2136.09700,0.02777
2135.13263,0.02777
2134.16825,0.02776
2133.20387,0.02775
2132.23949,0.02775
2131.27512,0.02774
2130.31074,0.02773
2129.34636,0.02773
2128.38198,0.02772
2127.41760,0.02771
2126.45323,0.02771
2125.48885,0.02770
2124.52447,0.02769
2123.56009,0.02768
2122.59571,0.02768
2121.63134,0.02767
2120.66696,0.02766
2119.70258,0.02766
2118.73820,0.02765
2117.77382,0.02764
2116.80945,0.02764
2115.84507,0.02763
2114.88069,0.02762
2113.91631,0.02762
2112.95194,0.02761
2111.98756,0.02760
2111.02318,0.02760
2110.05880,0.02759
2109.09442,0.02758
2108.13005,0.02758
2107.16567,0.02757
2106.20129,0.02756
2105.23691,0.02756
2104.27253,0.02755
2103.30816,0.02754
2102.34378,0.02753
2101.37940,0.02753
2100.41502,0.02752
2099.45065,0.02751
2098.48627,0.02751
2097.52189,0.02750
2096.55751,0.02749
2095.59313,0.02749
2094.62876,0.02748
2093.66438,0.02747
2092.70000,0.02747
2091.73562,0.02746
2090.77124,0.02745
2089.80687,0.02745
2088.84249,0.02744
2087.87811,0.02743
2086.91373,0.02743
2085.94935,0.02742
2084.98498,0.02741
2084.02060,0.02741
2083.05622,0.02740
2082.09184,0.02739
2081.12747,0.02739
2080.16309,0.02738
2079.19871,0.02737
2078.23433,0.02736
2077.26995,0.02736
2076.30558,0.02735
2075.34120,0.02734
2074.37682,0.02734
2073.41244,0.02733
2072.44806,0.02732
2071.48369,0.02732
2070.51931,0.02731
2069.55493,0.02730
2068.59055,0.02730
2067.62618,0.02729
2066.66180,0.02728
2065.69742,0.02728
2064.73304,0.02727
2063.76866,0.02726
2062.80429,0.02726
2061.83991,0.02725
2060.87553,0.02724
2059.91115,0.02724
2058.94677,0.02723
2057.98240,0.02722
2057.01802,0.02721
2056.05364,0.02721
2055.08926,0.02720
2054.12488,0.02719
2053.16051,0.02719
2052.19613,0.02718
2051.23175,0.02717
2050.26737,0.02717
2049.30300,0.02716
2048.33862,0.02715
2047.37424,0.02715
2046.40986,0.02714
2045.44548,0.02713
2044.48111,0.02713
2043.51673,0.02712
2042.55235,0.02711
2041.58797,0.02711
2040.62359,0.02710
2039.65922,0.02709
2038.69484,0.02709
2037.73046,0.02708
2036.76608,0.02707
2035.80171,0.02706
2034.83733,0.02706
2033.87295,0.02705
2032.90857,0.02704
2031.94419,0.02704
2030.97982,0.02703
2030.01544,0.02702
2029.05106,0.02702
2028.08668,0.02701
2027.12230,0.02700
2026.15793,0.02700
2025.19355,0.02699
2024.22917,0.02698
2023.26479,0.02698
2022.30041,0.02697
2021.33604,0.02696
2020.37166,0.02696
2019.40728,0.02695
2018.44290,0.02694
2017.47853,0.02694
2016.51415,0.02693
2015.54977,0.02692
2014.58539,0.02692
2013.62101,0.02691
2012.65664,0.02690
2011.69226,0.02689
2010.72788,0.02689
2009.76350,0.02688
2008.79912,0.02687
2007.83475,0.02687
2006.87037,0.02686
2005.90599,0.02685
2004.94161,0.02685
2003.97724,0.02684
2003.01286,0.02683
2002.04848,0.02683
2001.08410,0.02682
2000.11972,0.02681
1999.15535,0.02681
1998.19097,0.02680
1997.22659,0.02679
1996.26221,0.02679
1995.29783,0.02678
1994.33346,0.02677
1993.36908,0.02677
1992.40470,0.02676
1991.44032,0.02675
1990.47594,0.02674
1989.51157,0.02674
1988.54719,0.02673
1987.58281,0.02672
1986.61843,0.02672
1985.65406,0.02671
1984.68968,0.02670
1983.72530,0.02670
1982.76092,0.02669
1981.79654,0.02668
1980.83217,0.02668
1979.86779,0.02667
1978.90341,0.02666
1977.93903,0.02666
1976.97465,0.02665
1976.01028,0.02664
1975.04590,0.02664
1974.08152,0.02663
1973.11714,0.02662
1972.15276,0.02662
1971.18839,0.02661
1970.22401,0.02660
1969.25963,0.02659
1968.29525,0.02659
1967.33088,0.02658
1966.36650,0.02657
1965.40212,0.02657
1964.43774,0.02656
1963.47336,0.02655
1962.50899,0.02655
1961.54461,0.02654
1960.58023,0.02653
1959.61585,0.02653
1958.65147,0.02652
1957.68710,0.02651
1956.72272,0.02651
1955.75834,0.02650
1954.79396,0.02649
1953.82959,0.02649
1952.86521,0.02648
1951.90083,0.02647
1950.93645,0.02647
1949.97207,0.02646
1949.00770,0.02645
1948.04332,0.02645
1947.07894,0.02644
1946.11456,0.02643
1945.15018,0.02642
1944.18581,0.02642
1943.22143,0.02641
1942.25705,0.02640
1941.29267,0.02640
1940.32829,0.02639
1939.36392,0.02638
1938.39954,0.02638
1937.43516,0.02637
1936.47078,0.02636
1935.50641,0.02636
1934.54203,0.02635
1933.57765,0.02634
1932.61327,0.02634
1931.64889,0.02627
1930.68452,0.02622
1929.72014,0.02629
1928.75576,0.02641
1927.79138,0.02653
1926.82700,0.02673
1925.86263,0.02695
1924.89825,0.02709
1923.93387,0.02711
1922.96949,0.02709
1922.00512,0.02710
1921.04074,0.02706
1920.07636,0.02693
1919.11198,0.02691
1918.14760,0.02700
1917.18323,0.02702
1916.21885,0.02700
1915.25447,0.02702
1914.29009,0.02693
1913.32571,0.02672
1912.36134,0.02657
1911.39696,0.02656
1910.43258,0.02662
1909.46820,0.02664
1908.50382,0.02669
1907.53945,0.02678
1906.57507,0.02686
1905.61069,0.02686
1904.64631,0.02682
1903.68194,0.02672
1902.71756,0.02661
1901.75318,0.02660
1900.78880,0.02667
1899.82442,0.02671
1898.86005,0.02672
1897.89567,0.02669
1896.93129,0.02663
1895.96691,0.02662
1895.00253,0.02664
1894.03816,0.02657
1893.07378,0.02646
1892.10940,0.02641
1891.14502,0.02648
1890.18065,0.02662
1889.21627,0.02664
1888.25189,0.02665
1887.28751,0.02671
1886.32313,0.02674
1885.35876,0.02675
1884.39438,0.02675
1883.43000,0.02668
1882.46562,0.02656
1881.50124,0.02648
1880.53687,0.02647
1879.57249,0.02652
1878.60811,0.02653
1877.64373,0.02642
1876.67935,0.02636
1875.71498,0.02635
1874.75060,0.02630
1873.78622,0.02620
1872.82184,0.02608
1871.85747,0.02603
1870.89309,0.02609
1869.92871,0.02617
1868.96433,0.02619
1867.99995,0.02620
1867.03558,0.02623
1866.07120,0.02629
1865.10682,0.02637
1864.14244,0.02640
1863.17806,0.02636
1862.21369,0.02632
1861.24931,0.02632
1860.28493,0.02638
1859.32055,0.02641
1858.35618,0.02637
1857.39180,0.02628
1856.42742,0.02625
1855.46304,0.02630
1854.49866,0.02639
1853.53429,0.02645
1852.56991,0.02647
1851.60553,0.02648
1850.64115,0.02651
1849.67677,0.02654
1848.71240,0.02653
1847.74802,0.02649
1846.78364,0.02645
1845.81926,0.02647
1844.85488,0.02649
1843.89051,0.02648
1842.92613,0.02648
1841.96175,0.02650
1840.99737,0.02660
1840.03300,0.02666
1839.06862,0.02665
1838.10424,0.02664
1837.13986,0.02664
1836.17548,0.02667
1835.21111,0.02672
1834.24673,0.02676
1833.28235,0.02679
1832.31797,0.02679
1831.35359,0.02681
1830.38922,0.02689
1829.42484,0.02701
1828.46046,0.02707
1827.49608,0.02712
1826.53171,0.02722
1825.56733,0.02732
1824.60295,0.02740
1823.63857,0.02747
1822.67419,0.02750
1821.70982,0.02753
1820.74544,0.02755
1819.78106,0.02755
1818.81668,0.02756
1817.85230,0.02758
1816.88793,0.02763
1815.92355,0.02770
1814.95917,0.02776
1813.99479,0.02782
1813.03041,0.02789
1812.06604,0.02798
1811.10166,0.02804
1810.13728,0.02808
1809.17290,0.02811
1808.20853,0.02812
1807.24415,0.02815
1806.27977,0.02817
1805.31539,0.02819
1804.35101,0.02819
1803.38664,0.02819
1802.42226,0.02819
1801.45788,0.02820
1800.49350,0.02825
1799.52912,0.02829
1798.56475,0.02833
1797.60037,0.02839
1796.63599,0.02842
1795.67161,0.02845
1794.70724,0.02847
1793.74286,0.02847
1792.77848,0.02846
1791.81410,0.02845
1790.84972,0.02846
1789.88535,0.02851
1788.92097,0.02858
1787.95659,0.02866
1786.99221,0.02873
1786.02783,0.02879
1785.06346,0.02882
1784.09908,0.02887
1783.13470,0.02893
1782.17032,0.02899
1781.20594,0.02907
1780.24157,0.02916
1779.27719,0.02929
1778.31281,0.02942
1777.34843,0.02958
1776.38406,0.02974
1775.41968,0.02990
1774.45530,0.03004
1773.49092,0.03018
1772.52654,0.03034
1771.56217,0.03052
1770.59779,0.03068
1769.63341,0.03083
1768.66903,0.03098
1767.70465,0.03114
1766.74028,0.03131
1765.77590,0.03150
1764.81152,0.03170
1763.84714,0.03191
1762.88276,0.03212
1761.91839,0.03233
1760.95401,0.03255
1759.98963,0.03275
1759.02525,0.03293
1758.06088,0.03312
1757.09650,0.03334
1756.13212,0.03358
1755.16774,0.03382
1754.20336,0.03406
1753.23899,0.03431
1752.27461,0.03461
1751.31023,0.03490
1750.34585,0.03517
1749.38147,0.03541
1748.41710,0.03564
1747.45272,0.03587
1746.48834,0.03610
1745.52396,0.03634
1744.55959,0.03655
1743.59521,0.03673
1742.63083,0.03690
1741.66645,0.03709
1740.70207,0.03728
1739.73770,0.03745
1738.77332,0.03761
1737.80894,0.03778
1736.84456,0.03791
1735.88018,0.03802
1734.91581,0.03810
1733.95143,0.03815
1732.98705,0.03818
1732.02267,0.03823
1731.05829,0.03828
1730.09392,0.03832
1729.12954,0.03835
1728.16516,0.03838
1727.20078,0.03843
1726.23641,0.03847
1725.27203,0.03848
1724.30765,0.03847
1723.34327,0.03846
1722.37889,0.03844
1721.41452,0.03844
1720.45014,0.03846
1719.48576,0.03848
1718.52138,0.03848
1717.55700,0.03845
1716.59263,0.03841
1715.62825,0.03837
1714.66387,0.03833
1713.69949,0.03827
1712.73512,0.03821
1711.77074,0.03816
1710.80636,0.03809
1709.84198,0.03800
1708.87760,0.03791
1707.91323,0.03786
1706.94885,0.03781
1705.98447,0.03776
1705.02009,0.03774
1704.05571,0.03774
1703.09134,0.03776
1702.12696,0.03780
1701.16258,0.03785
1700.19820,0.03787
1699.23382,0.03784
1698.26945,0.03778
1697.30507,0.03772
1696.34069,0.03770
1695.37631,0.03768
1694.41194,0.03766
1693.44756,0.03765
1692.48318,0.03765
1691.51880,0.03769
1690.55442,0.03775
1689.59005,0.03781
1688.62567,0.03788
1687.66129,0.03793
1686.69691,0.03801
1685.73253,0.03812
1684.76816,0.03824
1683.80378,0.03836
1682.83940,0.03850
1681.87502,0.03863
1680.91065,0.03879
1679.94627,0.03896
1678.98189,0.03913
1678.01751,0.03933
1677.05313,0.03955
1676.08876,0.03979
1675.12438,0.04004
1674.16000,0.04030
1673.19562,0.04055
1672.23124,0.04080
1671.26687,0.04107
1670.30249,0.04135
1669.33811,0.04161
1668.37373,0.04187
1667.40935,0.04212
1666.44498,0.04241
1665.48060,0.04272
1664.51622,0.04305
1663.55184,0.04341
1662.58747,0.04377
1661.62309,0.04413
1660.65871,0.04450
1659.69433,0.04489
1658.72995,0.04528
1657.76558,0.04566
1656.80120,0.04603
1655.83682,0.04638
1654.87244,0.04674
1653.90806,0.04709
1652.94369,0.04742
1651.97931,0.04775
1651.01493,0.04807
1650.05055,0.04837
1649.08618,0.04864
1648.12180,0.04889
1647.15742,0.04913
1646.19304,0.04937
1645.22866,0.04962
1644.26429,0.04986
1643.29991,0.05011
1642.33553,0.05035
1641.37115,0.05060
1640.40677,0.05085
1639.44240,0.05112
1638.47802,0.05137
1637.51364,0.05160
1636.54926,0.05181
1635.58488,0.05201
1634.62051,0.05219
1633.65613,0.05238
1632.69175,0.05257
1631.72737,0.05275
1630.76300,0.05294
1629.79862,0.05311
1628.83424,0.05328
1627.86986,0.05344
1626.90548,0.05359
1625.94111,0.05373
1624.97673,0.05383
1624.01235,0.05391
1623.04797,0.05398
1622.08359,0.05404
1621.11922,0.05407
1620.15484,0.05409
1619.19046,0.05409
1618.22608,0.05407
1617.26171,0.05405
1616.29733,0.05399
1615.33295,0.05394
1614.36857,0.05388
1613.40419,0.05383
1612.43982,0.05380
1611.47544,0.05378
1610.51106,0.05375
1609.54668,0.05372
1608.58230,0.05371
1607.61793,0.05372
1606.65355,0.05375
1605.68917,0.05378
1604.72479,0.05382
1603.76041,0.05386
1602.79604,0.05389
1601.83166,0.05393
1600.86728,0.05399
1599.90290,0.05404
1598.93853,0.05410
1597.97415,0.05416
1597.00977,0.05424
1596.04539,0.05432
1595.08101,0.05441
1594.11664,0.05450
1593.15226,0.05457
1592.18788,0.05463
1591.22350,0.05465
1590.25912,0.05466
1589.29475,0.05466
1588.33037,0.05465
1587.36599,0.05463
1586.40161,0.05459
1585.43724,0.05451
1584.47286,0.05441
1583.50848,0.05430
1582.54410,0.05418
1581.57972,0.05404
1580.61535,0.05386
1579.65097,0.05366
1578.68659,0.05346
1577.72221,0.05325
1576.75783,0.05302
1575.79346,0.05277
1574.82908,0.05248
1573.86470,0.05218
1572.90032,0.05186
1571.93594,0.05155
1570.97157,0.05124
1570.00719,0.05092
1569.04281,0.05058
1568.07843,0.05026
1567.11406,0.04994
1566.14968,0.04961
1565.18530,0.04930
1564.22092,0.04900
1563.25654,0.04869
1562.29217,0.04840
1561.32779,0.04811
1560.36341,0.04785
1559.39903,0.04759
1558.43465,0.04733
1557.47028,0.04705
1556.50590,0.04678
1555.54152,0.04651
1554.57714,0.04623
1553.61276,0.04597
1552.64839,0.04571
1551.68401,0.04545
1550.71963,0.04521
1549.75525,0.04499
1548.79088,0.04479
1547.82650,0.04459
1546.86212,0.04439
1545.89774,0.04418
1544.93336,0.04399
1543.96899,0.04381
1543.00461,0.04362
1542.04023,0.04343
1541.07585,0.04324
1540.11147,0.04304
1539.14710,0.04285
1538.18272,0.04266
1537.21834,0.04247
1536.25396,0.04227
1535.28959,0.04207
1534.32521,0.04187
1533.36083,0.04169
1532.39645,0.04151
1531.43207,0.04133
1530.46770,0.04116
1529.50332,0.04099
1528.53894,0.04084
1527.57456,0.04072
1526.61018,0.04060
1525.64581,0.04049
1524.68143,0.04038
1523.71705,0.04028
1522.75267,0.04018
1521.78829,0.04008
1520.82392,0.03999
1519.85954,0.03992
1518.89516,0.03987
1517.93078,0.03982
1516.96641,0.03979
1516.00203,0.03976
1515.03765,0.03973
1514.07327,0.03968
1513.10889,0.03962
1512.14452,0.03955
1511.18014,0.03948
1510.21576,0.03942
1509.25138,0.03935
1508.28700,0.03927
1507.32263,0.03921
1506.35825,0.03914
1505.39387,0.03908
1504.42949,0.03901
1503.46512,0.03895
1502.50074,0.03889
1501.53636,0.03884
1500.57198,0.03880
1499.60760,0.03878
1498.64323,0.03875
1497.67885,0.03870
1496.71447,0.03866
1495.75009,0.03862
1494.78571,0.03860
1493.82134,0.03858
1492.85696,0.03857
1491.89258,0.03858
1490.92820,0.03862
1489.96382,0.03865
1488.99945,0.03868
1488.03507,0.03870
1487.07069,0.03873
1486.10631,0.03877
1485.14194,0.03881
1484.17756,0.03886
1483.21318,0.03893
1482.24880,0.03901
1481.28442,0.03911
1480.32005,0.03924
1479.35567,0.03938
1478.39129,0.03953
1477.42691,0.03968
1476.46253,0.03984
1475.49816,0.04001
1474.53378,0.04019
1473.56940,0.04037
1472.60502,0.04055
1471.64065,0.04075
1470.67627,0.04094
1469.71189,0.04113
1468.74751,0.04132
1467.78313,0.04150
1466.81876,0.04168
1465.85438,0.04186
1464.89000,0.04204
1463.92562,0.04220
1462.96124,0.04234
1461.99687,0.04250
1461.03249,0.04268
1460.06811,0.04285
1459.10373,0.04301
1458.13935,0.04315
1457.17498,0.04328
1456.21060,0.04341
1455.24622,0.04357
1454.28184,0.04373
1453.31747,0.04387
1452.35309,0.04398
1451.38871,0.04410
1450.42433,0.04424
1449.45995,0.04440
1448.49558,0.04456
1447.53120,0.04470
1446.56682,0.04483
1445.60244,0.04495
1444.63806,0.04507
1443.67369,0.04520
1442.70931,0.04534
1441.74493,0.04549
1440.78055,0.04564
1439.81618,0.04579
1438.85180,0.04594
1437.88742,0.04612
1436.92304,0.04630
1435.95866,0.04648
1434.99429,0.04665
1434.02991,0.04679
1433.06553,0.04693
1432.10115,0.04709
1431.13677,0.04727
1430.17240,0.04746
1429.20802,0.04766
1428.24364,0.04784
1427.27926,0.04803
1426.31488,0.04822
1425.35051,0.04843
1424.38613,0.04867
1423.42175,0.04890
1422.45737,0.04914
1421.49300,0.04936
1420.52862,0.04956
1419.56424,0.04976
1418.59986,0.04994
1417.63548,0.05012
1416.67111,0.05030
1415.70673,0.05046
1414.74235,0.05062
1413.77797,0.05079
1412.81359,0.05096
1411.84922,0.05112
1410.88484,0.05127
1409.92046,0.05141
1408.95608,0.05153
1407.99171,0.05166
1407.02733,0.05179
1406.06295,0.05190
1405.09857,0.05202
1404.13419,0.05213
1403.16982,0.05224
1402.20544,0.05234
1401.24106,0.05243
1400.27668,0.05252
1399.31230,0.05261
1398.34793,0.05270
1397.38355,0.05280
1396.41917,0.05288
1395.45479,0.05297
1394.49041,0.05306
1393.52604,0.05315
1392.56166,0.05323
1391.59728,0.05331
1390.63290,0.05339
1389.66853,0.05346
1388.70415,0.05353
1387.73977,0.05358
1386.77539,0.05363
1385.81101,0.05367
1384.84664,0.05370
1383.88226,0.05373
1382.91788,0.05378
1381.95350,0.05381
1380.98912,0.05382
1380.02475,0.05383
1379.06037,0.05385
1378.09599,0.05389
1377.13161,0.05390
1376.16724,0.05390
1375.20286,0.05387
1374.23848,0.05385
1373.27410,0.05382
1372.30972,0.05379
1371.34535,0.05376
1370.38097,0.05370
1369.41659,0.05363
1368.45221,0.05357
1367.48783,0.05353
1366.52346,0.05349
1365.55908,0.05344
1364.59470,0.05339
1363.63032,0.05333
1362.66594,0.05327
1361.70157,0.05322
1360.73719,0.05318
1359.77281,0.05315
1358.80843,0.05310
1357.84406,0.05305
1356.87968,0.05300
1355.91530,0.05296
1354.95092,0.05291
1353.98654,0.05284
1353.02217,0.05275
1352.05779,0.05267
1351.09341,0.05260
1350.12903,0.05253
1349.16465,0.05245
1348.20028,0.05235
1347.23590,0.05228
1346.27152,0.05226
1345.30714,0.05224
1344.34276,0.05219
1343.37839,0.05209
1342.41401,0.05199
1341.44963,0.05190
1340.48525,0.05182
1339.52088,0.05171
1338.55650,0.05153
1337.59212,0.05136
1336.62774,0.05123
1335.66336,0.05114
1334.69899,0.05105
1333.73461,0.05091
1332.77023,0.05077
1331.80585,0.05066
1330.84147,0.05059
1329.87710,0.05050
1328.91272,0.05038
1327.94834,0.05023
1326.98396,0.05010
1326.01959,0.05003
1325.05521,0.04996
1324.09083,0.04989
1323.12645,0.04981
1322.16207,0.04974
1321.19770,0.04971
1320.23332,0.04971
1319.26894,0.04970
1318.30456,0.04967
1317.34018,0.04965
1316.37581,0.04964
1315.41143,0.04966
1314.44705,0.04967
1313.48267,0.04966
1312.51829,0.04962
1311.55392,0.04961
1310.58954,0.04971
1309.62516,0.04988
1308.66078,0.05005
1307.69641,0.05022
1306.73203,0.05038
1305.76765,0.05048
1304.80327,0.05052
1303.83889,0.05047
1302.87452,0.05034
1301.91014,0.05014
1300.94576,0.04989
1299.98138,0.04970
1299.01700,0.04964
1298.05263,0.04963
1297.08825,0.04965
1296.12387,0.04970
1295.15949,0.04975
1294.19512,0.04978
1293.23074,0.04980
1292.26636,0.04982
1291.30198,0.04983
1290.33760,0.04983
1289.37323,0.04982
1288.40885,0.04985
1287.44447,0.04992
1286.48009,0.05000
1285.51571,0.05008
1284.55134,0.05015
1283.58696,0.05018
1282.62258,0.05021
1281.65820,0.05027
1280.69382,0.05034
1279.72945,0.05041
1278.76507,0.05047
1277.80069,0.05053
1276.83631,0.05061
1275.87194,0.05071
1274.90756,0.05081
1273.94318,0.05090
1272.97880,0.05100
1272.01442,0.05109
1271.05005,0.05119
1270.08567,0.05128
1269.12129,0.05136
1268.15691,0.05145
1267.19253,0.05154
1266.22816,0.05162
1265.26378,0.05170
1264.29940,0.05178
1263.33502,0.05184
1262.37065,0.05189
1261.40627,0.05195
1260.44189,0.05199
1259.47751,0.05202
1258.51313,0.05207
1257.54876,0.05214
1256.58438,0.05223
1255.62000,0.05235
1254.65562,0.05246
1253.69124,0.05258
1252.72687,0.05270
1251.76249,0.05281
1250.79811,0.05293
1249.83373,0.05305
1248.86935,0.05313
1247.90498,0.05320
1246.94060,0.05329
1245.97622,0.05336
1245.01184,0.05341
1244.04747,0.05344
1243.08309,0.05345
1242.11871,0.05346
1241.15433,0.05349
1240.18995,0.05352
1239.22558,0.05356
1238.26120,0.05358
1237.29682,0.05357
1236.33244,0.05356
1235.36806,0.05355
1234.40369,0.05355
1233.43931,0.05356
1232.47493,0.05358
1231.51055,0.05359
1230.54618,0.05362
1229.58180,0.05364
1228.61742,0.05365
1227.65304,0.05364
1226.68866,0.05363
1225.72429,0.05358
1224.75991,0.05353
1223.79553,0.05347
1222.83115,0.05341
1221.86677,0.05336
1220.90240,0.05331
1219.93802,0.05324
1218.97364,0.05317
1218.00926,0.05309
1217.04488,0.05300
1216.08051,0.05292
1215.11613,0.05282
1214.15175,0.05272
1213.18737,0.05262
1212.22300,0.05252
1211.25862,0.05244
1210.29424,0.05236
1209.32986,0.05229
1208.36548,0.05222
1207.40111,0.05216
1206.43673,0.05210
1205.47235,0.05204
1204.50797,0.05195
1203.54359,0.05185
1202.57922,0.05175
1201.61484,0.05166
1200.65046,0.05157
1199.68608,0.05150
1198.72171,0.05143
1197.75733,0.05139
1196.79295,0.05136
1195.82857,0.05137
1194.86419,0.05139
1193.89982,0.05141
1192.93544,0.05142
1191.97106,0.05142
1191.00668,0.05141
1190.04230,0.05137
1189.07793,0.05133
1188.11355,0.05129
1187.14917,0.05127
1186.18479,0.05125
1185.22041,0.05124
1184.25604,0.05125
1183.29166,0.05127
1182.32728,0.05130
1181.36290,0.05134
1180.39853,0.05137
1179.43415,0.05139
1178.46977,0.05141
1177.50539,0.05145
1176.54101,0.05150
1175.57664,0.05156
1174.61226,0.05160
1173.64788,0.05164
1172.68350,0.05167
1171.71912,0.05170
1170.75475,0.05174
1169.79037,0.05178
1168.82599,0.05181
1167.86161,0.05183
1166.89724,0.05186
1165.93286,0.05192
1164.96848,0.05197
1164.00410,0.05202
1163.03972,0.05205
1162.07535,0.05208
1161.11097,0.05211
1160.14659,0.05217
1159.18221,0.05225
1158.21783,0.05232
1157.25346,0.05237
1156.28908,0.05240
1155.32470,0.05243
1154.36032,0.05247
1153.39594,0.05250
1152.43157,0.05253
1151.46719,0.05254
1150.50281,0.05257
1149.53843,0.05263
1148.57406,0.05270
1147.60968,0.05277
1146.64530,0.05281
1145.68092,0.05285
1144.71654,0.05288
1143.75217,0.05291
1142.78779,0.05295
1141.82341,0.05300
1140.85903,0.05304
1139.89465,0.05311
1138.93028,0.05322
1137.96590,0.05333
1137.00152,0.05342
1136.03714,0.05351
1135.07276,0.05359
1134.10839,0.05365
1133.14401,0.05374
1132.17963,0.05383
1131.21525,0.05395
1130.25088,0.05408
1129.28650,0.05422
1128.32212,0.05437
1127.35774,0.05452
1126.39336,0.05466
1125.42899,0.05479
1124.46461,0.05492
1123.50023,0.05503
1122.53585,0.05513
1121.57147,0.05525
1120.60710,0.05537
1119.64272,0.05549
1118.67834,0.05559
1117.71396,0.05565
1116.74959,0.05570
1115.78521,0.05572
1114.82083,0.05573
1113.85645,0.05575
1112.89207,0.05576
1111.92770,0.05577
1110.96332,0.05580
1109.99894,0.05585
1109.03456,0.05589
1108.07018,0.05592
1107.10581,0.05596
1106.14143,0.05601
1105.17705,0.05606
1104.21267,0.05610
1103.24829,0.05614
1102.28392,0.05618
1101.31954,0.05621
1100.35516,0.05627
1099.39078,0.05634
1098.42641,0.05638
1097.46203,0.05637
1096.49765,0.05636
1095.53327,0.05636
1094.56889,0.05637
1093.60452,0.05640
1092.64014,0.05644
1091.67576,0.05649
1090.71138,0.05653
1089.74700,0.05658
1088.78263,0.05667
1087.81825,0.05675
1086.85387,0.05681
1085.88949,0.05684
1084.92512,0.05686
1083.96074,0.05687
1082.99636,0.05687
1082.03198,0.05688
1081.06760,0.05690
1080.10323,0.05688
1079.13885,0.05684
1078.17447,0.05681
1077.21009,0.05682
1076.24571,0.05681
1075.28134,0.05676
1074.31696,0.05669
1073.35258,0.05659
1072.38820,0.05646
1071.42382,0.05634
1070.45945,0.05624
1069.49507,0.05612
1068.53069,0.05598
1067.56631,0.05584
1066.60194,0.05574
1065.63756,0.05563
1064.67318,0.05547
1063.70880,0.05532
1062.74442,0.05515
1061.78005,0.05496
1060.81567,0.05476
1059.85129,0.05457
1058.88691,0.05438
1057.92253,0.05420
1056.95816,0.05401
1055.99378,0.05381
1055.02940,0.05362
1054.06502,0.05342
1053.10065,0.05323
1052.13627,0.05306
1051.17189,0.05288
1050.20751,0.05269
1049.24313,0.05250
1048.27876,0.05229
1047.31438,0.05207
1046.35000,0.05184
1045.38562,0.05161
1044.42124,0.05135
1043.45687,0.05110
1042.49249,0.05084
1041.52811,0.05057
1040.56373,0.05031
1039.59935,0.05005
1038.63498,0.04979
1037.67060,0.04950
1036.70622,0.04922
1035.74184,0.04892
1034.77747,0.04863
1033.81309,0.04833
1032.84871,0.04802
1031.88433,0.04771
1030.91995,0.04739
1029.95558,0.04707
1028.99120,0.04677
1028.02682,0.04650
1027.06244,0.04623
1026.09806,0.04599
1025.13369,0.04577
1024.16931,0.04557
1023.20493,0.04540
1022.24055,0.04523
1021.27618,0.04503
1020.31180,0.04482
1019.34742,0.04461
1018.38304,0.04440
1017.41866,0.04420
1016.45429,0.04400
1015.48991,0.04379
1014.52553,0.04360
1013.56115,0.04344
1012.59677,0.04330
1011.63240,0.04315
1010.66802,0.04297
1009.70364,0.04281
1008.73926,0.04268
1007.77488,0.04258
1006.81051,0.04249
1005.84613,0.04241
1004.88175,0.04234
1003.91737,0.04230
1002.95300,0.04226
1001.98862,0.04220
1001.02424,0.04213
1000.05986,0.04204
999.09548,0.04196
998.13111,0.04190
997.16673,0.04186
996.20235,0.04182
995.23797,0.04180
994.27359,0.04179
993.30922,0.04181
992.34484,0.04181
991.38046,0.04179
990.41608,0.04174
989.45171,0.04170
988.48733,0.04166
987.52295,0.04161
986.55857,0.04156
985.59419,0.04151
984.62982,0.04148
983.66544,0.04146
982.70106,0.04140
981.73668,0.04131
980.77230,0.04123
979.80793,0.04117
978.84355,0.04108
977.87917,0.04098
976.91479,0.04089
975.95041,0.04081
974.98604,0.04076
974.02166,0.04072
973.05728,0.04064
972.09290,0.04054
971.12853,0.04042
970.16415,0.04026
969.19977,0.04012
968.23539,0.03997
967.27101,0.03982
966.30664,0.03967
965.34226,0.03953
964.37788,0.03939
963.41350,0.03927
962.44912,0.03912
961.48475,0.03894
960.52037,0.03878
959.55599,0.03863
958.59161,0.03848
957.62724,0.03832
956.66286,0.03816
955.69848,0.03801
954.73410,0.03790
953.76972,0.03781
952.80535,0.03773
951.84097,0.03764
950.87659,0.03755
949.91221,0.03749
948.94783,0.03745
947.98346,0.03741
947.01908,0.03735
946.05470,0.03724
945.09032,0.03711
944.12594,0.03700
943.16157,0.03688
942.19719,0.03674
941.23281,0.03660
940.26843,0.03646
939.30406,0.03632
938.33968,0.03619
937.37530,0.03609
936.41092,0.03597
935.44654,0.03585
934.48217,0.03576
933.51779,0.03571
932.55341,0.03566
931.58903,0.03559
930.62465,0.03552
929.66028,0.03549
928.69590,0.03545
927.73152,0.03538
926.76714,0.03528
925.80276,0.03517
924.83839,0.03504
923.87401,0.03493
922.90963,0.03486
921.94525,0.03478
920.98088,0.03468
920.01650,0.03458
919.05212,0.03450
918.08774,0.03443
917.12336,0.03435
916.15899,0.03425
915.19461,0.03417
914.23023,0.03412
913.26585,0.03405
912.30147,0.03400
911.33710,0.03397
910.37272,0.03393
909.40834,0.03390
908.44396,0.03390
907.47959,0.03386
906.51521,0.03378
905.55083,0.03370
904.58645,0.03363
903.62207,0.03358
902.65770,0.03352
901.69332,0.03341
900.72894,0.03328
899.76456,0.03316
898.80018,0.03309
897.83581,0.03307
896.87143,0.03307
895.90705,0.03306
894.94267,0.03304
893.97829,0.03307
893.01392,0.03313
892.04954,0.03320
891.08516,0.03324
890.12078,0.03322
889.15641,0.03317
888.19203,0.03315
887.22765,0.03313
886.26327,0.03310
885.29889,0.03308
884.33452,0.03307
883.37014,0.03308
882.40576,0.03313
881.44138,0.03318
880.47700,0.03324
879.51263,0.03332
878.54825,0.03339
877.58387,0.03346
876.61949,0.03353
875.65512,0.03359
874.69074,0.03363
873.72636,0.03368
872.76198,0.03375
871.79760,0.03380
870.83323,0.03383
869.86885,0.03386
868.90447,0.03393
867.94009,0.03402
866.97571,0.03411
866.01134,0.03421
865.04696,0.03428
864.08258,0.03435
863.11820,0.03440
862.15382,0.03443
861.18945,0.03445
860.22507,0.03446
859.26069,0.03447
858.29631,0.03450
857.33194,0.03454
856.36756,0.03460
855.40318,0.03466
854.43880,0.03473
853.47442,0.03476
852.51005,0.03479
851.54567,0.03483
850.58129,0.03485
849.61691,0.03488
848.65253,0.03493
847.68816,0.03499
846.72378,0.03504
845.75940,0.03512
844.79502,0.03520
843.83065,0.03523
842.86627,0.03520
841.90189,0.03516
840.93751,0.03511
839.97313,0.03507
839.00876,0.03501
838.04438,0.03498
837.08000,0.03500
836.11562,0.03506
835.15124,0.03510
834.18687,0.03514
833.22249,0.03517
832.25811,0.03516
831.29373,0.03512
830.32935,0.03505
829.36498,0.03498
828.40060,0.03494
827.43622,0.03491
826.47184,0.03492
825.50747,0.03493
824.54309,0.03492
823.57871,0.03490
822.61433,0.03486
821.64995,0.03482
820.68558,0.03480
819.72120,0.03478
818.75682,0.03475
817.79244,0.03476
816.82806,0.03476
815.86369,0.03473
814.89931,0.03468
813.93493,0.03464
812.97055,0.03463
812.00618,0.03465
811.04180,0.03464
810.07742,0.03462
809.11304,0.03462
808.14866,0.03464
807.18429,0.03463
806.21991,0.03462
805.25553,0.03457
804.29115,0.03451
803.32677,0.03445
802.36240,0.03440
801.39802,0.03439
800.43364,0.03440
799.46926,0.03441
798.50488,0.03441
797.54051,0.03442
796.57613,0.03443
795.61175,0.03444
794.64737,0.03444
793.68300,0.03446
792.71862,0.03448
791.75424,0.03446
790.78986,0.03443
789.82548,0.03445
788.86111,0.03448
787.89673,0.03447
786.93235,0.03445
785.96797,0.03446
785.00359,0.03447
784.03922,0.03444
783.07484,0.03436
782.11046,0.03429
781.14608,0.03428
780.18171,0.03429
779.21733,0.03432
778.25295,0.03436
777.28857,0.03436
776.32419,0.03434
775.35982,0.03432
774.39544,0.03431
773.43106,0.03426
772.46668,0.03417
771.50230,0.03408
770.53793,0.03404
769.57355,0.03404
768.60917,0.03405
767.64479,0.03408
766.68041,0.03410
765.71604,0.03411
764.75166,0.03410
763.78728,0.03410
762.82290,0.03410
761.85853,0.03408
760.89415,0.03403
759.92977,0.03397
758.96539,0.03393
758.00101,0.03388
757.03664,0.03385
756.07226,0.03384
755.10788,0.03387
754.14350,0.03392
753.17912,0.03398
752.21475,0.03406
751.25037,0.03410
750.28599,0.03411
749.32161,0.03411
748.35724,0.03408
747.39286,0.03402
746.42848,0.03397
745.46410,0.03393
744.49972,0.03392
743.53535,0.03399
742.57097,0.03410
741.60659,0.03417
740.64221,0.03422
739.67783,0.03426
738.71346,0.03434
737.74908,0.03443
736.78470,0.03447
735.82032,0.03451
734.85594,0.03454
733.89157,0.03452
732.92719,0.03451
731.96281,0.03454
730.99843,0.03457
730.03406,0.03459
729.06968,0.03458
728.10530,0.03458
727.14092,0.03463
726.17654,0.03468
725.21217,0.03472
724.24779,0.03477
723.28341,0.03479
722.31903,0.03481
721.35465,0.03485
720.39028,0.03491
719.42590,0.03497
718.46152,0.03501
717.49714,0.03502
716.53276,0.03504
715.56839,0.03508
714.60401,0.03510
713.63963,0.03511
712.67525,0.03513
711.71088,0.03516
710.74650,0.03525
709.78212,0.03535
708.81774,0.03543
707.85336,0.03549
706.88899,0.03555
705.92461,0.03558
704.96023,0.03561
703.99585,0.03563
703.03147,0.03561
702.06710,0.03559
701.10272,0.03559
700.13834,0.03559
699.17396,0.03563
698.20959,0.03569
697.24521,0.03573
696.28083,0.03578
695.31645,0.03582
694.35207,0.03585
693.38770,0.03587
692.42332,0.03587
691.45894,0.03583
690.49456,0.03580
689.53018,0.03583
688.56581,0.03592
687.60143,0.03601
686.63705,0.03611
685.67267,0.03619
684.70829,0.03627
683.74392,0.03633
682.77954,0.03636
681.81516,0.03636
680.85078,0.03633
679.88641,0.03627
678.92203,0.03624
677.95765,0.03624
676.99327,0.03624
676.02889,0.03622
675.06452,0.03616
674.10014,0.03605
673.13576,0.03610
672.17138,0.03637
671.20700,0.03667
670.24263,0.03688
669.27825,0.03702
668.31387,0.03710
667.34949,0.03716
666.38512,0.03714
665.42074,0.03706
664.45636,0.03692
663.49198,0.03671
662.52760,0.03652
661.56323,0.03655
660.59885,0.03673
659.63447,0.03684
658.67009,0.03690
657.70571,0.03699
656.74134,0.03707
655.77696,0.03715
654.81258,0.03718
653.84820,0.03722
652.88382,0.03728
651.91945,0.03731
650.95507,0.03734
649.99069,0.03740
649.02631,0.03748
648.06194,0.03754
647.09756,0.03759
646.13318,0.03764
645.16880,0.03771
644.20442,0.03776
643.24005,0.03781
642.27567,0.03789
641.31129,0.03800
640.34691,0.03809
639.38253,0.03816
638.41816,0.03822
637.45378,0.03823
636.48940,0.03818
635.52502,0.03808
634.56065,0.03800
633.59627,0.03800
632.63189,0.03804
631.66751,0.03811
630.70313,0.03820
629.73876,0.03842
628.77438,0.03867
627.81000,0.03865
626.84562,0.03897
625.88124,0.04003
624.91687,0.04144
623.95249,0.04231
622.98811,0.04249
622.02373,0.04212
621.05935,0.04150
620.09498,0.04122
619.13060,0.04091
618.16622,0.04045
617.20184,0.03948
616.23747,0.03759
615.27309,0.03602
614.30871,0.03588
613.34433,0.03694
612.37995,0.03761
611.41558,0.03761
610.45120,0.03727
609.48682,0.03740
608.52244,0.03850
607.55806,0.03948
606.59369,0.04004
605.62931,0.03989
604.66493,0.03894
603.70055,0.03822
602.73618,0.03848
601.77180,0.03921
600.80742,0.03929
599.84304,0.03882
598.87866,0.03829
597.91429,0.03818
596.94991,0.03840
595.98553,0.03838
595.02115,0.03829
594.05677,0.03817
593.09240,0.03808
592.12802,0.03804
591.16364,0.03790
590.19926,0.03775
589.23488,0.03775
588.27051,0.03786
587.30613,0.03801
586.34175,0.03819
585.37737,0.03824
584.41300,0.03814
583.44862,0.03805
582.48424,0.03799
581.51986,0.03801
580.55548,0.03795
579.59111,0.03777
578.62673,0.03767
577.66235,0.03768
576.69797,0.03770
575.73359,0.03771
574.76922,0.03776
573.80484,0.03780
572.84046,0.03788
571.87608,0.03799
570.91171,0.03804
569.94733,0.03800
568.98295,0.03780
568.01857,0.03761
567.05419,0.03753
566.08982,0.03743
565.12544,0.03737
564.16106,0.03734
563.19668,0.03734
562.23230,0.03742
561.26793,0.03751
560.30355,0.03754
559.33917,0.03745
558.37479,0.03734
557.41041,0.03732
556.44604,0.03735
555.48166,0.03732
554.51728,0.03725
553.55290,0.03731
552.58853,0.03742
551.62415,0.03750
550.65977,0.03768
549.69539,0.03785
548.73101,0.03790
547.76664,0.03791
546.80226,0.03793
545.83788,0.03800
544.87350,0.03802
543.90912,0.03798
542.94475,0.03799
541.98037,0.03799
541.01599,0.03787
540.05161,0.03767
539.08724,0.03755
538.12286,0.03741
537.15848,0.03719
536.19410,0.03703
535.22972,0.03698
534.26535,0.03697
533.30097,0.03698
532.33659,0.03707
531.37221,0.03724
530.40783,0.03731
529.44346,0.03725
528.47908,0.03713
527.51470,0.03703
526.55032,0.03692
525.58594,0.03681
524.62157,0.03689
523.65719,0.03703
522.69281,0.03703
521.72843,0.03701
520.76406,0.03711
519.79968,0.03727
518.83530,0.03732
517.87092,0.03726
516.90654,0.03714
515.94217,0.03704
514.97779,0.03704
514.01341,0.03709
513.04903,0.03717
512.08465,0.03720
511.12028,0.03712
510.15590,0.03700
509.19152,0.03694
508.22714,0.03690
507.26276,0.03686
506.29839,0.03679
505.33401,0.03669
504.36963,0.03662
503.40525,0.03662
502.44088,0.03660
501.47650,0.03653
500.51212,0.03647
499.54774,0.03644
498.58336,0.03647
497.61899,0.03657
496.65461,0.03663
495.69023,0.03665
494.72585,0.03653
493.76147,0.03631
492.79710,0.03619
491.83272,0.03613
490.86834,0.03600
489.90396,0.03580
488.93959,0.03572
487.97521,0.03583
487.01083,0.03602
486.04645,0.03621
485.08207,0.03632
484.11770,0.03632
483.15332,0.03620
482.18894,0.03616
481.22456,0.03621
480.26018,0.03609
479.29581,0.03581
478.33143,0.03559
477.36705,0.03559
476.40267,0.03572
475.43829,0.03578
474.47392,0.03586
473.50954,0.03595
472.54516,0.03595
471.58078,0.03594
470.61641,0.03598
469.65203,0.03591
468.68765,0.03568
467.72327,0.03547
466.75889,0.03541
465.79452,0.03547
464.83014,0.03550
463.86576,0.03550
462.90138,0.03558
461.93700,0.03567
460.97263,0.03570
460.00825,0.03572
459.04387,0.03575
458.07949,0.03569
457.11512,0.03551
456.15074,0.03530
455.18636,0.03515
454.22198,0.03503
453.25760,0.03489
452.29323,0.03477
451.32885,0.03473
450.36447,0.03466
449.40009,0.03458
448.43571,0.03457
447.47134,0.03458
446.50696,0.03458
445.54258,0.03454
444.57820,0.03450
443.61382,0.03450
442.64945,0.03445
441.68507,0.03439
440.72069,0.03435
439.75631,0.03430
438.79194,0.03420
437.82756,0.03409
436.86318,0.03405
435.89880,0.03399
434.93442,0.03392
433.97005,0.03385
433.00567,0.03373
432.04129,0.03358
431.07691,0.03342
430.11253,0.03340
429.14816,0.03345
428.18378,0.03344
427.21940,0.03342
426.25502,0.03339
425.29065,0.03336
424.32627,0.03327
423.36189,0.03317
422.39751,0.03309
421.43313,0.03293
420.46876,0.03277
419.50438,0.03265
418.54000,0.03257
417.57562,0.03248
416.61124,0.03238
415.64687,0.03230
414.68249,0.03220
413.71811,0.03215
412.75373,0.03214
411.78935,0.03216
410.82498,0.03221
409.86060,0.03222
408.89622,0.03220
407.93184,0.03213
406.96747,0.03200
406.00309,0.03182
405.03871,0.03162
404.07433,0.03162
403.10995,0.03162
402.14558,0.03162
401.18120,0.03162
400.21682,0.03162
399.25244,0.03162
