3998.31069,0.03450
3997.34631,0.03450
3996.38194,0.03450
3995.41756,0.03450
3994.45318,0.03450
3993.48880,0.03450
3992.52442,0.03450
3991.56005,0.03453
3990.59567,0.03448
3989.63129,0.03443
3988.66691,0.03440
3987.70253,0.03433
3986.73816,0.03423
3985.77378,0.03419
3984.80940,0.03416
3983.84502,0.03409
3982.88065,0.03408
3981.91627,0.03412
3980.95189,0.03419
3979.98751,0.03424
3979.02313,0.03427
3978.05876,0.03431
3977.09438,0.03433
3976.13000,0.03425
3975.16562,0.03409
3974.20124,0.03395
3973.23687,0.03378
3972.27249,0.03358
3971.30811,0.03347
3970.34373,0.03338
3969.37935,0.03338
3968.41498,0.03342
3967.45060,0.03346
3966.48622,0.03358
3965.52184,0.03366
3964.55747,0.03366
3963.59309,0.03365
3962.62871,0.03363
3961.66433,0.03361
3960.69995,0.03363
3959.73558,0.03367
3958.77120,0.03373
3957.80682,0.03380
3956.84244,0.03385
3955.87806,0.03386
3954.91369,0.03385
3953.94931,0.03377
3952.98493,0.03372
3952.02055,0.03369
3951.05618,0.03366
3950.09180,0.03372
3949.12742,0.03382
3948.16304,0.03391
3947.19866,0.03398
3946.23429,0.03402
3945.26991,0.03406
3944.30553,0.03402
3943.34115,0.03388
3942.37677,0.03378
3941.41240,0.03374
3940.44802,0.03371
3939.48364,0.03370
3938.51926,0.03375
3937.55488,0.03377
3936.59051,0.03377
3935.62613,0.03374
3934.66175,0.03369
3933.69737,0.03364
3932.73300,0.03353
3931.76862,0.03339
3930.80424,0.03334
3929.83986,0.03332
3928.87548,0.03327
3927.91111,0.03322
3926.94673,0.03318
3925.98235,0.03315
3925.01797,0.03320
3924.05359,0.03329
3923.08922,0.03342
3922.12484,0.03352
3921.16046,0.03352
3920.19608,0.03351
3919.23171,0.03350
3918.26733,0.03346
3917.30295,0.03337
3916.33857,0.03327
3915.37419,0.03323
3914.40982,0.03321
3913.44544,0.03319
3912.48106,0.03320
3911.51668,0.03322
3910.55230,0.03318
3909.58793,0.03311
3908.62355,0.03307
3907.65917,0.03299
3906.69479,0.03289
3905.73041,0.03277
3904.76604,0.03270
3903.80166,0.03271
3902.83728,0.03274
3901.87290,0.03278
3900.90853,0.03285
3899.94415,0.03299
3898.97977,0.03314
3898.01539,0.03326
3897.05101,0.03332
3896.08664,0.03335
3895.12226,0.03339
3894.15788,0.03344
3893.19350,0.03343
3892.22912,0.03332
3891.26475,0.03320
3890.30037,0.03311
3889.33599,0.03310
3888.37161,0.03315
3887.40724,0.03313
3886.44286,0.03305
3885.47848,0.03307
3884.51410,0.03326
3883.54972,0.03348
3882.58535,0.03360
3881.62097,0.03361
3880.65659,0.03357
3879.69221,0.03350
3878.72783,0.03341
3877.76346,0.03328
3876.79908,0.03309
3875.83470,0.03285
3874.87032,0.03265
3873.90594,0.03255
3872.94157,0.03254
3871.97719,0.03253
3871.01281,0.03254
3870.04843,0.03263
3869.08406,0.03271
3868.11968,0.03276
3867.15530,0.03282
3866.19092,0.03287
3865.22654,0.03290
3864.26217,0.03292
3863.29779,0.03290
3862.33341,0.03284
3861.36903,0.03276
3860.40465,0.03264
3859.44028,0.03255
3858.47590,0.03244
3857.51152,0.03231
3856.54714,0.03225
3855.58276,0.03223
3854.61839,0.03225
3853.65401,0.03227
3852.68963,0.03228
3851.72525,0.03227
3850.76088,0.03224
3849.79650,0.03218
3848.83212,0.03216
3847.86774,0.03217
3846.90336,0.03215
3845.93899,0.03216
3844.97461,0.03217
3844.01023,0.03217
3843.04585,0.03225
3842.08147,0.03232
3841.11710,0.03234
3840.15272,0.03240
3839.18834,0.03248
3838.22396,0.03254
3837.25959,0.03253
3836.29521,0.03248
3835.33083,0.03248
3834.36645,0.03251
3833.40207,0.03251
3832.43770,0.03255
3831.47332,0.03259
3830.50894,0.03255
3829.54456,0.03248
3828.58018,0.03239
3827.61581,0.03231
3826.65143,0.03219
3825.68705,0.03202
3824.72267,0.03190
3823.75829,0.03188
3822.79392,0.03189
3821.82954,0.03194
3820.86516,0.03206
3819.90078,0.03218
3818.93641,0.03231
3817.97203,0.03240
3817.00765,0.03237
3816.04327,0.03230
3815.07889,0.03217
3814.11452,0.03199
3813.15014,0.03178
3812.18576,0.03165
3811.22138,0.03161
3810.25700,0.03162
3809.29263,0.03167
3808.32825,0.03174
3807.36387,0.03194
3806.39949,0.03214
3805.43512,0.03220
3804.47074,0.03224
3803.50636,0.03225
3802.54198,0.03221
3801.57760,0.03213
3800.61323,0.03210
3799.64885,0.03211
3798.68447,0.03207
3797.72009,0.03203
3796.75571,0.03204
3795.79134,0.03210
3794.82696,0.03212
3793.86258,0.03203
3792.89820,0.03195
3791.93382,0.03184
3790.96945,0.03171
3790.00507,0.03161
3789.04069,0.03154
3788.07631,0.03151
3787.11194,0.03152
3786.14756,0.03155
3785.18318,0.03160
3784.21880,0.03165
3783.25442,0.03171
3782.29005,0.03171
3781.32567,0.03168
3780.36129,0.03169
3779.39691,0.03175
3778.43253,0.03180
3777.46816,0.03177
3776.50378,0.03166
3775.53940,0.03149
3774.57502,0.03133
3773.61065,0.03125
3772.64627,0.03120
3771.68189,0.03119
3770.71751,0.03120
3769.75313,0.03116
3768.78876,0.03118
3767.82438,0.03126
3766.86000,0.03133
3765.89562,0.03137
3764.93124,0.03136
3763.96687,0.03134
3763.00249,0.03135
3762.03811,0.03139
3761.07373,0.03137
3760.10935,0.03136
3759.14498,0.03129
3758.18060,0.03113
3757.21622,0.03107
3756.25184,0.03108
3755.28747,0.03109
3754.32309,0.03116
3753.35871,0.03121
3752.39433,0.03120
3751.42995,0.03117
3750.46558,0.03111
3749.50120,0.03109
3748.53682,0.03111
3747.57244,0.03110
3746.60806,0.03109
3745.64369,0.03107
3744.67931,0.03103
3743.71493,0.03103
3742.75055,0.03105
3741.78618,0.03102
3740.82180,0.03097
3739.85742,0.03096
3738.89304,0.03100
3737.92866,0.03110
3736.96429,0.03120
3735.99991,0.03123
3735.03553,0.03118
3734.07115,0.03107
3733.10677,0.03098
3732.14240,0.03092
3731.17802,0.03090
3730.21364,0.03089
3729.24926,0.03090
3728.28488,0.03093
3727.32051,0.03098
3726.35613,0.03108
3725.39175,0.03122
3724.42737,0.03129
3723.46300,0.03127
3722.49862,0.03120
3721.53424,0.03116
3720.56986,0.03116
3719.60548,0.03113
3718.64111,0.03094
3717.67673,0.03071
3716.71235,0.03056
3715.74797,0.03041
3714.78359,0.03025
3713.81922,0.03012
3712.85484,0.03003
3711.89046,0.03001
3710.92608,0.03008
3709.96171,0.03021
3708.99733,0.03033
3708.03295,0.03044
3707.06857,0.03056
3706.10419,0.03072
3705.13982,0.03085
3704.17544,0.03089
3703.21106,0.03090
3702.24668,0.03095
3701.28230,0.03101
3700.31793,0.03100
3699.35355,0.03080
3698.38917,0.03051
3697.42479,0.03028
3696.46041,0.03021
3695.49604,0.03016
3694.53166,0.03004
3693.56728,0.03003
3692.60290,0.03014
3691.63853,0.03027
3690.67415,0.03035
3689.70977,0.03037
3688.74539,0.03033
3687.78101,0.03028
3686.81664,0.03029
3685.85226,0.03037
3684.88788,0.03047
3683.92350,0.03049
3682.95912,0.03049
3681.99475,0.03057
3681.03037,0.03069
3680.06599,0.03081
3679.10161,0.03093
3678.13724,0.03100
3677.17286,0.03102
3676.20848,0.03108
3675.24410,0.03110
3674.27972,0.03105
3673.31535,0.03098
3672.35097,0.03091
3671.38659,0.03088
3670.42221,0.03088
3669.45783,0.03096
3668.49346,0.03108
3667.52908,0.03112
3666.56470,0.03110
3665.60032,0.03109
3664.63594,0.03114
3663.67157,0.03125
3662.70719,0.03133
3661.74281,0.03148
3660.77843,0.03170
3659.81406,0.03195
3658.84968,0.03220
3657.88530,0.03238
3656.92092,0.03248
3655.95654,0.03257
3654.99217,0.03266
3654.02779,0.03272
3653.06341,0.03277
3652.09903,0.03290
3651.13465,0.03304
3650.17028,0.03316
3649.20590,0.03323
3648.24152,0.03332
3647.27714,0.03344
3646.31276,0.03355
3645.34839,0.03362
3644.38401,0.03369
3643.41963,0.03373
3642.45525,0.03381
3641.49088,0.03402
3640.52650,0.03426
3639.56212,0.03443
3638.59774,0.03454
3637.63336,0.03466
3636.66899,0.03478
3635.70461,0.03484
3634.74023,0.03488
3633.77585,0.03496
3632.81147,0.03506
3631.84710,0.03513
3630.88272,0.03522
3629.91834,0.03532
3628.95396,0.03538
3627.98959,0.03540
3627.02521,0.03547
3626.06083,0.03554
3625.09645,0.03557
3624.13207,0.03562
3623.16770,0.03573
3622.20332,0.03587
3621.23894,0.03597
3620.27456,0.03599
3619.31018,0.03595
3618.34581,0.03593
3617.38143,0.03596
3616.41705,0.03599
3615.45267,0.03601
3614.48829,0.03607
3613.52392,0.03617
3612.55954,0.03633
3611.59516,0.03644
3610.63078,0.03649
3609.66641,0.03659
3608.70203,0.03669
3607.73765,0.03675
3606.77327,0.03681
3605.80889,0.03681
3604.84452,0.03672
3603.88014,0.03666
3602.91576,0.03667
3601.95138,0.03671
3600.98700,0.03676
3600.02263,0.03671
3599.05825,0.03659
3598.09387,0.03648
3597.12949,0.03644
3596.16512,0.03644
3595.20074,0.03641
3594.23636,0.03637
3593.27198,0.03635
3592.30760,0.03644
3591.34323,0.03662
3590.37885,0.03676
3589.41447,0.03686
3588.45009,0.03688
3587.48571,0.03686
3586.52134,0.03690
3585.55696,0.03705
3584.59258,0.03719
3583.62820,0.03721
3582.66382,0.03719
3581.69945,0.03714
3580.73507,0.03709
3579.77069,0.03704
3578.80631,0.03698
3577.84194,0.03695
3576.87756,0.03693
3575.91318,0.03692
3574.94880,0.03691
3573.98442,0.03695
3573.02005,0.03703
3572.05567,0.03708
3571.09129,0.03712
3570.12691,0.03715
3569.16253,0.03718
3568.19816,0.03721
3567.23378,0.03723
3566.26940,0.03724
3565.30502,0.03721
3564.34065,0.03720
3563.37627,0.03717
3562.41189,0.03717
3561.44751,0.03727
3560.48313,0.03741
3559.51876,0.03752
3558.55438,0.03758
3557.59000,0.03762
3556.62562,0.03766
3555.66124,0.03770
3554.69687,0.03773
3553.73249,0.03777
3552.76811,0.03780
3551.80373,0.03778
3550.83935,0.03779
3549.87498,0.03787
3548.91060,0.03793
3547.94622,0.03799
3546.98184,0.03803
3546.01747,0.03804
3545.05309,0.03808
3544.08871,0.03813
3543.12433,0.03815
3542.15995,0.03812
3541.19558,0.03810
3540.23120,0.03814
3539.26682,0.03828
3538.30244,0.03846
3537.33806,0.03861
3536.37369,0.03885
3535.40931,0.03910
3534.44493,0.03922
3533.48055,0.03925
3532.51618,0.03925
3531.55180,0.03920
3530.58742,0.03912
3529.62304,0.03909
3528.65866,0.03913
3527.69429,0.03922
3526.72991,0.03937
3525.76553,0.03953
3524.80115,0.03973
3523.83677,0.03992
3522.87240,0.03998
3521.90802,0.03999
3520.94364,0.04007
3519.97926,0.04022
3519.01488,0.04031
3518.05051,0.04037
3517.08613,0.04042
3516.12175,0.04043
3515.15737,0.04045
3514.19300,0.04042
3513.22862,0.04036
3512.26424,0.04030
3511.29986,0.04021
3510.33548,0.04015
3509.37111,0.04020
3508.40673,0.04030
3507.44235,0.04035
3506.47797,0.04044
3505.51359,0.04062
3504.54922,0.04082
3503.58484,0.04102
3502.62046,0.04120
3501.65608,0.04139
3500.69171,0.04157
3499.72733,0.04167
3498.76295,0.04174
3497.79857,0.04177
3496.83419,0.04171
3495.86982,0.04160
3494.90544,0.04146
3493.94106,0.04137
3492.97668,0.04133
3492.01230,0.04130
3491.04793,0.04129
3490.08355,0.04131
3489.11917,0.04136
3488.15479,0.04144
3487.19041,0.04154
3486.22604,0.04162
3485.26166,0.04171
3484.29728,0.04177
3483.33290,0.04184
3482.36853,0.04203
3481.40415,0.04224
3480.43977,0.04243
3479.47539,0.04255
3478.51101,0.04260
3477.54664,0.04264
3476.58226,0.04265
3475.61788,0.04259
3474.65350,0.04253
3473.68912,0.04249
3472.72475,0.04242
3471.76037,0.04240
3470.79599,0.04250
3469.83161,0.04264
3468.86724,0.04280
3467.90286,0.04294
3466.93848,0.04302
3465.97410,0.04307
3465.00972,0.04306
3464.04535,0.04303
3463.08097,0.04298
3462.11659,0.04288
3461.15221,0.04281
3460.18783,0.04284
3459.22346,0.04294
3458.25908,0.04307
3457.29470,0.04317
3456.33032,0.04325
3455.36594,0.04330
3454.40157,0.04332
3453.43719,0.04333
3452.47281,0.04334
3451.50843,0.04334
3450.54406,0.04333
3449.57968,0.04338
3448.61530,0.04352
3447.65092,0.04365
3446.68654,0.04374
3445.72217,0.04384
3444.75779,0.04395
3443.79341,0.04404
3442.82903,0.04410
3441.86465,0.04409
3440.90028,0.04405
3439.93590,0.04397
3438.97152,0.04386
3438.00714,0.04376
3437.04276,0.04371
3436.07839,0.04369
3435.11401,0.04367
3434.14963,0.04369
3433.18525,0.04374
3432.22088,0.04379
3431.25650,0.04385
3430.29212,0.04390
3429.32774,0.04401
3428.36336,0.04412
3427.39899,0.04418
3426.43461,0.04423
3425.47023,0.04430
3424.50585,0.04440
3423.54147,0.04448
3422.57710,0.04455
3421.61272,0.04457
3420.64834,0.04452
3419.68396,0.04440
3418.71959,0.04428
3417.75521,0.04419
3416.79083,0.04411
3415.82645,0.04404
3414.86207,0.04400
3413.89770,0.04405
3412.93332,0.04419
3411.96894,0.04437
3411.00456,0.04456
3410.04018,0.04472
3409.07581,0.04483
3408.11143,0.04490
3407.14705,0.04492
3406.18267,0.04491
3405.21829,0.04486
3404.25392,0.04478
3403.28954,0.04473
3402.32516,0.04469
3401.36078,0.04460
3400.39641,0.04449
3399.43203,0.04444
3398.46765,0.04444
3397.50327,0.04444
3396.53889,0.04443
3395.57452,0.04442
3394.61014,0.04440
3393.64576,0.04438
3392.68138,0.04444
3391.71700,0.04453
3390.75263,0.04456
3389.78825,0.04454
3388.82387,0.04458
3387.85949,0.04466
3386.89512,0.04471
3385.93074,0.04471
3384.96636,0.04471
3384.00198,0.04472
3383.03760,0.04473
3382.07323,0.04478
3381.10885,0.04486
3380.14447,0.04493
3379.18009,0.04498
3378.21571,0.04501
3377.25134,0.04502
3376.28696,0.04497
3375.32258,0.04492
3374.35820,0.04488
3373.39382,0.04485
3372.42945,0.04481
3371.46507,0.04479
3370.50069,0.04482
3369.53631,0.04486
3368.57194,0.04488
3367.60756,0.04489
3366.64318,0.04486
3365.67880,0.04482
3364.71442,0.04484
3363.75005,0.04492
3362.78567,0.04498
3361.82129,0.04503
3360.85691,0.04506
3359.89253,0.04508
3358.92816,0.04510
3357.96378,0.04508
3356.99940,0.04501
3356.03502,0.04495
3355.07065,0.04488
3354.10627,0.04480
3353.14189,0.04475
3352.17751,0.04467
3351.21313,0.04459
3350.24876,0.04457
3349.28438,0.04460
3348.32000,0.04465
3347.35562,0.04470
3346.39124,0.04478
3345.42687,0.04485
3344.46249,0.04489
3343.49811,0.04490
3342.53373,0.04487
3341.56935,0.04478
3340.60498,0.04466
3339.64060,0.04455
3338.67622,0.04445
3337.71184,0.04435
3336.74747,0.04428
3335.78309,0.04422
3334.81871,0.04416
3333.85433,0.04414
3332.88995,0.04413
3331.92558,0.04412
3330.96120,0.04411
3329.99682,0.04410
3329.03244,0.04413
3328.06806,0.04421
3327.10369,0.04427
3326.13931,0.04429
3325.17493,0.04429
3324.21055,0.04425
3323.24618,0.04423
3322.28180,0.04426
3321.31742,0.04426
3320.35304,0.04423
3319.38866,0.04421
3318.42429,0.04422
3317.45991,0.04428
3316.49553,0.04434
3315.53115,0.04433
3314.56677,0.04427
3313.60240,0.04422
3312.63802,0.04416
3311.67364,0.04407
3310.70926,0.04398
3309.74488,0.04390
3308.78051,0.04386
3307.81613,0.04385
3306.85175,0.04389
3305.88737,0.04397
3304.92300,0.04403
3303.95862,0.04407
3302.99424,0.04408
3302.02986,0.04411
3301.06548,0.04412
3300.10111,0.04406
3299.13673,0.04397
3298.17235,0.04389
3297.20797,0.04379
3296.24359,0.04364
3295.27922,0.04352
3294.31484,0.04341
3293.35046,0.04333
3292.38608,0.04328
3291.42171,0.04326
3290.45733,0.04333
3289.49295,0.04346
3288.52857,0.04358
3287.56419,0.04371
3286.59982,0.04379
3285.63544,0.04381
3284.67106,0.04378
3283.70668,0.04374
3282.74230,0.04366
3281.77793,0.04356
3280.81355,0.04344
3279.84917,0.04328
3278.88479,0.04314
3277.92041,0.04303
3276.95604,0.04295
3275.99166,0.04290
3275.02728,0.04284
3274.06290,0.04279
3273.09853,0.04276
3272.13415,0.04277
3271.16977,0.04281
3270.20539,0.04285
3269.24101,0.04286
3268.27664,0.04288
3267.31226,0.04293
3266.34788,0.04300
3265.38350,0.04307
3264.41912,0.04308
3263.45475,0.04303
3262.49037,0.04294
3261.52599,0.04281
3260.56161,0.04267
3259.59724,0.04248
3258.63286,0.04227
3257.66848,0.04210
3256.70410,0.04205
3255.73972,0.04203
3254.77535,0.04203
3253.81097,0.04209
3252.84659,0.04221
3251.88221,0.04240
3250.91783,0.04261
3249.95346,0.04273
3248.98908,0.04274
3248.02470,0.04263
3247.06032,0.04250
3246.09594,0.04244
3245.13157,0.04237
3244.16719,0.04220
3243.20281,0.04203
3242.23843,0.04194
3241.27406,0.04191
3240.30968,0.04197
3239.34530,0.04198
3238.38092,0.04196
3237.41654,0.04192
3236.45217,0.04189
3235.48779,0.04192
3234.52341,0.04191
3233.55903,0.04182
3232.59465,0.04170
3231.63028,0.04162
3230.66590,0.04156
3229.70152,0.04150
3228.73714,0.04139
3227.77276,0.04123
3226.80839,0.04110
3225.84401,0.04102
3224.87963,0.04100
3223.91525,0.04104
3222.95088,0.04102
3221.98650,0.04100
3221.02212,0.04103
3220.05774,0.04112
3219.09336,0.04120
3218.12899,0.04118
3217.16461,0.04108
3216.20023,0.04095
3215.23585,0.04085
3214.27147,0.04081
3213.30710,0.04082
3212.34272,0.04086
3211.37834,0.04085
3210.41396,0.04081
3209.44959,0.04081
3208.48521,0.04082
3207.52083,0.04081
3206.55645,0.04077
3205.59207,0.04073
3204.62770,0.04072
3203.66332,0.04071
3202.69894,0.04072
3201.73456,0.04072
3200.77018,0.04067
3199.80581,0.04055
3198.84143,0.04047
3197.87705,0.04041
3196.91267,0.04030
3195.94829,0.04020
3194.98392,0.04015
3194.01954,0.04014
3193.05516,0.04014
3192.09078,0.04011
3191.12641,0.04010
3190.16203,0.04010
3189.19765,0.04008
3188.23327,0.04005
3187.26889,0.04003
3186.30452,0.04000
3185.34014,0.03994
3184.37576,0.03989
3183.41138,0.03990
3182.44700,0.03998
3181.48263,0.04005
3180.51825,0.04005
3179.55387,0.04001
3178.58949,0.03995
3177.62512,0.03989
3176.66074,0.03980
3175.69636,0.03968
3174.73198,0.03953
3173.76760,0.03939
3172.80323,0.03933
3171.83885,0.03931
3170.87447,0.03933
3169.91009,0.03931
3168.94571,0.03923
3167.98134,0.03917
3167.01696,0.03913
3166.05258,0.03913
3165.08820,0.03915
3164.12382,0.03914
3163.15945,0.03911
3162.19507,0.03905
3161.23069,0.03896
3160.26631,0.03888
3159.30194,0.03880
3158.33756,0.03875
3157.37318,0.03871
3156.40880,0.03868
3155.44442,0.03865
3154.48005,0.03867
3153.51567,0.03872
3152.55129,0.03876
3151.58691,0.03879
3150.62253,0.03877
3149.65816,0.03871
3148.69378,0.03865
3147.72940,0.03862
3146.76502,0.03859
3145.80065,0.03854
3144.83627,0.03847
3143.87189,0.03841
3142.90751,0.03839
3141.94313,0.03838
3140.97876,0.03834
3140.01438,0.03828
3139.05000,0.03821
3138.08562,0.03812
3137.12124,0.03800
3136.15687,0.03789
3135.19249,0.03783
3134.22811,0.03782
3133.26373,0.03783
3132.29935,0.03783
3131.33498,0.03783
3130.37060,0.03781
3129.40622,0.03775
3128.44184,0.03767
3127.47747,0.03765
3126.51309,0.03768
3125.54871,0.03765
3124.58433,0.03762
3123.61995,0.03759
3122.65558,0.03757
3121.69120,0.03756
3120.72682,0.03750
3119.76244,0.03742
3118.79806,0.03740
3117.83369,0.03741
3116.86931,0.03742
3115.90493,0.03745
3114.94055,0.03745
3113.97618,0.03737
3113.01180,0.03725
3112.04742,0.03716
3111.08304,0.03711
3110.11866,0.03709
3109.15429,0.03706
3108.18991,0.03705
3107.22553,0.03707
3106.26115,0.03709
3105.29677,0.03709
3104.33240,0.03705
3103.36802,0.03696
3102.40364,0.03681
3101.43926,0.03667
3100.47488,0.03663
3099.51051,0.03664
3098.54613,0.03663
3097.58175,0.03663
3096.61737,0.03660
3095.65300,0.03658
3094.68862,0.03659
3093.72424,0.03660
3092.75986,0.03655
3091.79548,0.03648
3090.83111,0.03648
3089.86673,0.03653
3088.90235,0.03659
3087.93797,0.03661
3086.97359,0.03656
3086.00922,0.03645
3085.04484,0.03632
3084.08046,0.03620
3083.11608,0.03606
3082.15171,0.03596
3081.18733,0.03596
3080.22295,0.03601
3079.25857,0.03617
3078.29419,0.03629
3077.32982,0.03627
3076.36544,0.03621
3075.40106,0.03615
3074.43668,0.03605
3073.47230,0.03594
3072.50793,0.03586
3071.54355,0.03583
3070.57917,0.03587
3069.61479,0.03595
3068.65041,0.03599
3067.68604,0.03601
3066.72166,0.03597
3065.75728,0.03583
3064.79290,0.03566
3063.82853,0.03552
3062.86415,0.03544
3061.89977,0.03540
3060.93539,0.03539
3059.97101,0.03533
3059.00664,0.03524
3058.04226,0.03516
3057.07788,0.03510
3056.11350,0.03501
3055.14912,0.03486
3054.18475,0.03469
3053.22037,0.03454
3052.25599,0.03446
3051.29161,0.03448
3050.32724,0.03449
3049.36286,0.03448
3048.39848,0.03448
3047.43410,0.03453
3046.46972,0.03459
3045.50535,0.03465
3044.54097,0.03467
3043.57659,0.03466
3042.61221,0.03467
3041.64783,0.03467
3040.68346,0.03463
3039.71908,0.03454
3038.75470,0.03441
3037.79032,0.03426
3036.82594,0.03411
3035.86157,0.03401
3034.89719,0.03392
3033.93281,0.03384
3032.96843,0.03380
3032.00406,0.03377
3031.03968,0.03376
3030.07530,0.03376
3029.11092,0.03379
3028.14654,0.03381
3027.18217,0.03377
3026.21779,0.03371
3025.25341,0.03363
3024.28903,0.03352
3023.32465,0.03348
3022.36028,0.03360
3021.39590,0.03384
3020.43152,0.03408
3019.46714,0.03429
3018.50276,0.03445
3017.53839,0.03456
3016.57401,0.03456
3015.60963,0.03440
3014.64525,0.03415
3013.68088,0.03383
3012.71650,0.03347
3011.75212,0.03322
3010.78774,0.03311
3009.82336,0.03307
3008.85899,0.03303
3007.89461,0.03300
3006.93023,0.03298
3005.96585,0.03296
3005.00147,0.03291
3004.03710,0.03285
3003.07272,0.03281
3002.10834,0.03278
3001.14396,0.03274
3000.17959,0.03267
2999.21521,0.03261
2998.25083,0.03259
2997.28645,0.03259
2996.32207,0.03259
2995.35770,0.03258
2994.39332,0.03258
2993.42894,0.03260
2992.46456,0.03262
2991.50018,0.03263
2990.53581,0.03260
2989.57143,0.03254
2988.60705,0.03247
2987.64267,0.03239
2986.67829,0.03233
2985.71392,0.03223
2984.74954,0.03211
2983.78516,0.03206
2982.82078,0.03209
2981.85641,0.03210
2980.89203,0.03209
2979.92765,0.03210
2978.96327,0.03212
2977.99889,0.03215
2977.03452,0.03218
2976.07014,0.03223
2975.10576,0.03227
2974.14138,0.03229
2973.17700,0.03232
2972.21263,0.03239
2971.24825,0.03241
2970.28387,0.03234
2969.31949,0.03225
2968.35512,0.03217
2967.39074,0.03208
2966.42636,0.03199
2965.46198,0.03192
2964.49760,0.03189
2963.53323,0.03192
2962.56885,0.03198
2961.60447,0.03204
2960.64009,0.03209
2959.67571,0.03212
2958.71134,0.03214
2957.74696,0.03213
2956.78258,0.03211
2955.81820,0.03208
2954.85382,0.03204
2953.88945,0.03203
2952.92507,0.03208
2951.96069,0.03215
2950.99631,0.03221
2950.03194,0.03222
2949.06756,0.03215
2948.10318,0.03204
2947.13880,0.03192
2946.17442,0.03178
2945.21005,0.03162
2944.24567,0.03145
2943.28129,0.03135
2942.31691,0.03136
2941.35253,0.03146
2940.38816,0.03160
2939.42378,0.03177
2938.45940,0.03191
2937.49502,0.03202
2936.53065,0.03211
2935.56627,0.03219
2934.60189,0.03220
2933.63751,0.03213
2932.67313,0.03206
2931.70876,0.03205
2930.74438,0.03209
2929.78000,0.03210
2928.81562,0.03211
2927.85124,0.03216
2926.88687,0.03224
2925.92249,0.03231
2924.95811,0.03233
2923.99373,0.03231
2923.02935,0.03223
2922.06498,0.03215
2921.10060,0.03209
2920.13622,0.03204
2919.17184,0.03195
2918.20747,0.03183
2917.24309,0.03173
2916.27871,0.03167
2915.31433,0.03159
2914.34995,0.03149
2913.38558,0.03137
2912.42120,0.03126
2911.45682,0.03116
2910.49244,0.03107
2909.52806,0.03099
2908.56369,0.03092
2907.59931,0.03084
2906.63493,0.03076
2905.67055,0.03068
2904.70618,0.03059
2903.74180,0.03053
2902.77742,0.03048
2901.81304,0.03046
2900.84866,0.03048
2899.88429,0.03052
2898.91991,0.03056
2897.95553,0.03060
2896.99115,0.03061
2896.02677,0.03060
2895.06240,0.03056
2894.09802,0.03047
2893.13364,0.03039
2892.16926,0.03034
2891.20488,0.03031
2890.24051,0.03032
2889.27613,0.03035
2888.31175,0.03037
2887.34737,0.03036
2886.38300,0.03032
2885.41862,0.03028
2884.45424,0.03023
2883.48986,0.03014
2882.52548,0.03004
2881.56111,0.02997
2880.59673,0.02995
2879.63235,0.02998
2878.66797,0.03001
2877.70359,0.03003
2876.73922,0.03003
2875.77484,0.03000
2874.81046,0.02996
2873.84608,0.02993
2872.88171,0.02989
2871.91733,0.02983
2870.95295,0.02981
2869.98857,0.02980
2869.02419,0.02979
2868.05982,0.02979
2867.09544,0.02979
2866.13106,0.02980
2865.16668,0.02981
2864.20230,0.02981
2863.23793,0.02982
2862.27355,0.02986
2861.30917,0.02989
2860.34479,0.02989
2859.38041,0.02989
2858.41604,0.02988
2857.45166,0.02983
2856.48728,0.02980
2855.52290,0.02977
2854.55853,0.02974
2853.59415,0.02970
2852.62977,0.02968
2851.66539,0.02968
2850.70101,0.02966
2849.73664,0.02961
2848.77226,0.02957
2847.80788,0.02956
2846.84350,0.02953
2845.87912,0.02950
2844.91475,0.02946
2843.95037,0.02939
2842.98599,0.02932
2842.02161,0.02927
2841.05724,0.02923
2840.09286,0.02919
2839.12848,0.02912
2838.16410,0.02906
2837.19972,0.02905
2836.23535,0.02903
2835.27097,0.02898
2834.30659,0.02892
2833.34221,0.02884
2832.37783,0.02876
2831.41346,0.02872
2830.44908,0.02869
2829.48470,0.02863
2828.52032,0.02858
2827.55594,0.02854
2826.59157,0.02852
2825.62719,0.02850
2824.66281,0.02848
2823.69843,0.02845
2822.73406,0.02845
2821.76968,0.02847
2820.80530,0.02851
2819.84092,0.02856
2818.87654,0.02859
2817.91217,0.02859
2816.94779,0.02858
2815.98341,0.02856
2815.01903,0.02853
2814.05465,0.02850
2813.09028,0.02850
2812.12590,0.02851
2811.16152,0.02849
2810.19714,0.02846
2809.23276,0.02843
2808.26839,0.02838
2807.30401,0.02832
2806.33963,0.02825
2805.37525,0.02817
2804.41088,0.02810
2803.44650,0.02803
2802.48212,0.02801
2801.51774,0.02804
2800.55336,0.02807
2799.58899,0.02808
2798.62461,0.02808
2797.66023,0.02805
2796.69585,0.02805
2795.73147,0.02806
2794.76710,0.02808
2793.80272,0.02807
2792.83834,0.02802
2791.87396,0.02799
2790.90959,0.02797
2789.94521,0.02796
2788.98083,0.02793
2788.01645,0.02789
2787.05207,0.02781
2786.08770,0.02773
2785.12332,0.02768
2784.15894,0.02765
2783.19456,0.02761
2782.23018,0.02756
2781.26581,0.02752
2780.30143,0.02748
2779.33705,0.02744
2778.37267,0.02741
2777.40829,0.02737
2776.44392,0.02734
2775.47954,0.02735
2774.51516,0.02737
2773.55078,0.02736
2772.58641,0.02735
2771.62203,0.02736
2770.65765,0.02735
2769.69327,0.02732
2768.72889,0.02729
2767.76452,0.02727
2766.80014,0.02727
2765.83576,0.02725
2764.87138,0.02725
2763.90700,0.02728
2762.94263,0.02728
2761.97825,0.02726
2761.01387,0.02725
2760.04949,0.02725
2759.08512,0.02722
2758.12074,0.02719
2757.15636,0.02717
2756.19198,0.02716
2755.22760,0.02712
2754.26323,0.02708
2753.29885,0.02704
2752.33447,0.02702
2751.37009,0.02699
2750.40571,0.02695
2749.44134,0.02691
2748.47696,0.02687
2747.51258,0.02683
2746.54820,0.02682
2745.58382,0.02680
2744.61945,0.02679
2743.65507,0.02679
2742.69069,0.02678
2741.72631,0.02679
2740.76194,0.02678
2739.79756,0.02676
2738.83318,0.02672
2737.86880,0.02669
2736.90442,0.02666
2735.94005,0.02662
2734.97567,0.02658
2734.01129,0.02654
2733.04691,0.02653
2732.08253,0.02653
2731.11816,0.02652
2730.15378,0.02651
2729.18940,0.02651
2728.22502,0.02651
2727.26065,0.02649
2726.29627,0.02646
2725.33189,0.02641
2724.36751,0.02635
2723.40313,0.02629
2722.43876,0.02623
2721.47438,0.02619
2720.51000,0.02618
2719.54562,0.02619
2718.58124,0.02621
2717.61687,0.02624
2716.65249,0.02626
2715.68811,0.02624
2714.72373,0.02620
2713.75935,0.02617
2712.79498,0.02613
2711.83060,0.02608
2710.86622,0.02603
2709.90184,0.02599
2708.93747,0.02597
2707.97309,0.02595
2707.00871,0.02593
2706.04433,0.02592
2705.07995,0.02591
2704.11558,0.02590
2703.15120,0.02588
2702.18682,0.02587
2701.22244,0.02586
2700.25806,0.02584
2699.29369,0.02581
2698.32931,0.02580
2697.36493,0.02578
2696.40055,0.02573
2695.43618,0.02568
2694.47180,0.02565
2693.50742,0.02562
2692.54304,0.02560
2691.57866,0.02556
2690.61429,0.02552
2689.64991,0.02549
2688.68553,0.02548
2687.72115,0.02547
2686.75677,0.02548
2685.79240,0.02547
2684.82802,0.02545
2683.86364,0.02542
2682.89926,0.02539
2681.93488,0.02536
2680.97051,0.02531
2680.00613,0.02528
2679.04175,0.02529
2678.07737,0.02532
2677.11300,0.02535
2676.14862,0.02535
2675.18424,0.02536
2674.21986,0.02534
2673.25548,0.02530
2672.29111,0.02525
2671.32673,0.02517
2670.36235,0.02507
2669.39797,0.02498
2668.43359,0.02493
2667.46922,0.02492
2666.50484,0.02491
2665.54046,0.02488
2664.57608,0.02486
2663.61171,0.02485
2662.64733,0.02482
2661.68295,0.02481
2660.71857,0.02481
2659.75419,0.02478
2658.78982,0.02472
2657.82544,0.02467
2656.86106,0.02462
2655.89668,0.02457
2654.93230,0.02453
2653.96793,0.02449
2653.00355,0.02446
2652.03917,0.02443
2651.07479,0.02437
2650.11041,0.02433
2649.14604,0.02430
2648.18166,0.02425
2647.21728,0.02420
2646.25290,0.02417
2645.28853,0.02415
2644.32415,0.02413
2643.35977,0.02413
2642.39539,0.02415
2641.43101,0.02418
2640.46664,0.02419
2639.50226,0.02417
2638.53788,0.02412
2637.57350,0.02406
2636.60912,0.02402
2635.64475,0.02397
2634.68037,0.02392
2633.71599,0.02385
2632.75161,0.02377
2631.78724,0.02371
2630.82286,0.02368
2629.85848,0.02369
2628.89410,0.02371
2627.92972,0.02369
2626.96535,0.02362
2626.00097,0.02358
2625.03659,0.02359
2624.07221,0.02358
2623.10783,0.02355
2622.14346,0.02353
2621.17908,0.02354
2620.21470,0.02357
2619.25032,0.02361
2618.28594,0.02365
2617.32157,0.02365
2616.35719,0.02357
2615.39281,0.02349
2614.42843,0.02343
2613.46406,0.02338
2612.49968,0.02332
2611.53530,0.02327
2610.57092,0.02324
2609.60654,0.02325
2608.64217,0.02325
2607.67779,0.02322
2606.71341,0.02318
2605.74903,0.02313
2604.78465,0.02308
2603.82028,0.02304
2602.85590,0.02302
2601.89152,0.02305
2600.92714,0.02308
2599.96276,0.02310
2598.99839,0.02315
2598.03401,0.02314
2597.06963,0.02304
2596.10525,0.02290
2595.14088,0.02276
2594.17650,0.02264
2593.21212,0.02259
2592.24774,0.02256
2591.28336,0.02253
2590.31899,0.02253
2589.35461,0.02248
2588.39023,0.02244
2587.42585,0.02245
2586.46147,0.02240
2585.49710,0.02233
2584.53272,0.02225
2583.56834,0.02223
2582.60396,0.02225
2581.63959,0.02229
2580.67521,0.02232
2579.71083,0.02229
2578.74645,0.02222
2577.78207,0.02213
2576.81770,0.02208
2575.85332,0.02207
2574.88894,0.02207
2573.92456,0.02207
2572.96018,0.02208
2571.99581,0.02209
2571.03143,0.02203
2570.06705,0.02196
2569.10267,0.02194
2568.13829,0.02187
2567.17392,0.02181
2566.20954,0.02182
2565.24516,0.02184
2564.28078,0.02184
2563.31641,0.02189
2562.35203,0.02194
2561.38765,0.02193
2560.42327,0.02187
2559.45889,0.02179
2558.49452,0.02175
2557.53014,0.02167
2556.56576,0.02156
2555.60138,0.02155
2554.63700,0.02159
2553.67263,0.02160
2552.70825,0.02161
2551.74387,0.02166
2550.77949,0.02169
2549.81512,0.02167
2548.85074,0.02165
2547.88636,0.02159
2546.92198,0.02155
2545.95760,0.02151
2544.99323,0.02153
2544.02885,0.02157
2543.06447,0.02158
2542.10009,0.02157
2541.13571,0.02152
2540.17134,0.02147
2539.20696,0.02142
2538.24258,0.02139
2537.27820,0.02138
2536.31382,0.02135
2535.34945,0.02136
2534.38507,0.02137
2533.42069,0.02134
2532.45631,0.02129
2531.49194,0.02125
2530.52756,0.02120
2529.56318,0.02114
2528.59880,0.02111
2527.63442,0.02107
2526.67005,0.02108
2525.70567,0.02115
2524.74129,0.02119
2523.77691,0.02120
2522.81253,0.02114
2521.84816,0.02106
2520.88378,0.02107
2519.91940,0.02110
2518.95502,0.02104
2517.99065,0.02095
2517.02627,0.02086
2516.06189,0.02075
2515.09751,0.02072
2514.13313,0.02076
2513.16876,0.02081
2512.20438,0.02081
2511.24000,0.02078
2510.27562,0.02081
2509.31124,0.02085
2508.34687,0.02088
2507.38249,0.02090
2506.41811,0.02091
2505.45373,0.02088
2504.48935,0.02079
2503.52498,0.02077
2502.56060,0.02079
2501.59622,0.02073
2500.63184,0.02065
2499.66747,0.02065
2498.70309,0.02068
2497.73871,0.02069
2496.77433,0.02073
2495.80995,0.02075
2494.84558,0.02073
2493.88120,0.02068
2492.91682,0.02061
2491.95244,0.02059
2490.98806,0.02058
2490.02369,0.02054
2489.05931,0.02052
2488.09493,0.02055
2487.13055,0.02060
2486.16618,0.02064
2485.20180,0.02066
2484.23742,0.02063
2483.27304,0.02061
2482.30866,0.02058
2481.34429,0.02049
2480.37991,0.02038
2479.41553,0.02031
2478.45115,0.02023
2477.48677,0.02009
2476.52240,0.01999
2475.55802,0.02001
2474.59364,0.02010
2473.62926,0.02019
2472.66488,0.02029
2471.70051,0.02036
2470.73613,0.02035
2469.77175,0.02031
2468.80737,0.02026
2467.84300,0.02019
2466.87862,0.02007
2465.91424,0.01991
2464.94986,0.01977
2463.98548,0.01975
2463.02111,0.01981
2462.05673,0.01984
2461.09235,0.01988
2460.12797,0.01991
2459.16359,0.01993
2458.19922,0.01999
2457.23484,0.02007
2456.27046,0.02011
2455.30608,0.02012
2454.34171,0.02009
2453.37733,0.01995
2452.41295,0.01986
2451.44857,0.01978
2450.48419,0.01967
2449.51982,0.01960
2448.55544,0.01956
2447.59106,0.01953
2446.62668,0.01955
2445.66230,0.01961
2444.69793,0.01967
2443.73355,0.01971
2442.76917,0.01971
2441.80479,0.01963
2440.84041,0.01956
2439.87604,0.01952
2438.91166,0.01947
2437.94728,0.01945
2436.98290,0.01946
2436.01853,0.01947
2435.05415,0.01947
2434.08977,0.01943
2433.12539,0.01937
2432.16101,0.01932
2431.19664,0.01925
2430.23226,0.01915
2429.26788,0.01913
2428.30350,0.01919
2427.33912,0.01924
2426.37475,0.01933
2425.41037,0.01942
2424.44599,0.01945
2423.48161,0.01948
2422.51724,0.01946
2421.55286,0.01943
2420.58848,0.01942
2419.62410,0.01936
2418.65972,0.01929
2417.69535,0.01928
2416.73097,0.01928
2415.76659,0.01925
2414.80221,0.01920
2413.83783,0.01910
2412.87346,0.01900
2411.90908,0.01896
2410.94470,0.01898
2409.98032,0.01905
2409.01594,0.01916
2408.05157,0.01923
2407.08719,0.01925
2406.12281,0.01927
2405.15843,0.01929
2404.19406,0.01926
2403.22968,0.01920
2402.26530,0.01914
2401.30092,0.01911
2400.33654,0.01909
2399.37217,0.01907
2398.40779,0.01909
2397.44341,0.01914
2396.47903,0.01916
2395.51465,0.01914
2394.55028,0.01910
2393.58590,0.01906
2392.62152,0.01905
2391.65714,0.01906
2390.69276,0.01903
2389.72839,0.01896
2388.76401,0.01888
2387.79963,0.01886
2386.83525,0.01892
2385.87088,0.01900
2384.90650,0.01909
2383.94212,0.01919
2382.97774,0.01928
2382.01336,0.01938
2381.04899,0.01947
2380.08461,0.01954
2379.12023,0.01960
2378.15585,0.01965
2377.19147,0.01979
2376.22710,0.02001
2375.26272,0.02025
2374.29834,0.02048
2373.33396,0.02071
2372.36959,0.02092
2371.40521,0.02107
2370.44083,0.02120
2369.47645,0.02130
2368.51207,0.02139
2367.54770,0.02152
2366.58332,0.02167
2365.61894,0.02186
2364.65456,0.02202
2363.69018,0.02214
2362.72581,0.02225
2361.76143,0.02230
2360.79705,0.02227
2359.83267,0.02220
2358.86829,0.02210
2357.90392,0.02192
2356.93954,0.02170
2355.97516,0.02149
2355.01078,0.02125
2354.04641,0.02096
2353.08203,0.02063
2352.11765,0.02033
2351.15327,0.02011
2350.18889,0.01998
2349.22452,0.01996
2348.26014,0.02000
2347.29576,0.02007
2346.33138,0.02021
2345.36700,0.02041
2344.40263,0.02062
2343.43825,0.02079
2342.47387,0.02089
2341.50949,0.02094
2340.54512,0.02095
2339.58074,0.02096
2338.61636,0.02098
2337.65198,0.02098
2336.68760,0.02092
2335.72323,0.02084
2334.75885,0.02077
2333.79447,0.02072
2332.83009,0.02070
2331.86571,0.02070
2330.90134,0.02067
2329.93696,0.02060
2328.97258,0.02053
2328.00820,0.02048
2327.04382,0.02045
2326.07945,0.02038
2325.11507,0.02025
2324.15069,0.02006
2323.18631,0.01986
2322.22194,0.01967
2321.25756,0.01953
2320.29318,0.01945
2319.32880,0.01938
2318.36442,0.01931
2317.40005,0.01928
2316.43567,0.01929
2315.47129,0.01927
2314.50691,0.01916
2313.54253,0.01898
2312.57816,0.01880
2311.61378,0.01862
2310.64940,0.01847
2309.68502,0.01838
2308.72065,0.01837
2307.75627,0.01836
2306.79189,0.01833
2305.82751,0.01828
2304.86313,0.01820
2303.89876,0.01808
2302.93438,0.01795
2301.97000,0.01788
2301.00562,0.01783
2300.04124,0.01775
2299.07687,0.01774
2298.11249,0.01778
2297.14811,0.01782
2296.18373,0.01782
2295.21935,0.01775
2294.25498,0.01766
2293.29060,0.01756
2292.32622,0.01743
2291.36184,0.01735
2290.39747,0.01737
2289.43309,0.01739
2288.46871,0.01738
2287.50433,0.01741
2286.53995,0.01741
2285.57558,0.01736
2284.61120,0.01727
2283.64682,0.01725
2282.68244,0.01724
2281.71806,0.01714
2280.75369,0.01702
2279.78931,0.01695
2278.82493,0.01698
2277.86055,0.01703
2276.89618,0.01702
2275.93180,0.01704
2274.96742,0.01709
2274.00304,0.01712
2273.03866,0.01717
2272.07429,0.01730
2271.10991,0.01734
2270.14553,0.01726
2269.18115,0.01714
2268.21677,0.01698
2267.25240,0.01681
2266.28802,0.01672
2265.32364,0.01667
2264.35926,0.01666
2263.39488,0.01672
2262.43051,0.01685
2261.46613,0.01699
2260.50175,0.01703
2259.53737,0.01695
2258.57300,0.01674
2257.60862,0.01646
2256.64424,0.01618
2255.67986,0.01597
2254.71548,0.01587
2253.75111,0.01578
2252.78673,0.01575
2251.82235,0.01578
2250.85797,0.01582
2249.89359,0.01584
2248.92922,0.01580
2247.96484,0.01576
2247.00046,0.01563
2246.03608,0.01553
2245.07171,0.01555
2244.10733,0.01572
2243.14295,0.01598
2242.17857,0.01607
2241.21419,0.01608
2240.24982,0.01608
2239.28544,0.01605
2238.32106,0.01612
2237.35668,0.01610
2236.39230,0.01589
2235.42793,0.01566
2234.46355,0.01581
2233.49917,0.01619
2232.53479,0.01644
2231.57041,0.01638
2230.60604,0.01599
2229.64166,0.01570
2228.67728,0.01549
2227.71290,0.01526
2226.74853,0.01509
2225.78415,0.01490
2224.81977,0.01489
2223.85539,0.01516
2222.89101,0.01575
2221.92664,0.01636
2220.96226,0.01668
2219.99788,0.01677
2219.03350,0.01680
2218.06912,0.01696
2217.10475,0.01699
2216.14037,0.01685
2215.17599,0.01659
2214.21161,0.01618
2213.24724,0.01595
2212.28286,0.01563
2211.31848,0.01527
2210.35410,0.01514
2209.38972,0.01501
2208.42535,0.01472
2207.46097,0.01441
2206.49659,0.01428
2205.53221,0.01425
2204.56783,0.01417
2203.60346,0.01389
2202.63908,0.01358
2201.67470,0.01342
2200.71032,0.01321
2199.74594,0.01303
2198.78157,0.01302
2197.81719,0.01293
2196.85281,0.01274
2195.88843,0.01258
2194.92406,0.01261
2193.95968,0.01277
2192.99530,0.01283
2192.03092,0.01280
2191.06654,0.01278
2190.10217,0.01278
2189.13779,0.01278
2188.17341,0.01277
2187.20903,0.01277
2186.24465,0.01277
2185.28028,0.01277
2184.31590,0.01276
2183.35152,0.01276
2182.38714,0.01276
2181.42276,0.01276
2180.45839,0.01275
2179.49401,0.01275
2178.52963,0.01275
2177.56525,0.01275
2176.60088,0.01275
2175.63650,0.01274
2174.67212,0.01274
2173.70774,0.01274
2172.74336,0.01274
2171.77899,0.01273
2170.81461,0.01273
2169.85023,0.01273
2168.88585,0.01273
2167.92147,0.01272
2166.95710,0.01272
2165.99272,0.01272
2165.02834,0.01272
2164.06396,0.01271
2163.09959,0.01271
2162.13521,0.01271
2161.17083,0.01271
2160.20645,0.01271
2159.24207,0.01270
2158.27770,0.01270
2157.31332,0.01270
2156.34894,0.01270
2155.38456,0.01269
2154.42018,0.01269
2153.45581,0.01269
2152.49143,0.01269
2151.52705,0.01268
2150.56267,0.01268
2149.59829,0.01268
2148.63392,0.01268
2147.66954,0.01267
2146.70516,0.01267
2145.74078,0.01267
2144.77641,0.01267
2143.81203,0.01267
2142.84765,0.01266
2141.88327,0.01266
2140.91889,0.01266
2139.95452,0.01266
2138.99014,0.01265
2138.02576,0.01265
2137.06138,0.01265
2136.09700,0.01265
2135.13263,0.01264
2134.16825,0.01264
2133.20387,0.01264
2132.23949,0.01264
2131.27512,0.01263
2130.31074,0.01263
2129.34636,0.01263
2128.38198,0.01263
2127.41760,0.01263
2126.45323,0.01262
2125.48885,0.01262
2124.52447,0.01262
2123.56009,0.01262
2122.59571,0.01261
2121.63134,0.01261
2120.66696,0.01261
2119.70258,0.01261
2118.73820,0.01260
2117.77382,0.01260
2116.80945,0.01260
2115.84507,0.01260
2114.88069,0.01259
2113.91631,0.01259
2112.95194,0.01259
2111.98756,0.01259
2111.02318,0.01259
2110.05880,0.01258
2109.09442,0.01258
2108.13005,0.01258
2107.16567,0.01258
2106.20129,0.01257
2105.23691,0.01257
2104.27253,0.01257
2103.30816,0.01257
2102.34378,0.01256
2101.37940,0.01256
2100.41502,0.01256
2099.45065,0.01256
2098.48627,0.01255
2097.52189,0.01255
2096.55751,0.01255
2095.59313,0.01255
2094.62876,0.01255
2093.66438,0.01254
2092.70000,0.01254
2091.73562,0.01254
2090.77124,0.01254
2089.80687,0.01253
2088.84249,0.01253
2087.87811,0.01253
2086.91373,0.01253
2085.94935,0.01252
2084.98498,0.01252
2084.02060,0.01252
2083.05622,0.01252
2082.09184,0.01251
2081.12747,0.01251
2080.16309,0.01251
2079.19871,0.01251
2078.23433,0.01251
2077.26995,0.01250
2076.30558,0.01250
2075.34120,0.01250
2074.37682,0.01250
2073.41244,0.01249
2072.44806,0.01249
2071.48369,0.01249
2070.51931,0.01249
2069.55493,0.01248
2068.59055,0.01248
2067.62618,0.01248
2066.66180,0.01248
2065.69742,0.01247
2064.73304,0.01247
2063.76866,0.01247
2062.80429,0.01247
2061.83991,0.01247
2060.87553,0.01246
2059.91115,0.01246
2058.94677,0.01246
2057.98240,0.01246
2057.01802,0.01245
2056.05364,0.01245
2055.08926,0.01245
2054.12488,0.01245
2053.16051,0.01244
2052.19613,0.01244
2051.23175,0.01244
2050.26737,0.01244
2049.30300,0.01243
2048.33862,0.01243
2047.37424,0.01243
2046.40986,0.01243
2045.44548,0.01243
2044.48111,0.01242
2043.51673,0.01242
2042.55235,0.01242
2041.58797,0.01242
2040.62359,0.01241
2039.65922,0.01241
2038.69484,0.01241
2037.73046,0.01241
2036.76608,0.01240
2035.80171,0.01240
2034.83733,0.01240
2033.87295,0.01240
2032.90857,0.01239
2031.94419,0.01239
2030.97982,0.01239
2030.01544,0.01239
2029.05106,0.01239
2028.08668,0.01238
2027.12230,0.01238
2026.15793,0.01238
2025.19355,0.01238
2024.22917,0.01237
2023.26479,0.01237
2022.30041,0.01237
2021.33604,0.01237
2020.37166,0.01236
2019.40728,0.01236
2018.44290,0.01236
2017.47853,0.01236
2016.51415,0.01235
2015.54977,0.01235
2014.58539,0.01235
2013.62101,0.01235
2012.65664,0.01235
2011.69226,0.01234
2010.72788,0.01234
2009.76350,0.01234
2008.79912,0.01234
2007.83475,0.01233
2006.87037,0.01233
2005.90599,0.01233
2004.94161,0.01233
2003.97724,0.01232
2003.01286,0.01232
2002.04848,0.01232
2001.08410,0.01232
2000.11972,0.01231
1999.15535,0.01231
1998.19097,0.01231
1997.22659,0.01231
1996.26221,0.01231
1995.29783,0.01230
1994.33346,0.01230
1993.36908,0.01230
1992.40470,0.01230
1991.44032,0.01229
1990.47594,0.01229
1989.51157,0.01229
1988.54719,0.01229
1987.58281,0.01228
1986.61843,0.01228
1985.65406,0.01228
1984.68968,0.01228
1983.72530,0.01227
1982.76092,0.01227
1981.79654,0.01227
1980.83217,0.01227
1979.86779,0.01227
1978.90341,0.01226
1977.93903,0.01226
1976.97465,0.01226
1976.01028,0.01226
1975.04590,0.01225
1974.08152,0.01225
1973.11714,0.01225
1972.15276,0.01225
1971.18839,0.01224
1970.22401,0.01224
1969.25963,0.01224
1968.29525,0.01224
1967.33088,0.01223
1966.36650,0.01223
1965.40212,0.01223
1964.43774,0.01223
1963.47336,0.01223
1962.50899,0.01222
1961.54461,0.01222
1960.58023,0.01222
1959.61585,0.01222
1958.65147,0.01221
1957.68710,0.01221
1956.72272,0.01221
1955.75834,0.01221
1954.79396,0.01220
1953.82959,0.01220
1952.86521,0.01220
1951.90083,0.01220
1950.93645,0.01219
1949.97207,0.01219
1949.00770,0.01219
1948.04332,0.01219
1947.07894,0.01219
1946.11456,0.01218
1945.15018,0.01218
1944.18581,0.01218
1943.22143,0.01218
1942.25705,0.01217
1941.29267,0.01217
1940.32829,0.01217
1939.36392,0.01217
1938.39954,0.01216
1937.43516,0.01216
1936.47078,0.01216
1935.50641,0.01216
1934.54203,0.01215
1933.57765,0.01215
1932.61327,0.01215
1931.64889,0.01212
1930.68452,0.01207
1929.72014,0.01208
1928.75576,0.01220
1927.79138,0.01235
1926.82700,0.01250
1925.86263,0.01265
1924.89825,0.01277
1923.93387,0.01277
1922.96949,0.01269
1922.00512,0.01271
1921.04074,0.01276
1920.07636,0.01264
1919.11198,0.01253
1918.14760,0.01256
1917.18323,0.01262
1916.21885,0.01259
1915.25447,0.01254
1914.29009,0.01244
1913.32571,0.01225
1912.36134,0.01203
1911.39696,0.01186
1910.43258,0.01180
1909.46820,0.01179
1908.50382,0.01178
1907.53945,0.01186
1906.57507,0.01205
1905.61069,0.01217
1904.64631,0.01218
1903.68194,0.01229
1902.71756,0.01244
1901.75318,0.01252
1900.78880,0.01252
1899.82442,0.01243
1898.86005,0.01232
1897.89567,0.01227
1896.93129,0.01223
1895.96691,0.01218
1895.00253,0.01215
1894.03816,0.01210
1893.07378,0.01212
1892.10940,0.01226
1891.14502,0.01236
1890.18065,0.01236
1889.21627,0.01231
1888.25189,0.01230
1887.28751,0.01238
1886.32313,0.01246
1885.35876,0.01251
1884.39438,0.01250
1883.43000,0.01247
1882.46562,0.01247
1881.50124,0.01249
1880.53687,0.01245
1879.57249,0.01235
1878.60811,0.01229
1877.64373,0.01221
1876.67935,0.01217
1875.71498,0.01222
1874.75060,0.01226
1873.78622,0.01220
1872.82184,0.01206
1871.85747,0.01199
1870.89309,0.01199
1869.92871,0.01201
1868.96433,0.01200
1867.99995,0.01199
1867.03558,0.01201
1866.07120,0.01204
1865.10682,0.01211
1864.14244,0.01218
1863.17806,0.01216
1862.21369,0.01209
1861.24931,0.01203
1860.28493,0.01207
1859.32055,0.01215
1858.35618,0.01221
1857.39180,0.01222
1856.42742,0.01222
1855.46304,0.01228
1854.49866,0.01236
1853.53429,0.01241
1852.56991,0.01240
1851.60553,0.01232
1850.64115,0.01225
1849.67677,0.01220
1848.71240,0.01219
1847.74802,0.01220
1846.78364,0.01223
1845.81926,0.01227
1844.85488,0.01229
1843.89051,0.01232
1842.92613,0.01235
1841.96175,0.01238
1840.99737,0.01242
1840.03300,0.01240
1839.06862,0.01233
1838.10424,0.01228
1837.13986,0.01225
1836.17548,0.01223
1835.21111,0.01223
1834.24673,0.01223
1833.28235,0.01221
1832.31797,0.01221
1831.35359,0.01226
1830.38922,0.01233
1829.42484,0.01246
1828.46046,0.01258
1827.49608,0.01269
1826.53171,0.01282
1825.56733,0.01294
1824.60295,0.01302
1823.63857,0.01305
1822.67419,0.01303
1821.70982,0.01299
1820.74544,0.01293
1819.78106,0.01288
1818.81668,0.01286
1817.85230,0.01288
1816.88793,0.01294
1815.92355,0.01297
1814.95917,0.01298
1813.99479,0.01300
1813.03041,0.01304
1812.06604,0.01308
1811.10166,0.01311
1810.13728,0.01315
1809.17290,0.01317
1808.20853,0.01319
1807.24415,0.01324
1806.27977,0.01329
1805.31539,0.01332
1804.35101,0.01332
1803.38664,0.01332
1802.42226,0.01334
1801.45788,0.01336
1800.49350,0.01341
1799.52912,0.01346
1798.56475,0.01349
1797.60037,0.01351
1796.63599,0.01351
1795.67161,0.01352
1794.70724,0.01352
1793.74286,0.01350
1792.77848,0.01350
1791.81410,0.01354
1790.84972,0.01358
1789.88535,0.01362
1788.92097,0.01367
1787.95659,0.01373
1786.99221,0.01379
1786.02783,0.01381
1785.06346,0.01383
1784.09908,0.01384
1783.13470,0.01386
1782.17032,0.01389
1781.20594,0.01397
1780.24157,0.01409
1779.27719,0.01424
1778.31281,0.01438
1777.34843,0.01454
1776.38406,0.01470
1775.41968,0.01484
1774.45530,0.01495
1773.49092,0.01506
1772.52654,0.01514
1771.56217,0.01522
1770.59779,0.01532
1769.63341,0.01542
1768.66903,0.01554
1767.70465,0.01568
1766.74028,0.01582
1765.77590,0.01598
1764.81152,0.01615
1763.84714,0.01632
1762.88276,0.01648
1761.91839,0.01665
1760.95401,0.01681
1759.98963,0.01697
1759.02525,0.01712
1758.06088,0.01727
1757.09650,0.01743
1756.13212,0.01757
1755.16774,0.01771
1754.20336,0.01787
1753.23899,0.01803
1752.27461,0.01822
1751.31023,0.01840
1750.34585,0.01858
1749.38147,0.01875
1748.41710,0.01890
1747.45272,0.01906
1746.48834,0.01924
1745.52396,0.01941
1744.55959,0.01955
1743.59521,0.01967
1742.63083,0.01977
1741.66645,0.01988
1740.70207,0.02001
1739.73770,0.02013
1738.77332,0.02023
1737.80894,0.02030
1736.84456,0.02035
1735.88018,0.02040
1734.91581,0.02044
1733.95143,0.02047
1732.98705,0.02047
1732.02267,0.02048
1731.05829,0.02050
1730.09392,0.02052
1729.12954,0.02057
1728.16516,0.02062
1727.20078,0.02065
1726.23641,0.02068
1725.27203,0.02071
1724.30765,0.02072
1723.34327,0.02072
1722.37889,0.02071
1721.41452,0.02070
1720.45014,0.02068
1719.48576,0.02064
1718.52138,0.02059
1717.55700,0.02054
1716.59263,0.02048
1715.62825,0.02044
1714.66387,0.02040
1713.69949,0.02037
1712.73512,0.02032
1711.77074,0.02027
1710.80636,0.02021
1709.84198,0.02013
1708.87760,0.02007
1707.91323,0.02003
1706.94885,0.02002
1705.98447,0.02001
1705.02009,0.01999
1704.05571,0.01996
1703.09134,0.01996
1702.12696,0.01999
1701.16258,0.02000
1700.19820,0.02000
1699.23382,0.01997
1698.26945,0.01993
1697.30507,0.01991
1696.34069,0.01991
1695.37631,0.01993
1694.41194,0.01992
1693.44756,0.01988
1692.48318,0.01984
1691.51880,0.01986
1690.55442,0.01990
1689.59005,0.01991
1688.62567,0.01989
1687.66129,0.01988
1686.69691,0.01989
1685.73253,0.01994
1684.76816,0.02002
1683.80378,0.02012
1682.83940,0.02023
1681.87502,0.02034
1680.91065,0.02047
1679.94627,0.02060
1678.98189,0.02071
1678.01751,0.02082
1677.05313,0.02094
1676.08876,0.02108
1675.12438,0.02122
1674.16000,0.02137
1673.19562,0.02153
1672.23124,0.02170
1671.26687,0.02190
1670.30249,0.02211
1669.33811,0.02231
1668.37373,0.02250
1667.40935,0.02269
1666.44498,0.02291
1665.48060,0.02314
1664.51622,0.02339
1663.55184,0.02364
1662.58747,0.02391
1661.62309,0.02418
1660.65871,0.02447
1659.69433,0.02477
1658.72995,0.02506
1657.76558,0.02529
1656.80120,0.02547
1655.83682,0.02564
1654.87244,0.02582
1653.90806,0.02601
1652.94369,0.02622
1651.97931,0.02644
1651.01493,0.02666
1650.05055,0.02686
1649.08618,0.02706
1648.12180,0.02726
1647.15742,0.02742
1646.19304,0.02753
1645.22866,0.02763
1644.26429,0.02776
1643.29991,0.02791
1642.33553,0.02807
1641.37115,0.02823
1640.40677,0.02837
1639.44240,0.02850
1638.47802,0.02862
1637.51364,0.02875
1636.54926,0.02886
1635.58488,0.02895
1634.62051,0.02902
1633.65613,0.02908
1632.69175,0.02913
1631.72737,0.02917
1630.76300,0.02921
1629.79862,0.02922
1628.83424,0.02920
1627.86986,0.02918
1626.90548,0.02915
1625.94111,0.02912
1624.97673,0.02907
1624.01235,0.02902
1623.04797,0.02897
1622.08359,0.02889
1621.11922,0.02878
1620.15484,0.02865
1619.19046,0.02853
1618.22608,0.02841
1617.26171,0.02828
1616.29733,0.02815
1615.33295,0.02803
1614.36857,0.02792
1613.40419,0.02782
1612.43982,0.02775
1611.47544,0.02768
1610.51106,0.02758
1609.54668,0.02747
1608.58230,0.02737
1607.61793,0.02728
1606.65355,0.02721
1605.68917,0.02714
1604.72479,0.02707
1603.76041,0.02700
1602.79604,0.02695
1601.83166,0.02691
1600.86728,0.02689
1599.90290,0.02686
1598.93853,0.02685
1597.97415,0.02682
1597.00977,0.02679
1596.04539,0.02679
1595.08101,0.02680
1594.11664,0.02679
1593.15226,0.02677
1592.18788,0.02675
1591.22350,0.02672
1590.25912,0.02668
1589.29475,0.02664
1588.33037,0.02660
1587.36599,0.02656
1586.40161,0.02649
1585.43724,0.02642
1584.47286,0.02636
1583.50848,0.02630
1582.54410,0.02623
1581.57972,0.02613
1580.61535,0.02599
1579.65097,0.02584
1578.68659,0.02570
1577.72221,0.02557
1576.75783,0.02544
1575.79346,0.02531
1574.82908,0.02516
1573.86470,0.02500
1572.90032,0.02484
1571.93594,0.02469
1570.97157,0.02454
1570.00719,0.02435
1569.04281,0.02415
1568.07843,0.02398
1567.11406,0.02384
1566.14968,0.02370
1565.18530,0.02357
1564.22092,0.02342
1563.25654,0.02325
1562.29217,0.02306
1561.32779,0.02290
1560.36341,0.02276
1559.39903,0.02262
1558.43465,0.02249
1557.47028,0.02237
1556.50590,0.02228
1555.54152,0.02220
1554.57714,0.02211
1553.61276,0.02201
1552.64839,0.02189
1551.68401,0.02175
1550.71963,0.02162
1549.75525,0.02152
1548.79088,0.02144
1547.82650,0.02136
1546.86212,0.02129
1545.89774,0.02122
1544.93336,0.02115
1543.96899,0.02106
1543.00461,0.02094
1542.04023,0.02082
1541.07585,0.02070
1540.11147,0.02059
1539.14710,0.02049
1538.18272,0.02039
1537.21834,0.02030
1536.25396,0.02023
1535.28959,0.02015
1534.32521,0.02009
1533.36083,0.02000
1532.39645,0.01989
1531.43207,0.01977
1530.46770,0.01967
1529.50332,0.01957
1528.53894,0.01949
1527.57456,0.01941
1526.61018,0.01933
1525.64581,0.01922
1524.68143,0.01912
1523.71705,0.01903
1522.75267,0.01896
1521.78829,0.01888
1520.82392,0.01879
1519.85954,0.01872
1518.89516,0.01868
1517.93078,0.01866
1516.96641,0.01865
1516.00203,0.01863
1515.03765,0.01858
1514.07327,0.01851
1513.10889,0.01843
1512.14452,0.01835
1511.18014,0.01826
1510.21576,0.01815
1509.25138,0.01805
1508.28700,0.01796
1507.32263,0.01789
1506.35825,0.01784
1505.39387,0.01781
1504.42949,0.01777
1503.46512,0.01774
1502.50074,0.01772
1501.53636,0.01769
1500.57198,0.01765
1499.60760,0.01761
1498.64323,0.01757
1497.67885,0.01753
1496.71447,0.01748
1495.75009,0.01744
1494.78571,0.01741
1493.82134,0.01740
1492.85696,0.01738
1491.89258,0.01737
1490.92820,0.01736
1489.96382,0.01735
1488.99945,0.01735
1488.03507,0.01736
1487.07069,0.01737
1486.10631,0.01740
1485.14194,0.01743
1484.17756,0.01745
1483.21318,0.01750
1482.24880,0.01755
1481.28442,0.01761
1480.32005,0.01768
1479.35567,0.01776
1478.39129,0.01786
1477.42691,0.01795
1476.46253,0.01804
1475.49816,0.01814
1474.53378,0.01826
1473.56940,0.01838
1472.60502,0.01850
1471.64065,0.01863
1470.67627,0.01875
1469.71189,0.01888
1468.74751,0.01902
1467.78313,0.01914
1466.81876,0.01927
1465.85438,0.01940
1464.89000,0.01951
1463.92562,0.01964
1462.96124,0.01977
1461.99687,0.01989
1461.03249,0.01998
1460.06811,0.02007
1459.10373,0.02015
1458.13935,0.02024
1457.17498,0.02032
1456.21060,0.02040
1455.24622,0.02052
1454.28184,0.02065
1453.31747,0.02076
1452.35309,0.02087
1451.38871,0.02099
1450.42433,0.02110
1449.45995,0.02121
1448.49558,0.02133
1447.53120,0.02145
1446.56682,0.02157
1445.60244,0.02169
1444.63806,0.02181
1443.67369,0.02193
1442.70931,0.02204
1441.74493,0.02214
1440.78055,0.02222
1439.81618,0.02229
1438.85180,0.02238
1437.88742,0.02248
1436.92304,0.02258
1435.95866,0.02266
1434.99429,0.02274
1434.02991,0.02280
1433.06553,0.02287
1432.10115,0.02294
1431.13677,0.02302
1430.17240,0.02309
1429.20802,0.02317
1428.24364,0.02325
1427.27926,0.02334
1426.31488,0.02345
1425.35051,0.02358
1424.38613,0.02371
1423.42175,0.02385
1422.45737,0.02399
1421.49300,0.02416
1420.52862,0.02433
1419.56424,0.02449
1418.59986,0.02466
1417.63548,0.02483
1416.67111,0.02499
1415.70673,0.02515
1414.74235,0.02532
1413.77797,0.02549
1412.81359,0.02564
1411.84922,0.02578
1410.88484,0.02590
1409.92046,0.02601
1408.95608,0.02612
1407.99171,0.02624
1407.02733,0.02635
1406.06295,0.02646
1405.09857,0.02655
1404.13419,0.02665
1403.16982,0.02676
1402.20544,0.02685
1401.24106,0.02693
1400.27668,0.02700
1399.31230,0.02704
1398.34793,0.02710
1397.38355,0.02717
1396.41917,0.02725
1395.45479,0.02731
1394.49041,0.02737
1393.52604,0.02743
1392.56166,0.02747
1391.59728,0.02750
1390.63290,0.02751
1389.66853,0.02751
1388.70415,0.02749
1387.73977,0.02747
1386.77539,0.02746
1385.81101,0.02746
1384.84664,0.02745
1383.88226,0.02742
1382.91788,0.02739
1381.95350,0.02736
1380.98912,0.02733
1380.02475,0.02729
1379.06037,0.02727
1378.09599,0.02726
1377.13161,0.02726
1376.16724,0.02726
1375.20286,0.02725
1374.23848,0.02721
1373.27410,0.02718
1372.30972,0.02712
1371.34535,0.02706
1370.38097,0.02700
1369.41659,0.02694
1368.45221,0.02689
1367.48783,0.02686
1366.52346,0.02682
1365.55908,0.02679
1364.59470,0.02676
1363.63032,0.02671
1362.66594,0.02668
1361.70157,0.02665
1360.73719,0.02662
1359.77281,0.02659
1358.80843,0.02655
1357.84406,0.02652
1356.87968,0.02650
1355.91530,0.02648
1354.95092,0.02644
1353.98654,0.02639
1353.02217,0.02633
1352.05779,0.02628
1351.09341,0.02624
1350.12903,0.02620
1349.16465,0.02615
1348.20028,0.02610
1347.23590,0.02606
1346.27152,0.02607
1345.30714,0.02609
1344.34276,0.02608
1343.37839,0.02604
1342.41401,0.02601
1341.44963,0.02598
1340.48525,0.02596
1339.52088,0.02592
1338.55650,0.02584
1337.59212,0.02577
1336.62774,0.02571
1335.66336,0.02568
1334.69899,0.02565
1333.73461,0.02558
1332.77023,0.02550
1331.80585,0.02545
1330.84147,0.02543
1329.87710,0.02539
1328.91272,0.02534
1327.94834,0.02528
1326.98396,0.02521
1326.01959,0.02518
1325.05521,0.02513
1324.09083,0.02508
1323.12645,0.02502
1322.16207,0.02497
1321.19770,0.02495
1320.23332,0.02496
1319.26894,0.02496
1318.30456,0.02495
1317.34018,0.02496
1316.37581,0.02497
1315.41143,0.02499
1314.44705,0.02502
1313.48267,0.02504
1312.51829,0.02504
1311.55392,0.02505
1310.58954,0.02514
1309.62516,0.02527
1308.66078,0.02539
1307.69641,0.02549
1306.73203,0.02558
1305.76765,0.02563
1304.80327,0.02564
1303.83889,0.02563
1302.87452,0.02558
1301.91014,0.02548
1300.94576,0.02536
1299.98138,0.02528
1299.01700,0.02527
1298.05263,0.02528
1297.08825,0.02528
1296.12387,0.02530
1295.15949,0.02533
1294.19512,0.02536
1293.23074,0.02539
1292.26636,0.02543
1291.30198,0.02547
1290.33760,0.02549
1289.37323,0.02550
1288.40885,0.02552
1287.44447,0.02554
1286.48009,0.02555
1285.51571,0.02557
1284.55134,0.02559
1283.58696,0.02560
1282.62258,0.02560
1281.65820,0.02563
1280.69382,0.02566
1279.72945,0.02570
1278.76507,0.02574
1277.80069,0.02577
1276.83631,0.02581
1275.87194,0.02585
1274.90756,0.02590
1273.94318,0.02594
1272.97880,0.02598
1272.01442,0.02601
1271.05005,0.02604
1270.08567,0.02609
1269.12129,0.02614
1268.15691,0.02620
1267.19253,0.02626
1266.22816,0.02633
1265.26378,0.02639
1264.29940,0.02646
1263.33502,0.02652
1262.37065,0.02657
1261.40627,0.02661
1260.44189,0.02664
1259.47751,0.02667
1258.51313,0.02673
1257.54876,0.02679
1256.58438,0.02686
1255.62000,0.02694
1254.65562,0.02701
1253.69124,0.02709
1252.72687,0.02717
1251.76249,0.02726
1250.79811,0.02733
1249.83373,0.02739
1248.86935,0.02744
1247.90498,0.02749
1246.94060,0.02755
1245.97622,0.02760
1245.01184,0.02764
1244.04747,0.02765
1243.08309,0.02766
1242.11871,0.02766
1241.15433,0.02769
1240.18995,0.02772
1239.22558,0.02775
1238.26120,0.02778
1237.29682,0.02780
1236.33244,0.02783
1235.36806,0.02785
1234.40369,0.02787
1233.43931,0.02787
1232.47493,0.02788
1231.51055,0.02787
1230.54618,0.02788
1229.58180,0.02789
1228.61742,0.02789
1227.65304,0.02788
1226.68866,0.02788
1225.72429,0.02786
1224.75991,0.02783
1223.79553,0.02778
1222.83115,0.02774
1221.86677,0.02770
1220.90240,0.02766
1219.93802,0.02761
1218.97364,0.02756
1218.00926,0.02750
1217.04488,0.02744
1216.08051,0.02738
1215.11613,0.02731
1214.15175,0.02724
1213.18737,0.02716
1212.22300,0.02709
1211.25862,0.02703
1210.29424,0.02696
1209.32986,0.02689
1208.36548,0.02681
1207.40111,0.02673
1206.43673,0.02663
1205.47235,0.02652
1204.50797,0.02639
1203.54359,0.02626
1202.57922,0.02613
1201.61484,0.02602
1200.65046,0.02590
1199.68608,0.02578
1198.72171,0.02568
1197.75733,0.02560
1196.79295,0.02553
1195.82857,0.02547
1194.86419,0.02540
1193.89982,0.02533
1192.93544,0.02525
1191.97106,0.02516
1191.00668,0.02509
1190.04230,0.02500
1189.07793,0.02490
1188.11355,0.02480
1187.14917,0.02470
1186.18479,0.02462
1185.22041,0.02454
1184.25604,0.02447
1183.29166,0.02441
1182.32728,0.02438
1181.36290,0.02434
1180.39853,0.02430
1179.43415,0.02425
1178.46977,0.02420
1177.50539,0.02414
1176.54101,0.02410
1175.57664,0.02406
1174.61226,0.02403
1173.64788,0.02401
1172.68350,0.02401
1171.71912,0.02403
1170.75475,0.02406
1169.79037,0.02408
1168.82599,0.02408
1167.86161,0.02408
1166.89724,0.02407
1165.93286,0.02406
1164.96848,0.02404
1164.00410,0.02402
1163.03972,0.02399
1162.07535,0.02396
1161.11097,0.02394
1160.14659,0.02393
1159.18221,0.02390
1158.21783,0.02389
1157.25346,0.02388
1156.28908,0.02385
1155.32470,0.02383
1154.36032,0.02380
1153.39594,0.02376
1152.43157,0.02371
1151.46719,0.02367
1150.50281,0.02363
1149.53843,0.02358
1148.57406,0.02353
1147.60968,0.02348
1146.64530,0.02345
1145.68092,0.02341
1144.71654,0.02336
1143.75217,0.02332
1142.78779,0.02329
1141.82341,0.02327
1140.85903,0.02327
1139.89465,0.02328
1138.93028,0.02329
1137.96590,0.02329
1137.00152,0.02326
1136.03714,0.02326
1135.07276,0.02326
1134.10839,0.02324
1133.14401,0.02323
1132.17963,0.02323
1131.21525,0.02323
1130.25088,0.02323
1129.28650,0.02326
1128.32212,0.02328
1127.35774,0.02330
1126.39336,0.02331
1125.42899,0.02334
1124.46461,0.02339
1123.50023,0.02343
1122.53585,0.02348
1121.57147,0.02354
1120.60710,0.02359
1119.64272,0.02363
1118.67834,0.02367
1117.71396,0.02370
1116.74959,0.02374
1115.78521,0.02377
1114.82083,0.02383
1113.85645,0.02390
1112.89207,0.02395
1111.92770,0.02399
1110.96332,0.02407
1109.99894,0.02413
1109.03456,0.02416
1108.07018,0.02419
1107.10581,0.02425
1106.14143,0.02430
1105.17705,0.02436
1104.21267,0.02444
1103.24829,0.02455
1102.28392,0.02466
1101.31954,0.02475
1100.35516,0.02485
1099.39078,0.02494
1098.42641,0.02499
1097.46203,0.02502
1096.49765,0.02505
1095.53327,0.02508
1094.56889,0.02510
1093.60452,0.02515
1092.64014,0.02523
1091.67576,0.02534
1090.71138,0.02545
1089.74700,0.02556
1088.78263,0.02566
1087.81825,0.02576
1086.85387,0.02587
1085.88949,0.02597
1084.92512,0.02606
1083.96074,0.02613
1082.99636,0.02621
1082.03198,0.02629
1081.06760,0.02635
1080.10323,0.02640
1079.13885,0.02646
1078.17447,0.02653
1077.21009,0.02659
1076.24571,0.02665
1075.28134,0.02672
1074.31696,0.02678
1073.35258,0.02682
1072.38820,0.02682
1071.42382,0.02679
1070.45945,0.02673
1069.49507,0.02666
1068.53069,0.02660
1067.56631,0.02657
1066.60194,0.02656
1065.63756,0.02653
1064.67318,0.02650
1063.70880,0.02648
1062.74442,0.02644
1061.78005,0.02638
1060.81567,0.02628
1059.85129,0.02616
1058.88691,0.02606
1057.92253,0.02595
1056.95816,0.02584
1055.99378,0.02574
1055.02940,0.02564
1054.06502,0.02552
1053.10065,0.02539
1052.13627,0.02529
1051.17189,0.02517
1050.20751,0.02504
1049.24313,0.02492
1048.27876,0.02482
1047.31438,0.02471
1046.35000,0.02462
1045.38562,0.02453
1044.42124,0.02442
1043.45687,0.02432
1042.49249,0.02419
1041.52811,0.02406
1040.56373,0.02395
1039.59935,0.02383
1038.63498,0.02370
1037.67060,0.02357
1036.70622,0.02344
1035.74184,0.02332
1034.77747,0.02322
1033.81309,0.02310
1032.84871,0.02297
1031.88433,0.02283
1030.91995,0.02267
1029.95558,0.02251
1028.99120,0.02238
1028.02682,0.02227
1027.06244,0.02217
1026.09806,0.02209
1025.13369,0.02202
1024.16931,0.02198
1023.20493,0.02194
1022.24055,0.02189
1021.27618,0.02180
1020.31180,0.02168
1019.34742,0.02154
1018.38304,0.02140
1017.41866,0.02128
1016.45429,0.02115
1015.48991,0.02104
1014.52553,0.02095
1013.56115,0.02087
1012.59677,0.02080
1011.63240,0.02073
1010.66802,0.02066
1009.70364,0.02057
1008.73926,0.02047
1007.77488,0.02038
1006.81051,0.02031
1005.84613,0.02025
1004.88175,0.02019
1003.91737,0.02014
1002.95300,0.02009
1001.98862,0.02002
1001.02424,0.01996
1000.05986,0.01990
999.09548,0.01987
998.13111,0.01984
997.16673,0.01980
996.20235,0.01977
995.23797,0.01972
994.27359,0.01968
993.30922,0.01964
992.34484,0.01960
991.38046,0.01955
990.41608,0.01950
989.45171,0.01946
988.48733,0.01945
987.52295,0.01944
986.55857,0.01944
985.59419,0.01944
984.62982,0.01942
983.66544,0.01936
982.70106,0.01927
981.73668,0.01919
980.77230,0.01912
979.80793,0.01904
978.84355,0.01894
977.87917,0.01885
976.91479,0.01879
975.95041,0.01877
974.98604,0.01881
974.02166,0.01885
973.05728,0.01884
972.09290,0.01880
971.12853,0.01873
970.16415,0.01865
969.19977,0.01857
968.23539,0.01847
967.27101,0.01837
966.30664,0.01828
965.34226,0.01820
964.37788,0.01815
963.41350,0.01813
962.44912,0.01810
961.48475,0.01802
960.52037,0.01793
959.55599,0.01784
958.59161,0.01776
957.62724,0.01769
956.66286,0.01761
955.69848,0.01756
954.73410,0.01750
953.76972,0.01742
952.80535,0.01736
951.84097,0.01734
950.87659,0.01730
949.91221,0.01724
948.94783,0.01719
947.98346,0.01714
947.01908,0.01708
946.05470,0.01701
945.09032,0.01694
944.12594,0.01689
943.16157,0.01684
942.19719,0.01677
941.23281,0.01673
940.26843,0.01669
939.30406,0.01660
938.33968,0.01651
937.37530,0.01643
936.41092,0.01635
935.44654,0.01628
934.48217,0.01622
933.51779,0.01616
932.55341,0.01614
931.58903,0.01615
930.62465,0.01616
929.66028,0.01619
928.69590,0.01619
927.73152,0.01615
926.76714,0.01610
925.80276,0.01607
924.83839,0.01601
923.87401,0.01593
922.90963,0.01588
921.94525,0.01585
920.98088,0.01583
920.01650,0.01580
919.05212,0.01575
918.08774,0.01572
917.12336,0.01567
916.15899,0.01559
915.19461,0.01554
914.23023,0.01550
913.26585,0.01544
912.30147,0.01540
911.33710,0.01540
910.37272,0.01542
909.40834,0.01542
908.44396,0.01541
907.47959,0.01537
906.51521,0.01531
905.55083,0.01527
904.58645,0.01522
903.62207,0.01516
902.65770,0.01509
901.69332,0.01499
900.72894,0.01489
899.76456,0.01482
898.80018,0.01479
897.83581,0.01477
896.87143,0.01475
895.90705,0.01472
894.94267,0.01471
893.97829,0.01474
893.01392,0.01475
892.04954,0.01477
891.08516,0.01476
890.12078,0.01471
889.15641,0.01466
888.19203,0.01465
887.22765,0.01465
886.26327,0.01463
885.29889,0.01459
884.33452,0.01455
883.37014,0.01452
882.40576,0.01451
881.44138,0.01451
880.47700,0.01452
879.51263,0.01451
878.54825,0.01451
877.58387,0.01454
876.61949,0.01457
875.65512,0.01459
874.69074,0.01462
873.72636,0.01465
872.76198,0.01465
871.79760,0.01463
870.83323,0.01460
869.86885,0.01459
868.90447,0.01461
867.94009,0.01463
866.97571,0.01466
866.01134,0.01469
865.04696,0.01470
864.08258,0.01471
863.11820,0.01475
862.15382,0.01475
861.18945,0.01471
860.22507,0.01466
859.26069,0.01462
858.29631,0.01462
857.33194,0.01465
856.36756,0.01469
855.40318,0.01472
854.43880,0.01477
853.47442,0.01481
852.51005,0.01484
851.54567,0.01485
850.58129,0.01483
849.61691,0.01481
848.65253,0.01481
847.68816,0.01482
846.72378,0.01484
845.75940,0.01488
844.79502,0.01493
843.83065,0.01496
842.86627,0.01499
841.90189,0.01501
840.93751,0.01501
839.97313,0.01499
839.00876,0.01496
838.04438,0.01495
837.08000,0.01496
836.11562,0.01498
835.15124,0.01500
834.18687,0.01503
833.22249,0.01506
832.25811,0.01505
831.29373,0.01503
830.32935,0.01504
829.36498,0.01507
828.40060,0.01509
827.43622,0.01508
826.47184,0.01504
825.50747,0.01498
824.54309,0.01492
823.57871,0.01486
822.61433,0.01479
821.64995,0.01473
820.68558,0.01470
819.72120,0.01472
818.75682,0.01479
817.79244,0.01488
816.82806,0.01495
815.86369,0.01497
814.89931,0.01495
813.93493,0.01491
812.97055,0.01487
812.00618,0.01486
811.04180,0.01483
810.07742,0.01482
809.11304,0.01485
808.14866,0.01489
807.18429,0.01492
806.21991,0.01491
805.25553,0.01488
804.29115,0.01485
803.32677,0.01481
802.36240,0.01475
801.39802,0.01471
800.43364,0.01473
799.46926,0.01474
798.50488,0.01476
797.54051,0.01482
796.57613,0.01486
795.61175,0.01488
794.64737,0.01491
793.68300,0.01493
792.71862,0.01493
791.75424,0.01489
790.78986,0.01485
789.82548,0.01486
788.86111,0.01487
787.89673,0.01483
786.93235,0.01479
785.96797,0.01475
785.00359,0.01471
784.03922,0.01466
783.07484,0.01462
782.11046,0.01459
781.14608,0.01454
780.18171,0.01456
779.21733,0.01464
778.25295,0.01472
777.28857,0.01475
776.32419,0.01477
775.35982,0.01480
774.39544,0.01479
773.43106,0.01472
772.46668,0.01463
771.50230,0.01457
770.53793,0.01453
769.57355,0.01448
768.60917,0.01450
767.64479,0.01453
766.68041,0.01455
765.71604,0.01461
764.75166,0.01470
763.78728,0.01478
762.82290,0.01482
761.85853,0.01484
760.89415,0.01483
759.92977,0.01484
758.96539,0.01483
758.00101,0.01480
757.03664,0.01478
756.07226,0.01475
755.10788,0.01478
754.14350,0.01484
753.17912,0.01491
752.21475,0.01496
751.25037,0.01497
750.28599,0.01494
749.32161,0.01494
748.35724,0.01498
747.39286,0.01499
746.42848,0.01503
745.46410,0.01510
744.49972,0.01520
743.53535,0.01531
742.57097,0.01539
741.60659,0.01544
740.64221,0.01545
739.67783,0.01543
738.71346,0.01539
737.74908,0.01533
736.78470,0.01528
735.82032,0.01525
734.85594,0.01530
733.89157,0.01536
732.92719,0.01539
731.96281,0.01536
730.99843,0.01532
730.03406,0.01532
729.06968,0.01531
728.10530,0.01528
727.14092,0.01525
726.17654,0.01522
725.21217,0.01520
724.24779,0.01522
723.28341,0.01527
722.31903,0.01534
721.35465,0.01540
720.39028,0.01543
719.42590,0.01551
718.46152,0.01559
717.49714,0.01563
716.53276,0.01563
715.56839,0.01562
714.60401,0.01559
713.63963,0.01554
712.67525,0.01554
711.71088,0.01560
710.74650,0.01565
709.78212,0.01568
708.81774,0.01572
707.85336,0.01579
706.88899,0.01586
705.92461,0.01589
704.96023,0.01589
703.99585,0.01586
703.03147,0.01582
702.06710,0.01581
701.10272,0.01584
700.13834,0.01587
699.17396,0.01586
698.20959,0.01586
697.24521,0.01590
696.28083,0.01597
695.31645,0.01602
694.35207,0.01604
693.38770,0.01608
692.42332,0.01609
691.45894,0.01606
690.49456,0.01604
689.53018,0.01604
688.56581,0.01605
687.60143,0.01606
686.63705,0.01607
685.67267,0.01610
684.70829,0.01613
683.74392,0.01614
682.77954,0.01612
681.81516,0.01612
680.85078,0.01610
679.88641,0.01603
678.92203,0.01599
677.95765,0.01596
676.99327,0.01592
676.02889,0.01586
675.06452,0.01574
674.10014,0.01556
673.13576,0.01565
672.17138,0.01610
671.20700,0.01655
670.24263,0.01689
669.27825,0.01711
668.31387,0.01722
667.34949,0.01725
666.38512,0.01714
665.42074,0.01688
664.45636,0.01655
663.49198,0.01613
662.52760,0.01576
661.56323,0.01578
660.59885,0.01602
659.63447,0.01612
658.67009,0.01614
657.70571,0.01618
656.74134,0.01622
655.77696,0.01622
654.81258,0.01621
653.84820,0.01623
652.88382,0.01628
651.91945,0.01630
650.95507,0.01630
649.99069,0.01632
649.02631,0.01635
648.06194,0.01636
647.09756,0.01634
646.13318,0.01632
645.16880,0.01630
644.20442,0.01629
643.24005,0.01629
642.27567,0.01630
641.31129,0.01631
640.34691,0.01630
639.38253,0.01627
638.41816,0.01625
637.45378,0.01621
636.48940,0.01613
635.52502,0.01602
634.56065,0.01592
633.59627,0.01581
632.63189,0.01574
631.66751,0.01574
630.70313,0.01580
629.73876,0.01608
628.77438,0.01647
627.81000,0.01676
626.84562,0.01749
625.88124,0.01894
624.91687,0.02011
623.95249,0.02013
622.98811,0.01950
622.02373,0.01856
621.05935,0.01748
620.09498,0.01661
619.13060,0.01582
618.16622,0.01504
617.20184,0.01443
616.23747,0.01404
615.27309,0.01392
614.30871,0.01435
613.34433,0.01495
612.37995,0.01489
611.41558,0.01440
610.45120,0.01377
609.48682,0.01351
608.52244,0.01406
607.55806,0.01484
606.59369,0.01555
605.62931,0.01633
604.66493,0.01684
603.70055,0.01689
602.73618,0.01732
601.77180,0.01811
600.80742,0.01819
599.84304,0.01757
598.87866,0.01688
597.91429,0.01662
596.94991,0.01668
595.98553,0.01663
595.02115,0.01657
594.05677,0.01661
593.09240,0.01662
592.12802,0.01655
591.16364,0.01643
590.19926,0.01633
589.23488,0.01632
588.27051,0.01641
587.30613,0.01656
586.34175,0.01671
585.37737,0.01670
584.41300,0.01661
583.44862,0.01660
582.48424,0.01661
581.51986,0.01661
580.55548,0.01656
579.59111,0.01644
578.62673,0.01640
577.66235,0.01644
576.69797,0.01651
575.73359,0.01653
574.76922,0.01652
573.80484,0.01651
572.84046,0.01655
571.87608,0.01660
570.91171,0.01658
569.94733,0.01661
568.98295,0.01665
568.01857,0.01664
567.05419,0.01667
566.08982,0.01668
565.12544,0.01667
564.16106,0.01656
563.19668,0.01637
562.23230,0.01625
561.26793,0.01618
560.30355,0.01606
559.33917,0.01597
558.37479,0.01600
557.41041,0.01610
556.44604,0.01625
555.48166,0.01644
554.51728,0.01656
553.55290,0.01662
552.58853,0.01662
551.62415,0.01653
550.65977,0.01639
549.69539,0.01627
548.73101,0.01627
547.76664,0.01643
546.80226,0.01656
545.83788,0.01664
544.87350,0.01681
543.90912,0.01692
542.94475,0.01692
541.98037,0.01692
541.01599,0.01687
540.05161,0.01668
539.08724,0.01645
538.12286,0.01632
537.15848,0.01632
536.19410,0.01643
535.22972,0.01650
534.26535,0.01651
533.30097,0.01656
532.33659,0.01657
531.37221,0.01660
530.40783,0.01660
529.44346,0.01648
528.47908,0.01636
527.51470,0.01631
526.55032,0.01630
525.58594,0.01633
524.62157,0.01646
523.65719,0.01659
522.69281,0.01658
521.72843,0.01655
520.76406,0.01661
519.79968,0.01670
518.83530,0.01676
517.87092,0.01676
516.90654,0.01673
515.94217,0.01673
514.97779,0.01675
514.01341,0.01676
513.04903,0.01676
512.08465,0.01674
511.12028,0.01670
510.15590,0.01665
509.19152,0.01667
508.22714,0.01678
507.26276,0.01693
506.29839,0.01702
505.33401,0.01697
504.36963,0.01689
503.40525,0.01681
502.44088,0.01677
501.47650,0.01665
500.51212,0.01645
499.54774,0.01625
498.58336,0.01612
497.61899,0.01615
496.65461,0.01625
495.69023,0.01635
494.72585,0.01635
493.76147,0.01626
492.79710,0.01620
491.83272,0.01620
490.86834,0.01614
489.90396,0.01596
488.93959,0.01587
487.97521,0.01599
487.01083,0.01618
486.04645,0.01639
485.08207,0.01655
484.11770,0.01656
483.15332,0.01652
482.18894,0.01654
481.22456,0.01657
480.26018,0.01650
479.29581,0.01636
478.33143,0.01622
477.36705,0.01617
476.40267,0.01620
475.43829,0.01617
474.47392,0.01611
473.50954,0.01604
472.54516,0.01593
471.58078,0.01586
470.61641,0.01588
469.65203,0.01584
468.68765,0.01580
467.72327,0.01581
466.75889,0.01579
465.79452,0.01583
464.83014,0.01590
463.86576,0.01593
462.90138,0.01595
461.93700,0.01597
460.97263,0.01592
460.00825,0.01584
459.04387,0.01576
458.07949,0.01565
457.11512,0.01559
456.15074,0.01559
455.18636,0.01556
454.22198,0.01553
453.25760,0.01551
452.29323,0.01551
451.32885,0.01548
450.36447,0.01537
449.40009,0.01520
448.43571,0.01508
447.47134,0.01503
446.50696,0.01506
445.54258,0.01517
444.57820,0.01529
443.61382,0.01537
442.64945,0.01544
441.68507,0.01559
440.72069,0.01575
439.75631,0.01583
438.79194,0.01582
437.82756,0.01574
436.86318,0.01569
435.89880,0.01566
434.93442,0.01560
433.97005,0.01546
433.00567,0.01524
432.04129,0.01498
431.07691,0.01473
430.11253,0.01460
429.14816,0.01455
428.18378,0.01458
427.21940,0.01466
426.25502,0.01470
425.29065,0.01476
424.32627,0.01483
423.36189,0.01485
422.39751,0.01484
421.43313,0.01478
420.46876,0.01476
419.50438,0.01475
418.54000,0.01475
417.57562,0.01473
416.61124,0.01473
415.64687,0.01474
414.68249,0.01468
413.71811,0.01465
412.75373,0.01464
411.78935,0.01459
410.82498,0.01452
409.86060,0.01445
408.89622,0.01440
407.93184,0.01436
406.96747,0.01425
406.00309,0.01409
405.03871,0.01395
404.07433,0.01395
403.10995,0.01395
402.14558,0.01395
401.18120,0.01395
400.21682,0.01395
399.25244,0.01395
