3998.31069,0.0055266
3997.34631,0.0055266
3996.38194,0.0055266
3995.41756,0.0055266
3994.45318,0.0055266
3993.48880,0.0055266
3992.52442,0.0055266
3991.56005,0.0054764
3990.59567,0.0054721
3989.63129,0.0054690
3988.66691,0.0053839
3987.70253,0.0052960
3986.73816,0.0052679
3985.77378,0.0053071
3984.80940,0.0053949
3983.84502,0.0054772
3982.88065,0.0055839
3981.91627,0.0056291
3980.95189,0.0056109
3979.98751,0.0056385
3979.02313,0.0056625
3978.05876,0.0056683
3977.09438,0.0056864
3976.13000,0.0057357
3975.16562,0.0058151
3974.20124,0.0058907
3973.23687,0.0059679
3972.27249,0.0060529
3971.30811,0.0060969
3970.34373,0.0060670
3969.37935,0.0060377
3968.41498,0.0060018
3967.45060,0.0059060
3966.48622,0.0058045
3965.52184,0.0057089
3964.55747,0.0056324
3963.59309,0.0055929
3962.62871,0.0055747
3961.66433,0.0055970
3960.69995,0.0056527
3959.73558,0.0057129
3958.77120,0.0057573
3957.80682,0.0057842
3956.84244,0.0057788
3955.87806,0.0057123
3954.91369,0.0056255
3953.94931,0.0055678
3952.98493,0.0055593
3952.02055,0.0055628
3951.05618,0.0055269
3950.09180,0.0054969
3949.12742,0.0054925
3948.16304,0.0055053
3947.19866,0.0055297
3946.23429,0.0055443
3945.26991,0.0055528
3944.30553,0.0055245
3943.34115,0.0055039
3942.37677,0.0055462
3941.41240,0.0055953
3940.44802,0.0056192
3939.48364,0.0055980
3938.51926,0.0055553
3937.55488,0.0055295
3936.59051,0.0055305
3935.62613,0.0055761
3934.66175,0.0056220
3933.69737,0.0056306
3932.73300,0.0056134
3931.76862,0.0056206
3930.80424,0.0056750
3929.83986,0.0057050
3928.87548,0.0056739
3927.91111,0.0055832
3926.94673,0.0054405
3925.98235,0.0053211
3925.01797,0.0052797
3924.05359,0.0053088
3923.08922,0.0053851
3922.12484,0.0054487
3921.16046,0.0055068
3920.19608,0.0056154
3919.23171,0.0057114
3918.26733,0.0057057
3917.30295,0.0056400
3916.33857,0.0055770
3915.37419,0.0054870
3914.40982,0.0053996
3913.44544,0.0053619
3912.48106,0.0053603
3911.51668,0.0054091
3910.55230,0.0054701
3909.58793,0.0055462
3908.62355,0.0056358
3907.65917,0.0056886
3906.69479,0.0057626
3905.73041,0.0058695
3904.76604,0.0059489
3903.80166,0.0059916
3902.83728,0.0060163
3901.87290,0.0059864
3900.90853,0.0059298
3899.94415,0.0058938
3898.97977,0.0057928
3898.01539,0.0056529
3897.05101,0.0055459
3896.08664,0.0055053
3895.12226,0.0055322
3894.15788,0.0055523
3893.19350,0.0055803
3892.22912,0.0056046
3891.26475,0.0056136
3890.30037,0.0056303
3889.33599,0.0056463
3888.37161,0.0056233
3887.40724,0.0055128
3886.44286,0.0054378
3885.47848,0.0054572
3884.51410,0.0054874
3883.54972,0.0055108
3882.58535,0.0055211
3881.62097,0.0055202
3880.65659,0.0055008
3879.69221,0.0054720
3878.72783,0.0054476
3877.76346,0.0054145
3876.79908,0.0053505
3875.83470,0.0052818
3874.87032,0.0053207
3873.90594,0.0054228
3872.94157,0.0054693
3871.97719,0.0055090
3871.01281,0.0056018
3870.04843,0.0057157
3869.08406,0.0057808
3868.11968,0.0057562
3867.15530,0.0057064
3866.19092,0.0056582
3865.22654,0.0055832
3864.26217,0.0055268
3863.29779,0.0055033
3862.33341,0.0054681
3861.36903,0.0053769
3860.40465,0.0053405
3859.44028,0.0054870
3858.47590,0.0056378
3857.51152,0.0057015
3856.54714,0.0057027
3855.58276,0.0056455
3854.61839,0.0055819
3853.65401,0.0055350
3852.68963,0.0054828
3851.72525,0.0053706
3850.76088,0.0052446
3849.79650,0.0051487
3848.83212,0.0051208
3847.86774,0.0051704
3846.90336,0.0051738
3845.93899,0.0051843
3844.97461,0.0051715
3844.01023,0.0051421
3843.04585,0.0052606
3842.08147,0.0054242
3841.11710,0.0055461
3840.15272,0.0056284
3839.18834,0.0056875
3838.22396,0.0057394
3837.25959,0.0057149
3836.29521,0.0056175
3835.33083,0.0054770
3834.36645,0.0053195
3833.40207,0.0051562
3832.43770,0.0050697
3831.47332,0.0051284
3830.50894,0.0051928
3829.54456,0.0052347
3828.58018,0.0052566
3827.61581,0.0052444
3826.65143,0.0052702
3825.68705,0.0052796
3824.72267,0.0052297
3823.75829,0.0051266
3822.79392,0.0049870
3821.82954,0.0049072
3820.86516,0.0049299
3819.90078,0.0050227
3818.93641,0.0051102
3817.97203,0.0051391
3817.00765,0.0051102
3816.04327,0.0050511
3815.07889,0.0050100
3814.11452,0.0049670
3813.15014,0.0049393
3812.18576,0.0049775
3811.22138,0.0050716
3810.25700,0.0052081
3809.29263,0.0053290
3808.32825,0.0054030
3807.36387,0.0054725
3806.39949,0.0055489
3805.43512,0.0055644
3804.47074,0.0054820
3803.50636,0.0053770
3802.54198,0.0053221
3801.57760,0.0053346
3800.61323,0.0053394
3799.64885,0.0052641
3798.68447,0.0051628
3797.72009,0.0050623
3796.75571,0.0049929
3795.79134,0.0050105
3794.82696,0.0050864
3793.86258,0.0050967
3792.89820,0.0049949
3791.93382,0.0049010
3790.96945,0.0048530
3790.00507,0.0047918
3789.04069,0.0046998
3788.07631,0.0046268
3787.11194,0.0046390
3786.14756,0.0047140
3785.18318,0.0048395
3784.21880,0.0049538
3783.25442,0.0050240
3782.29005,0.0050945
3781.32567,0.0051075
3780.36129,0.0050666
3779.39691,0.0050110
3778.43253,0.0049697
3777.46816,0.0049498
3776.50378,0.0048902
3775.53940,0.0048644
3774.57502,0.0049265
3773.61065,0.0049698
3772.64627,0.0049237
3771.68189,0.0048697
3770.71751,0.0048633
3769.75313,0.0048295
3768.78876,0.0047490
3767.82438,0.0046554
3766.86000,0.0045955
3765.89562,0.0045687
3764.93124,0.0045538
3763.96687,0.0046019
3763.00249,0.0047006
3762.03811,0.0047813
3761.07373,0.0048250
3760.10935,0.0048633
3759.14498,0.0048953
3758.18060,0.0049798
3757.21622,0.0051076
3756.25184,0.0051230
3755.28747,0.0051075
3754.32309,0.0051566
3753.35871,0.0051848
3752.39433,0.0051307
3751.42995,0.0050296
3750.46558,0.0050301
3749.50120,0.0051109
3748.53682,0.0051219
3747.57244,0.0050701
3746.60806,0.0050848
3745.64369,0.0051475
3744.67931,0.0051244
3743.71493,0.0050890
3742.75055,0.0050982
3741.78618,0.0050943
3740.82180,0.0050394
3739.85742,0.0049798
3738.89304,0.0050162
3737.92866,0.0050905
3736.96429,0.0051170
3735.99991,0.0051233
3735.03553,0.0051073
3734.07115,0.0050287
3733.10677,0.0049339
3732.14240,0.0048920
3731.17802,0.0049393
3730.21364,0.0050468
3729.24926,0.0050798
3728.28488,0.0050415
3727.32051,0.0049921
3726.35613,0.0049747
3725.39175,0.0050166
3724.42737,0.0050224
3723.46300,0.0049522
3722.49862,0.0048755
3721.53424,0.0048692
3720.56986,0.0048938
3719.60548,0.0049070
3718.64111,0.0048814
3717.67673,0.0047973
3716.71235,0.0047465
3715.74797,0.0047402
3714.78359,0.0047525
3713.81922,0.0047478
3712.85484,0.0047443
3711.89046,0.0047987
3710.92608,0.0048655
3709.96171,0.0049149
3708.99733,0.0048979
3708.03295,0.0048326
3707.06857,0.0047759
3706.10419,0.0047577
3705.13982,0.0047741
3704.17544,0.0047967
3703.21106,0.0048285
3702.24668,0.0047691
3701.28230,0.0046847
3700.31793,0.0046392
3699.35355,0.0045616
3698.38917,0.0044941
3697.42479,0.0044410
3696.46041,0.0044492
3695.49604,0.0044750
3694.53166,0.0044932
3693.56728,0.0045808
3692.60290,0.0046877
3691.63853,0.0047841
3690.67415,0.0048312
3689.70977,0.0048731
3688.74539,0.0048765
3687.78101,0.0047872
3686.81664,0.0046879
3685.85226,0.0045861
3684.88788,0.0045128
3683.92350,0.0044200
3682.95912,0.0043271
3681.99475,0.0043164
3681.03037,0.0043893
3680.06599,0.0045679
3679.10161,0.0047315
3678.13724,0.0048475
3677.17286,0.0049628
3676.20848,0.0050825
3675.24410,0.0051957
3674.27972,0.0052585
3673.31535,0.0052855
3672.35097,0.0052196
3671.38659,0.0050621
3670.42221,0.0048882
3669.45783,0.0047478
3668.49346,0.0046561
3667.52908,0.0045411
3666.56470,0.0044410
3665.60032,0.0044008
3664.63594,0.0043807
3663.67157,0.0043343
3662.70719,0.0042810
3661.74281,0.0042954
3660.77843,0.0043594
3659.81406,0.0044045
3658.84968,0.0043797
3657.88530,0.0044257
3656.92092,0.0046447
3655.95654,0.0048576
3654.99217,0.0049634
3654.02779,0.0049760
3653.06341,0.0049407
3652.09903,0.0048850
3651.13465,0.0048252
3650.17028,0.0048126
3649.20590,0.0048235
3648.24152,0.0047629
3647.27714,0.0046202
3646.31276,0.0045614
3645.34839,0.0045657
3644.38401,0.0045106
3643.41963,0.0044667
3642.45525,0.0044426
3641.49088,0.0044242
3640.52650,0.0044139
3639.56212,0.0043880
3638.59774,0.0043528
3637.63336,0.0043480
3636.66899,0.0043665
3635.70461,0.0043711
3634.74023,0.0044128
3633.77585,0.0044658
3632.81147,0.0045410
3631.84710,0.0046890
3630.88272,0.0048253
3629.91834,0.0048959
3628.95396,0.0049083
3627.98959,0.0048849
3627.02521,0.0048332
3626.06083,0.0048047
3625.09645,0.0047956
3624.13207,0.0047556
3623.16770,0.0047400
3622.20332,0.0047386
3621.23894,0.0047560
3620.27456,0.0048204
3619.31018,0.0048794
3618.34581,0.0048740
3617.38143,0.0048173
3616.41705,0.0047323
3615.45267,0.0046063
3614.48829,0.0045485
3613.52392,0.0045637
3612.55954,0.0046041
3611.59516,0.0046886
3610.63078,0.0047480
3609.66641,0.0047812
3608.70203,0.0047878
3607.73765,0.0047422
3606.77327,0.0046420
3605.80889,0.0045412
3604.84452,0.0044798
3603.88014,0.0044626
3602.91576,0.0045667
3601.95138,0.0046932
3600.98700,0.0048160
3600.02263,0.0049574
3599.05825,0.0050057
3598.09387,0.0049881
3597.12949,0.0048770
3596.16512,0.0047228
3595.20074,0.0046479
3594.23636,0.0046177
3593.27198,0.0046177
3592.30760,0.0046713
3591.34323,0.0047379
3590.37885,0.0047302
3589.41447,0.0047071
3588.45009,0.0046822
3587.48571,0.0046200
3586.52134,0.0045810
3585.55696,0.0045145
3584.59258,0.0044578
3583.62820,0.0044301
3582.66382,0.0043304
3581.69945,0.0042320
3580.73507,0.0042406
3579.77069,0.0042883
3578.80631,0.0043010
3577.84194,0.0043565
3576.87756,0.0044900
3575.91318,0.0046538
3574.94880,0.0047454
3573.98442,0.0047226
3573.02005,0.0047072
3572.05567,0.0046708
3571.09129,0.0045776
3570.12691,0.0045255
3569.16253,0.0045300
3568.19816,0.0045142
3567.23378,0.0044548
3566.26940,0.0044490
3565.30502,0.0044687
3564.34065,0.0044206
3563.37627,0.0043041
3562.41189,0.0042209
3561.44751,0.0042922
3560.48313,0.0043928
3559.51876,0.0044561
3558.55438,0.0045632
3557.59000,0.0046939
3556.62562,0.0048190
3555.66124,0.0048852
3554.69687,0.0048737
3553.73249,0.0048094
3552.76811,0.0047270
3551.80373,0.0046552
3550.83935,0.0045895
3549.87498,0.0045455
3548.91060,0.0044776
3547.94622,0.0044400
3546.98184,0.0045112
3546.01747,0.0045964
3545.05309,0.0046437
3544.08871,0.0045920
3543.12433,0.0044680
3542.15995,0.0044279
3541.19558,0.0045057
3540.23120,0.0046181
3539.26682,0.0046628
3538.30244,0.0046849
3537.33806,0.0047360
3536.37369,0.0048038
3535.40931,0.0048573
3534.44493,0.0048019
3533.48055,0.0047037
3532.51618,0.0045966
3531.55180,0.0044676
3530.58742,0.0044195
3529.62304,0.0044412
3528.65866,0.0044764
3527.69429,0.0044868
3526.72991,0.0044989
3525.76553,0.0045216
3524.80115,0.0045168
3523.83677,0.0045108
3522.87240,0.0044654
3521.90802,0.0044037
3520.94364,0.0043559
3519.97926,0.0043135
3519.01488,0.0043224
3518.05051,0.0043589
3517.08613,0.0043970
3516.12175,0.0044131
3515.15737,0.0044125
3514.19300,0.0044329
3513.22862,0.0044601
3512.26424,0.0044546
3511.29986,0.0044227
3510.33548,0.0044282
3509.37111,0.0044755
3508.40673,0.0045474
3507.44235,0.0045723
3506.47797,0.0045031
3505.51359,0.0044010
3504.54922,0.0043063
3503.58484,0.0042603
3502.62046,0.0042417
3501.65608,0.0042110
3500.69171,0.0041787
3499.72733,0.0042055
3498.76295,0.0042900
3497.79857,0.0043647
3496.83419,0.0044604
3495.86982,0.0044997
3494.90544,0.0044817
3493.94106,0.0045014
3492.97668,0.0045369
3492.01230,0.0046083
3491.04793,0.0046327
3490.08355,0.0045938
3489.11917,0.0045869
3488.15479,0.0045810
3487.19041,0.0045475
3486.22604,0.0045209
3485.26166,0.0045158
3484.29728,0.0044698
3483.33290,0.0044097
3482.36853,0.0043785
3481.40415,0.0043574
3480.43977,0.0043491
3479.47539,0.0042973
3478.51101,0.0042404
3477.54664,0.0042581
3476.58226,0.0043000
3475.61788,0.0043182
3474.65350,0.0043281
3473.68912,0.0043356
3472.72475,0.0043510
3471.76037,0.0043979
3470.79599,0.0044431
3469.83161,0.0044536
3468.86724,0.0044235
3467.90286,0.0044122
3466.93848,0.0044599
3465.97410,0.0045005
3465.00972,0.0045067
3464.04535,0.0044955
3463.08097,0.0045125
3462.11659,0.0045619
3461.15221,0.0046249
3460.18783,0.0046871
3459.22346,0.0046820
3458.25908,0.0046257
3457.29470,0.0045447
3456.33032,0.0044560
3455.36594,0.0043857
3454.40157,0.0042832
3453.43719,0.0041864
3452.47281,0.0041633
3451.50843,0.0041630
3450.54406,0.0041766
3449.57968,0.0042378
3448.61530,0.0043038
3447.65092,0.0043459
3446.68654,0.0043706
3445.72217,0.0043760
3444.75779,0.0043856
3443.79341,0.0044126
3442.82903,0.0044248
3441.86465,0.0044420
3440.90028,0.0044892
3439.93590,0.0045182
3438.97152,0.0045629
3438.00714,0.0046004
3437.04276,0.0045807
3436.07839,0.0045693
3435.11401,0.0045504
3434.14963,0.0045415
3433.18525,0.0045339
3432.22088,0.0044837
3431.25650,0.0044384
3430.29212,0.0043978
3429.32774,0.0043552
3428.36336,0.0042976
3427.39899,0.0042688
3426.43461,0.0042661
3425.47023,0.0042391
3424.50585,0.0042338
3423.54147,0.0042794
3422.57710,0.0043990
3421.61272,0.0044979
3420.64834,0.0045396
3419.68396,0.0045789
3418.71959,0.0045845
3417.75521,0.0045866
3416.79083,0.0045733
3415.82645,0.0045558
3414.86207,0.0045555
3413.89770,0.0045440
3412.93332,0.0045495
3411.96894,0.0045738
3411.00456,0.0046069
3410.04018,0.0046231
3409.07581,0.0046228
3408.11143,0.0046159
3407.14705,0.0046115
3406.18267,0.0046122
3405.21829,0.0045752
3404.25392,0.0045231
3403.28954,0.0044921
3402.32516,0.0044967
3401.36078,0.0044992
3400.39641,0.0044493
3399.43203,0.0043955
3398.46765,0.0043738
3397.50327,0.0043396
3396.53889,0.0043026
3395.57452,0.0043336
3394.61014,0.0043904
3393.64576,0.0044367
3392.68138,0.0044669
3391.71700,0.0044869
3390.75263,0.0045485
3389.78825,0.0045875
3388.82387,0.0045914
3387.85949,0.0046105
3386.89512,0.0046157
3385.93074,0.0045777
3384.96636,0.0045409
3384.00198,0.0045436
3383.03760,0.0045302
3382.07323,0.0045060
3381.10885,0.0044738
3380.14447,0.0044575
3379.18009,0.0044680
3378.21571,0.0044410
3377.25134,0.0044306
3376.28696,0.0044379
3375.32258,0.0044315
3374.35820,0.0044245
3373.39382,0.0044177
3372.42945,0.0044161
3371.46507,0.0044064
3370.50069,0.0044228
3369.53631,0.0044214
3368.57194,0.0043631
3367.60756,0.0042815
3366.64318,0.0042114
3365.67880,0.0041898
3364.71442,0.0041803
3363.75005,0.0041981
3362.78567,0.0042524
3361.82129,0.0042984
3360.85691,0.0043466
3359.89253,0.0044205
3358.92816,0.0044807
3357.96378,0.0044701
3356.99940,0.0044367
3356.03502,0.0044051
3355.07065,0.0043705
3354.10627,0.0043456
3353.14189,0.0043331
3352.17751,0.0043619
3351.21313,0.0044090
3350.24876,0.0044333
3349.28438,0.0044354
3348.32000,0.0044432
3347.35562,0.0044395
3346.39124,0.0044136
3345.42687,0.0043857
3344.46249,0.0043266
3343.49811,0.0042539
3342.53373,0.0041954
3341.56935,0.0041786
3340.60498,0.0041963
3339.64060,0.0042208
3338.67622,0.0042668
3337.71184,0.0042819
3336.74747,0.0042840
3335.78309,0.0043062
3334.81871,0.0043232
3333.85433,0.0043588
3332.88995,0.0044006
3331.92558,0.0044279
3330.96120,0.0044242
3329.99682,0.0043959
3329.03244,0.0043959
3328.06806,0.0044537
3327.10369,0.0045183
3326.13931,0.0045130
3325.17493,0.0044746
3324.21055,0.0044496
3323.24618,0.0044488
3322.28180,0.0044859
3321.31742,0.0045187
3320.35304,0.0045241
3319.38866,0.0045098
3318.42429,0.0044772
3317.45991,0.0044477
3316.49553,0.0044254
3315.53115,0.0044088
3314.56677,0.0044092
3313.60240,0.0043869
3312.63802,0.0043194
3311.67364,0.0042760
3310.70926,0.0043060
3309.74488,0.0043486
3308.78051,0.0043453
3307.81613,0.0043395
3306.85175,0.0043377
3305.88737,0.0043189
3304.92300,0.0043369
3303.95862,0.0044038
3302.99424,0.0044434
3302.02986,0.0044088
3301.06548,0.0043677
3300.10111,0.0043945
3299.13673,0.0044641
3298.17235,0.0045040
3297.20797,0.0045062
3296.24359,0.0045280
3295.27922,0.0045484
3294.31484,0.0045405
3293.35046,0.0045361
3292.38608,0.0045103
3291.42171,0.0044366
3290.45733,0.0043773
3289.49295,0.0043777
3288.52857,0.0043813
3287.56419,0.0043632
3286.59982,0.0043700
3285.63544,0.0044184
3284.67106,0.0044968
3283.70668,0.0045627
3282.74230,0.0045799
3281.77793,0.0045940
3280.81355,0.0046192
3279.84917,0.0046149
3278.88479,0.0046080
3277.92041,0.0045904
3276.95604,0.0045170
3275.99166,0.0044173
3275.02728,0.0043483
3274.06290,0.0043356
3273.09853,0.0043323
3272.13415,0.0042978
3271.16977,0.0042316
3270.20539,0.0041985
3269.24101,0.0042467
3268.27664,0.0042690
3267.31226,0.0042487
3266.34788,0.0042619
3265.38350,0.0042908
3264.41912,0.0042947
3263.45475,0.0042776
3262.49037,0.0042671
3261.52599,0.0042303
3260.56161,0.0041761
3259.59724,0.0041394
3258.63286,0.0041246
3257.66848,0.0041482
3256.70410,0.0041488
3255.73972,0.0041277
3254.77535,0.0041387
3253.81097,0.0041465
3252.84659,0.0041164
3251.88221,0.0040578
3250.91783,0.0040213
3249.95346,0.0040129
3248.98908,0.0040069
3248.02470,0.0040099
3247.06032,0.0040332
3246.09594,0.0040911
3245.13157,0.0041595
3244.16719,0.0042024
3243.20281,0.0042257
3242.23843,0.0042245
3241.27406,0.0041602
3240.30968,0.0040666
3239.34530,0.0040072
3238.38092,0.0039601
3237.41654,0.0039226
3236.45217,0.0039226
3235.48779,0.0039483
3234.52341,0.0039754
3233.55903,0.0039932
3232.59465,0.0040354
3231.63028,0.0041354
3230.66590,0.0042303
3229.70152,0.0042421
3228.73714,0.0042158
3227.77276,0.0041845
3226.80839,0.0041288
3225.84401,0.0040964
3224.87963,0.0040830
3223.91525,0.0040355
3222.95088,0.0039616
3221.98650,0.0039093
3221.02212,0.0039350
3220.05774,0.0040328
3219.09336,0.0041313
3218.12899,0.0041657
3217.16461,0.0041355
3216.20023,0.0040771
3215.23585,0.0040173
3214.27147,0.0039717
3213.30710,0.0039104
3212.34272,0.0038211
3211.37834,0.0037292
3210.41396,0.0036554
3209.44959,0.0036308
3208.48521,0.0036403
3207.52083,0.0036584
3206.55645,0.0036724
3205.59207,0.0036668
3204.62770,0.0036943
3203.66332,0.0037806
3202.69894,0.0038866
3201.73456,0.0040105
3200.77018,0.0041476
3199.80581,0.0042357
3198.84143,0.0042480
3197.87705,0.0042301
3196.91267,0.0041765
3195.94829,0.0040660
3194.98392,0.0039304
3194.01954,0.0037904
3193.05516,0.0036728
3192.09078,0.0035974
3191.12641,0.0035780
3190.16203,0.0036301
3189.19765,0.0037033
3188.23327,0.0037441
3187.26889,0.0037646
3186.30452,0.0038019
3185.34014,0.0038610
3184.37576,0.0039008
3183.41138,0.0039168
3182.44700,0.0039372
3181.48263,0.0039539
3180.51825,0.0039563
3179.55387,0.0039563
3178.58949,0.0039601
3177.62512,0.0039341
3176.66074,0.0038587
3175.69636,0.0037955
3174.73198,0.0037912
3173.76760,0.0038147
3172.80323,0.0038134
3171.83885,0.0038112
3170.87447,0.0038740
3169.91009,0.0039437
3168.94571,0.0039475
3167.98134,0.0039377
3167.01696,0.0039335
3166.05258,0.0038847
3165.08820,0.0038062
3164.12382,0.0037390
3163.15945,0.0036627
3162.19507,0.0035648
3161.23069,0.0034775
3160.26631,0.0034185
3159.30194,0.0033824
3158.33756,0.0033640
3157.37318,0.0033783
3156.40880,0.0034567
3155.44442,0.0035571
3154.48005,0.0036117
3153.51567,0.0036278
3152.55129,0.0035836
3151.58691,0.0034961
3150.62253,0.0034553
3149.65816,0.0034547
3148.69378,0.0034475
3147.72940,0.0034388
3146.76502,0.0034713
3145.80065,0.0035343
3144.83627,0.0035799
3143.87189,0.0036040
3142.90751,0.0035836
3141.94313,0.0035185
3140.97876,0.0034375
3140.01438,0.0033957
3139.05000,0.0034294
3138.08562,0.0034799
3137.12124,0.0035498
3136.15687,0.0036372
3135.19249,0.0036875
3134.22811,0.0037088
3133.26373,0.0036951
3132.29935,0.0036515
3131.33498,0.0035992
3130.37060,0.0035338
3129.40622,0.0034705
3128.44184,0.0034290
3127.47747,0.0034330
3126.51309,0.0034902
3125.54871,0.0035746
3124.58433,0.0036556
3123.61995,0.0037196
3122.65558,0.0037740
3121.69120,0.0037960
3120.72682,0.0037685
3119.76244,0.0037223
3118.79806,0.0036771
3117.83369,0.0036243
3116.86931,0.0035447
3115.90493,0.0034848
3114.94055,0.0034662
3113.97618,0.0034389
3113.01180,0.0034411
3112.04742,0.0034688
3111.08304,0.0034835
3110.11866,0.0034921
3109.15429,0.0034739
3108.18991,0.0034870
3107.22553,0.0035379
3106.26115,0.0035554
3105.29677,0.0035521
3104.33240,0.0035553
3103.36802,0.0035581
3102.40364,0.0035389
3101.43926,0.0035116
3100.47488,0.0034864
3099.51051,0.0034556
3098.54613,0.0034105
3097.58175,0.0033748
3096.61737,0.0034008
3095.65300,0.0034169
3094.68862,0.0033989
3093.72424,0.0033991
3092.75986,0.0033940
3091.79548,0.0033995
3090.83111,0.0034126
3089.86673,0.0034162
3088.90235,0.0034047
3087.93797,0.0033558
3086.97359,0.0033035
3086.00922,0.0032789
3085.04484,0.0032732
3084.08046,0.0032437
3083.11608,0.0031934
3082.15171,0.0031823
3081.18733,0.0032142
3080.22295,0.0032469
3079.25857,0.0032412
3078.29419,0.0032071
3077.32982,0.0031632
3076.36544,0.0031264
3075.40106,0.0031376
3074.43668,0.0031984
3073.47230,0.0032690
3072.50793,0.0033156
3071.54355,0.0033828
3070.57917,0.0034939
3069.61479,0.0035799
3068.65041,0.0035953
3067.68604,0.0035456
3066.72166,0.0035013
3065.75728,0.0034894
3064.79290,0.0034837
3063.82853,0.0034960
3062.86415,0.0035010
3061.89977,0.0034816
3060.93539,0.0034692
3059.97101,0.0034933
3059.00664,0.0035173
3058.04226,0.0035147
3057.07788,0.0035268
3056.11350,0.0035412
3055.14912,0.0035696
3054.18475,0.0035960
3053.22037,0.0035691
3052.25599,0.0035160
3051.29161,0.0034540
3050.32724,0.0034191
3049.36286,0.0033967
3048.39848,0.0033478
3047.43410,0.0032927
3046.46972,0.0032536
3045.50535,0.0032726
3044.54097,0.0033143
3043.57659,0.0033303
3042.61221,0.0033162
3041.64783,0.0032773
3040.68346,0.0032655
3039.71908,0.0032908
3038.75470,0.0033132
3037.79032,0.0032881
3036.82594,0.0032470
3035.86157,0.0032326
3034.89719,0.0032254
3033.93281,0.0032356
3032.96843,0.0032337
3032.00406,0.0031947
3031.03968,0.0031546
3030.07530,0.0031460
3029.11092,0.0031820
3028.14654,0.0032419
3027.18217,0.0032856
3026.21779,0.0032939
3025.25341,0.0033255
3024.28903,0.0033802
3023.32465,0.0033960
3022.36028,0.0034085
3021.39590,0.0034385
3020.43152,0.0034565
3019.46714,0.0034575
3018.50276,0.0034732
3017.53839,0.0035138
3016.57401,0.0035574
3015.60963,0.0036135
3014.64525,0.0036599
3013.68088,0.0036992
3012.71650,0.0037400
3011.75212,0.0037325
3010.78774,0.0037097
3009.82336,0.0037041
3008.85899,0.0036750
3007.89461,0.0036320
3006.93023,0.0036165
3005.96585,0.0036088
3005.00147,0.0035861
3004.03710,0.0035849
3003.07272,0.0035743
3002.10834,0.0035332
3001.14396,0.0035139
3000.17959,0.0034902
2999.21521,0.0034624
2998.25083,0.0034695
2997.28645,0.0035019
2996.32207,0.0035484
2995.35770,0.0035820
2994.39332,0.0035939
2993.42894,0.0036005
2992.46456,0.0036179
2991.50018,0.0036307
2990.53581,0.0036287
2989.57143,0.0036481
2988.60705,0.0036692
2987.64267,0.0036826
2986.67829,0.0037109
2985.71392,0.0037441
2984.74954,0.0037742
2983.78516,0.0037983
2982.82078,0.0038443
2981.85641,0.0039092
2980.89203,0.0039774
2979.92765,0.0040525
2978.96327,0.0041151
2977.99889,0.0041816
2977.03452,0.0042511
2976.07014,0.0043102
2975.10576,0.0043729
2974.14138,0.0044342
2973.17700,0.0044960
2972.21263,0.0045657
2971.24825,0.0046457
2970.28387,0.0047270
2969.31949,0.0048185
2968.35512,0.0049423
2967.39074,0.0050888
2966.42636,0.0052607
2965.46198,0.0054491
2964.49760,0.0056284
2963.53323,0.0058071
2962.56885,0.0059913
2961.60447,0.0061554
2960.64009,0.0062613
2959.67571,0.0063160
2958.71134,0.0063536
2957.74696,0.0063724
2956.78258,0.0063651
2955.81820,0.0063257
2954.85382,0.0062665
2953.88945,0.0062246
2952.92507,0.0061881
2951.96069,0.0061505
2950.99631,0.0061399
2950.03194,0.0061333
2949.06756,0.0061257
2948.10318,0.0061589
2947.13880,0.0062267
2946.17442,0.0063157
2945.21005,0.0064409
2944.24567,0.0065953
2943.28129,0.0067658
2942.31691,0.0069520
2941.35253,0.0071643
2940.38816,0.0074063
2939.42378,0.0076576
2938.45940,0.0079159
2937.49502,0.0081979
2936.53065,0.0084965
2935.56627,0.0088023
2934.60189,0.0091429
2933.63751,0.0095306
2932.67313,0.0099368
2931.70876,0.0103408
2930.74438,0.0107220
2929.78000,0.0110901
2928.81562,0.0114474
2927.85124,0.0117444
2926.88687,0.0119918
2925.92249,0.0122190
2924.95811,0.0124015
2923.99373,0.0125185
2923.02935,0.0125714
2922.06498,0.0125651
2921.10060,0.0124877
2920.13622,0.0123294
2919.17184,0.0120865
2918.20747,0.0117730
2917.24309,0.0114157
2916.27871,0.0110027
2915.31433,0.0105472
2914.34995,0.0101058
2913.38558,0.0096823
2912.42120,0.0092751
2911.45682,0.0088990
2910.49244,0.0085418
2909.52806,0.0082157
2908.56369,0.0079439
2907.59931,0.0077248
2906.63493,0.0075200
2905.67055,0.0072859
2904.70618,0.0070358
2903.74180,0.0068039
2902.77742,0.0066291
2901.81304,0.0065109
2900.84866,0.0064125
2899.88429,0.0063220
2898.91991,0.0062357
2897.95553,0.0061652
2896.99115,0.0061086
2896.02677,0.0060470
2895.06240,0.0059526
2894.09802,0.0058233
2893.13364,0.0057096
2892.16926,0.0056274
2891.20488,0.0055691
2890.24051,0.0055011
2889.27613,0.0053980
2888.31175,0.0052949
2887.34737,0.0051961
2886.38300,0.0050991
2885.41862,0.0050133
2884.45424,0.0049276
2883.48986,0.0048543
2882.52548,0.0048213
2881.56111,0.0048305
2880.59673,0.0048724
2879.63235,0.0049216
2878.66797,0.0049404
2877.70359,0.0049600
2876.73922,0.0050112
2875.77484,0.0050685
2874.81046,0.0051133
2873.84608,0.0051203
2872.88171,0.0050908
2871.91733,0.0050601
2870.95295,0.0050524
2869.98857,0.0050768
2869.02419,0.0051186
2868.05982,0.0051527
2867.09544,0.0051941
2866.13106,0.0052916
2865.16668,0.0054411
2864.20230,0.0056278
2863.23793,0.0058374
2862.27355,0.0060375
2861.30917,0.0062632
2860.34479,0.0065419
2859.38041,0.0068512
2858.41604,0.0071686
2857.45166,0.0074632
2856.48728,0.0077356
2855.52290,0.0079943
2854.55853,0.0082146
2853.59415,0.0083631
2852.62977,0.0084190
2851.66539,0.0083685
2850.70101,0.0082005
2849.73664,0.0079339
2848.77226,0.0075918
2847.80788,0.0071822
2846.84350,0.0067239
2845.87912,0.0062549
2844.91475,0.0058174
2843.95037,0.0054255
2842.98599,0.0050820
2842.02161,0.0047888
2841.05724,0.0045449
2840.09286,0.0043625
2839.12848,0.0042235
2838.16410,0.0040959
2837.19972,0.0039895
2836.23535,0.0038981
2835.27097,0.0038040
2834.30659,0.0037236
2833.34221,0.0036573
2832.37783,0.0035920
2831.41346,0.0035231
2830.44908,0.0034533
2829.48470,0.0033968
2828.52032,0.0033541
2827.55594,0.0033322
2826.59157,0.0033296
2825.62719,0.0033214
2824.66281,0.0033087
2823.69843,0.0032954
2822.73406,0.0032821
2821.76968,0.0032645
2820.80530,0.0032326
2819.84092,0.0031948
2818.87654,0.0031540
2817.91217,0.0031009
2816.94779,0.0030413
2815.98341,0.0030215
2815.01903,0.0030373
2814.05465,0.0030410
2813.09028,0.0030452
2812.12590,0.0030478
2811.16152,0.0030435
2810.19714,0.0030497
2809.23276,0.0030597
2808.26839,0.0030713
2807.30401,0.0030651
2806.33963,0.0030171
2805.37525,0.0029453
2804.41088,0.0028926
2803.44650,0.0028642
2802.48212,0.0028357
2801.51774,0.0028142
2800.55336,0.0027970
2799.58899,0.0027835
2798.62461,0.0027849
2797.66023,0.0027852
2796.69585,0.0027856
2795.73147,0.0027910
2794.76710,0.0027826
2793.80272,0.0027708
2792.83834,0.0027829
2791.87396,0.0028158
2790.90959,0.0028442
2789.94521,0.0028526
2788.98083,0.0028357
2788.01645,0.0027944
2787.05207,0.0027432
2786.08770,0.0026854
2785.12332,0.0026322
2784.15894,0.0025974
2783.19456,0.0025666
2782.23018,0.0025508
2781.26581,0.0025701
2780.30143,0.0026250
2779.33705,0.0026929
2778.37267,0.0027327
2777.40829,0.0027405
2776.44392,0.0027371
2775.47954,0.0027411
2774.51516,0.0027429
2773.55078,0.0027397
2772.58641,0.0027452
2771.62203,0.0027364
2770.65765,0.0027135
2769.69327,0.0026894
2768.72889,0.0026698
2767.76452,0.0026537
2766.80014,0.0026241
2765.83576,0.0025893
2764.87138,0.0025589
2763.90700,0.0025404
2762.94263,0.0025323
2761.97825,0.0025302
2761.01387,0.0025308
2760.04949,0.0025214
2759.08512,0.0025116
2758.12074,0.0025026
2757.15636,0.0025057
2756.19198,0.0025313
2755.22760,0.0025495
2754.26323,0.0025512
2753.29885,0.0025581
2752.33447,0.0025771
2751.37009,0.0025913
2750.40571,0.0025997
2749.44134,0.0025920
2748.47696,0.0025668
2747.51258,0.0025468
2746.54820,0.0025264
2745.58382,0.0025135
2744.61945,0.0025025
2743.65507,0.0024704
2742.69069,0.0024395
2741.72631,0.0024330
2740.76194,0.0024417
2739.79756,0.0024560
2738.83318,0.0024742
2737.86880,0.0024670
2736.90442,0.0024299
2735.94005,0.0023982
2734.97567,0.0023867
2734.01129,0.0024042
2733.04691,0.0024336
2732.08253,0.0024427
2731.11816,0.0024342
2730.15378,0.0024314
2729.18940,0.0024381
2728.22502,0.0024524
2727.26065,0.0024714
2726.29627,0.0024734
2725.33189,0.0024607
2724.36751,0.0024487
2723.40313,0.0024427
2722.43876,0.0024387
2721.47438,0.0024191
2720.51000,0.0023862
2719.54562,0.0023498
2718.58124,0.0023229
2717.61687,0.0023154
2716.65249,0.0023308
2715.68811,0.0023635
2714.72373,0.0023850
2713.75935,0.0023987
2712.79498,0.0024203
2711.83060,0.0024334
2710.86622,0.0024324
2709.90184,0.0024362
2708.93747,0.0024429
2707.97309,0.0024320
2707.00871,0.0024195
2706.04433,0.0024098
2705.07995,0.0023835
2704.11558,0.0023505
2703.15120,0.0023261
2702.18682,0.0023281
2701.22244,0.0023435
2700.25806,0.0023371
2699.29369,0.0023256
2698.32931,0.0023247
2697.36493,0.0023149
2696.40055,0.0022985
2695.43618,0.0022882
2694.47180,0.0022795
2693.50742,0.0022746
2692.54304,0.0022914
2691.57866,0.0023342
2690.61429,0.0023756
2689.64991,0.0023922
2688.68553,0.0023937
2687.72115,0.0023949
2686.75677,0.0023917
2685.79240,0.0023771
2684.82802,0.0023528
2683.86364,0.0023264
2682.89926,0.0023070
2681.93488,0.0022939
2680.97051,0.0022841
2680.00613,0.0022792
2679.04175,0.0022805
2678.07737,0.0022892
2677.11300,0.0023104
2676.14862,0.0023440
2675.18424,0.0023523
2674.21986,0.0023291
2673.25548,0.0023159
2672.29111,0.0022984
2671.32673,0.0022612
2670.36235,0.0022314
2669.39797,0.0022142
2668.43359,0.0022068
2667.46922,0.0022168
2666.50484,0.0022300
2665.54046,0.0022357
2664.57608,0.0022445
2663.61171,0.0022346
2662.64733,0.0022150
2661.68295,0.0022202
2660.71857,0.0022238
2659.75419,0.0022291
2658.78982,0.0022657
2657.82544,0.0023137
2656.86106,0.0023533
2655.89668,0.0023847
2654.93230,0.0023903
2653.96793,0.0023681
2653.00355,0.0023510
2652.03917,0.0023243
2651.07479,0.0022750
2650.11041,0.0022361
2649.14604,0.0022133
2648.18166,0.0021992
2647.21728,0.0022024
2646.25290,0.0022304
2645.28853,0.0022546
2644.32415,0.0022614
2643.35977,0.0022724
2642.39539,0.0022740
2641.43101,0.0022646
2640.46664,0.0022732
2639.50226,0.0022977
2638.53788,0.0023160
2637.57350,0.0023261
2636.60912,0.0023158
2635.64475,0.0022877
2634.68037,0.0022622
2633.71599,0.0022111
2632.75161,0.0021730
2631.78724,0.0021809
2630.82286,0.0021721
2629.85848,0.0021789
2628.89410,0.0022349
2627.92972,0.0022811
2626.96535,0.0022907
2626.00097,0.0022735
2625.03659,0.0022360
2624.07221,0.0021843
2623.10783,0.0021376
2622.14346,0.0020962
2621.17908,0.0020714
2620.21470,0.0020772
2619.25032,0.0020987
2618.28594,0.0021534
2617.32157,0.0022188
2616.35719,0.0022410
2615.39281,0.0022288
2614.42843,0.0022175
2613.46406,0.0022269
2612.49968,0.0022241
2611.53530,0.0021907
2610.57092,0.0021371
2609.60654,0.0020702
2608.64217,0.0020337
2607.67779,0.0020185
2606.71341,0.0019942
2605.74903,0.0019761
2604.78465,0.0019304
2603.82028,0.0018721
2602.85590,0.0018681
2601.89152,0.0018947
2600.92714,0.0019285
2599.96276,0.0019843
2598.99839,0.0020584
2598.03401,0.0021565
2597.06963,0.0022542
2596.10525,0.0022957
2595.14088,0.0022893
2594.17650,0.0022628
2593.21212,0.0021927
2592.24774,0.0021035
2591.28336,0.0020262
2590.31899,0.0019383
2589.35461,0.0018669
2588.39023,0.0018426
2587.42585,0.0018708
2586.46147,0.0019238
2585.49710,0.0019386
2584.53272,0.0019304
2583.56834,0.0019419
2582.60396,0.0019682
2581.63959,0.0020039
2580.67521,0.0020722
2579.71083,0.0021339
2578.74645,0.0021387
2577.78207,0.0021333
2576.81770,0.0021355
2575.85332,0.0021509
2574.88894,0.0021539
2573.92456,0.0020981
2572.96018,0.0020190
2571.99581,0.0019539
2571.03143,0.0019436
2570.06705,0.0019588
2569.10267,0.0019624
2568.13829,0.0019581
2567.17392,0.0019125
2566.20954,0.0018526
2565.24516,0.0018152
2564.28078,0.0018348
2563.31641,0.0018779
2562.35203,0.0018653
2561.38765,0.0018244
2560.42327,0.0018115
2559.45889,0.0018539
2558.49452,0.0018813
2557.53014,0.0018713
2556.56576,0.0018670
2555.60138,0.0018298
2554.63700,0.0017819
2553.67263,0.0017939
2552.70825,0.0018699
2551.74387,0.0019321
2550.77949,0.0019449
2549.81512,0.0019302
2548.85074,0.0019095
2547.88636,0.0019086
2546.92198,0.0018969
2545.95760,0.0018850
2544.99323,0.0018520
2544.02885,0.0017726
2543.06447,0.0017303
2542.10009,0.0017308
2541.13571,0.0017212
2540.17134,0.0016781
2539.20696,0.0016386
2538.24258,0.0016308
2537.27820,0.0016266
2536.31382,0.0016127
2535.34945,0.0015979
2534.38507,0.0016128
2533.42069,0.0016201
2532.45631,0.0016209
2531.49194,0.0016650
2530.52756,0.0016834
2529.56318,0.0016606
2528.59880,0.0016879
2527.63442,0.0017849
2526.67005,0.0018969
2525.70567,0.0019815
2524.74129,0.0019900
2523.77691,0.0019272
2522.81253,0.0018805
2521.84816,0.0018615
2520.88378,0.0018165
2519.91940,0.0017357
2518.95502,0.0016589
2517.99065,0.0016438
2517.02627,0.0017133
2516.06189,0.0018088
2515.09751,0.0018933
2514.13313,0.0019768
2513.16876,0.0020064
2512.20438,0.0020028
2511.24000,0.0020439
2510.27562,0.0020939
2509.31124,0.0020857
2508.34687,0.0020173
2507.38249,0.0019331
2506.41811,0.0018346
2505.45373,0.0017083
2504.48935,0.0015832
2503.52498,0.0014962
2502.56060,0.0014420
2501.59622,0.0013929
2500.63184,0.0014032
2499.66747,0.0014924
2498.70309,0.0015821
2497.73871,0.0016224
2496.77433,0.0015934
2495.80995,0.0015183
2494.84558,0.0014365
2493.88120,0.0013823
2492.91682,0.0013952
2491.95244,0.0014625
2490.98806,0.0015492
2490.02369,0.0016567
2489.05931,0.0018078
2488.09493,0.0019390
2487.13055,0.0019563
2486.16618,0.0019233
2485.20180,0.0019107
2484.23742,0.0018750
2483.27304,0.0018122
2482.30866,0.0017808
2481.34429,0.0017858
2480.37991,0.0017963
2479.41553,0.0018285
2478.45115,0.0018713
2477.48677,0.0018875
2476.52240,0.0018509
2475.55802,0.0017687
2474.59364,0.0017335
2473.62926,0.0017355
2472.66488,0.0016791
2471.70051,0.0016191
2470.73613,0.0016348
2469.77175,0.0016703
2468.80737,0.0017156
2467.84300,0.0018055
2466.87862,0.0018617
2465.91424,0.0018846
2464.94986,0.0019047
2463.98548,0.0018991
2463.02111,0.0018906
2462.05673,0.0018192
2461.09235,0.0016771
2460.12797,0.0015658
2459.16359,0.0015187
2458.19922,0.0014807
2457.23484,0.0014427
2456.27046,0.0014600
2455.30608,0.0014809
2454.34171,0.0014986
2453.37733,0.0015298
2452.41295,0.0015501
2451.44857,0.0015758
2450.48419,0.0015531
2449.51982,0.0014920
2448.55544,0.0014626
2447.59106,0.0015031
2446.62668,0.0015567
2445.66230,0.0015731
2444.69793,0.0016443
2443.73355,0.0016934
2442.76917,0.0016439
2441.80479,0.0015558
2440.84041,0.0014598
2439.87604,0.0014300
2438.91166,0.0014499
2437.94728,0.0014704
2436.98290,0.0015207
2436.01853,0.0016242
2435.05415,0.0017161
2434.08977,0.0017376
2433.12539,0.0017634
2432.16101,0.0017746
2431.19664,0.0017155
2430.23226,0.0016118
2429.26788,0.0015001
2428.30350,0.0014495
2427.33912,0.0014174
2426.37475,0.0013708
2425.41037,0.0013766
2424.44599,0.0014067
2423.48161,0.0014266
2422.51724,0.0014537
2421.55286,0.0015118
2420.58848,0.0015961
2419.62410,0.0016637
2418.65972,0.0017180
2417.69535,0.0017455
2416.73097,0.0017250
2415.76659,0.0016492
2414.80221,0.0015446
2413.83783,0.0014998
2412.87346,0.0014809
2411.90908,0.0014542
2410.94470,0.0014461
2409.98032,0.0014339
2409.01594,0.0014376
2408.05157,0.0014518
2407.08719,0.0014710
2406.12281,0.0014743
2405.15843,0.0014311
2404.19406,0.0013737
2403.22968,0.0013420
2402.26530,0.0013908
2401.30092,0.0014692
2400.33654,0.0015302
2399.37217,0.0015953
2398.40779,0.0016411
2397.44341,0.0016720
2396.47903,0.0016886
2395.51465,0.0017075
2394.55028,0.0016866
2393.58590,0.0015935
2392.62152,0.0014906
2391.65714,0.0013913
2390.69276,0.0013324
2389.72839,0.0013320
2388.76401,0.0013732
2387.79963,0.0014368
2386.83525,0.0014900
2385.87088,0.0015624
2384.90650,0.0016679
2383.94212,0.0017808
2382.97774,0.0018812
2382.01336,0.0020146
2381.04899,0.0022116
2380.08461,0.0024352
2379.12023,0.0027240
2378.15585,0.0030753
2377.19147,0.0034390
2376.22710,0.0038299
2375.26272,0.0042435
2374.29834,0.0046770
2373.33396,0.0051256
2372.36959,0.0055714
2371.40521,0.0060340
2370.44083,0.0065156
2369.47645,0.0069668
2368.51207,0.0073464
2367.54770,0.0076671
2366.58332,0.0079352
2365.61894,0.0081447
2364.65456,0.0083328
2363.69018,0.0084919
2362.72581,0.0086022
2361.76143,0.0086862
2360.79705,0.0087324
2359.83267,0.0087327
2358.86829,0.0086609
2357.90392,0.0084850
2356.93954,0.0082045
2355.97516,0.0078129
2355.01078,0.0072814
2354.04641,0.0065712
2353.08203,0.0057534
2352.11765,0.0049703
2351.15327,0.0043412
2350.18889,0.0039610
2349.22452,0.0038548
2348.26014,0.0040066
2347.29576,0.0043711
2346.33138,0.0048872
2345.36700,0.0054754
2344.40263,0.0060347
2343.43825,0.0064456
2342.47387,0.0066573
2341.50949,0.0067491
2340.54512,0.0067695
2339.58074,0.0067338
2338.61636,0.0066798
2337.65198,0.0066489
2336.68760,0.0066446
2335.72323,0.0066167
2334.75885,0.0065630
2333.79447,0.0064937
2332.83009,0.0064307
2331.86571,0.0063496
2330.90134,0.0062384
2329.93696,0.0061639
2328.97258,0.0060752
2328.00820,0.0059346
2327.04382,0.0057991
2326.07945,0.0056878
2325.11507,0.0055506
2324.15069,0.0053651
2323.18631,0.0052007
2322.22194,0.0050478
2321.25756,0.0048873
2320.29318,0.0046919
2319.32880,0.0044550
2318.36442,0.0042564
2317.40005,0.0040706
2316.43567,0.0038715
2315.47129,0.0036835
2314.50691,0.0035049
2313.54253,0.0033270
2312.57816,0.0031711
2311.61378,0.0030600
2310.64940,0.0029294
2309.68502,0.0027819
2308.72065,0.0026355
2307.75627,0.0024899
2306.79189,0.0023845
2305.82751,0.0023188
2304.86313,0.0022750
2303.89876,0.0022433
2302.93438,0.0022331
2301.97000,0.0022384
2301.00562,0.0022490
2300.04124,0.0022667
2299.07687,0.0022644
2298.11249,0.0022541
2297.14811,0.0022504
2296.18373,0.0022468
2295.21935,0.0022431
2294.25498,0.0022395
2293.29060,0.0022358
2292.32622,0.0022322
2291.36184,0.0022285
2290.39747,0.0022249
2289.43309,0.0022212
2288.46871,0.0022176
2287.50433,0.0022140
2286.53995,0.0022103
2285.57558,0.0022067
2284.61120,0.0022030
2283.64682,0.0021994
2282.68244,0.0021957
2281.71806,0.0021921
2280.75369,0.0021884
2279.78931,0.0021848
2278.82493,0.0021811
2277.86055,0.0021775
2276.89618,0.0021738
2275.93180,0.0021702
2274.96742,0.0021665
2274.00304,0.0021629
2273.03866,0.0021592
2272.07429,0.0021556
2271.10991,0.0021519
2270.14553,0.0021483
2269.18115,0.0021446
2268.21677,0.0021410
2267.25240,0.0021373
2266.28802,0.0021337
2265.32364,0.0021300
2264.35926,0.0021264
2263.39488,0.0021227
2262.43051,0.0021191
2261.46613,0.0021154
2260.50175,0.0021118
2259.53737,0.0021082
2258.57300,0.0021045
2257.60862,0.0021009
2256.64424,0.0020972
2255.67986,0.0020936
2254.71548,0.0020899
2253.75111,0.0020863
2252.78673,0.0020826
2251.82235,0.0020790
2250.85797,0.0020753
2249.89359,0.0020717
2248.92922,0.0020680
2247.96484,0.0020644
2247.00046,0.0020607
2246.03608,0.0020571
2245.07171,0.0020534
2244.10733,0.0020498
2243.14295,0.0020461
2242.17857,0.0020425
2241.21419,0.0020388
2240.24982,0.0020352
2239.28544,0.0020315
2238.32106,0.0020279
2237.35668,0.0020242
2236.39230,0.0020206
2235.42793,0.0020169
2234.46355,0.0020133
2233.49917,0.0020096
2232.53479,0.0020060
2231.57041,0.0020024
2230.60604,0.0019987
2229.64166,0.0019951
2228.67728,0.0019914
2227.71290,0.0019878
2226.74853,0.0019841
2225.78415,0.0019805
2224.81977,0.0019768
2223.85539,0.0019732
2222.89101,0.0019695
2221.92664,0.0019659
2220.96226,0.0019622
2219.99788,0.0019586
2219.03350,0.0019549
2218.06912,0.0019513
2217.10475,0.0019476
2216.14037,0.0019440
2215.17599,0.0019403
2214.21161,0.0019367
2213.24724,0.0019330
2212.28286,0.0019294
2211.31848,0.0019257
2210.35410,0.0019221
2209.38972,0.0019184
2208.42535,0.0019148
2207.46097,0.0019111
2206.49659,0.0019075
2205.53221,0.0019039
2204.56783,0.0019002
2203.60346,0.0018966
2202.63908,0.0018929
2201.67470,0.0018893
2200.71032,0.0018856
2199.74594,0.0018820
2198.78157,0.0018783
2197.81719,0.0018747
2196.85281,0.0018710
2195.88843,0.0018674
2194.92406,0.0018637
2193.95968,0.0018601
2192.99530,0.0018564
2192.03092,0.0018528
2191.06654,0.0018491
2190.10217,0.0018455
2189.13779,0.0018418
2188.17341,0.0018382
2187.20903,0.0018345
2186.24465,0.0018309
2185.28028,0.0018272
2184.31590,0.0018236
2183.35152,0.0018199
2182.38714,0.0018163
2181.42276,0.0018126
2180.45839,0.0018090
2179.49401,0.0018053
2178.52963,0.0018017
2177.56525,0.0017981
2176.60088,0.0017944
2175.63650,0.0017908
2174.67212,0.0017871
2173.70774,0.0017835
2172.74336,0.0017798
2171.77899,0.0017762
2170.81461,0.0017725
2169.85023,0.0017689
2168.88585,0.0017652
2167.92147,0.0017616
2166.95710,0.0017579
2165.99272,0.0017543
2165.02834,0.0017506
2164.06396,0.0017470
2163.09959,0.0017433
2162.13521,0.0017397
2161.17083,0.0017360
2160.20645,0.0017324
2159.24207,0.0017287
2158.27770,0.0017251
2157.31332,0.0017214
2156.34894,0.0017178
2155.38456,0.0017141
2154.42018,0.0017105
2153.45581,0.0017068
2152.49143,0.0017032
2151.52705,0.0016995
2150.56267,0.0016959
2149.59829,0.0016923
2148.63392,0.0016886
2147.66954,0.0016850
2146.70516,0.0016813
2145.74078,0.0016777
2144.77641,0.0016740
2143.81203,0.0016704
2142.84765,0.0016667
2141.88327,0.0016631
2140.91889,0.0016594
2139.95452,0.0016558
2138.99014,0.0016521
2138.02576,0.0016485
2137.06138,0.0016448
2136.09700,0.0016412
2135.13263,0.0016375
2134.16825,0.0016339
2133.20387,0.0016302
2132.23949,0.0016266
2131.27512,0.0016229
2130.31074,0.0016193
2129.34636,0.0016156
2128.38198,0.0016120
2127.41760,0.0016083
2126.45323,0.0016047
2125.48885,0.0016010
2124.52447,0.0015974
2123.56009,0.0015938
2122.59571,0.0015901
2121.63134,0.0015865
2120.66696,0.0015828
2119.70258,0.0015792
2118.73820,0.0015755
2117.77382,0.0015719
2116.80945,0.0015682
2115.84507,0.0015646
2114.88069,0.0015609
2113.91631,0.0015573
2112.95194,0.0015536
2111.98756,0.0015500
2111.02318,0.0015463
2110.05880,0.0015427
2109.09442,0.0015390
2108.13005,0.0015354
2107.16567,0.0015317
2106.20129,0.0015281
2105.23691,0.0015244
2104.27253,0.0015208
2103.30816,0.0015171
2102.34378,0.0015135
2101.37940,0.0015098
2100.41502,0.0015062
2099.45065,0.0015025
2098.48627,0.0014989
2097.52189,0.0014952
2096.55751,0.0014916
2095.59313,0.0014880
2094.62876,0.0014843
2093.66438,0.0014807
2092.70000,0.0014770
2091.73562,0.0014734
2090.77124,0.0014697
2089.80687,0.0014661
2088.84249,0.0014624
2087.87811,0.0014588
2086.91373,0.0014551
2085.94935,0.0014515
2084.98498,0.0014478
2084.02060,0.0014442
2083.05622,0.0014405
2082.09184,0.0014369
2081.12747,0.0014332
2080.16309,0.0014296
2079.19871,0.0014259
2078.23433,0.0014223
2077.26995,0.0014186
2076.30558,0.0014150
2075.34120,0.0014113
2074.37682,0.0014077
2073.41244,0.0014040
2072.44806,0.0014004
2071.48369,0.0013967
2070.51931,0.0013931
2069.55493,0.0013894
2068.59055,0.0013858
2067.62618,0.0013822
2066.66180,0.0013785
2065.69742,0.0013749
2064.73304,0.0013712
2063.76866,0.0013676
2062.80429,0.0013639
2061.83991,0.0013603
2060.87553,0.0013566
2059.91115,0.0013530
2058.94677,0.0013493
2057.98240,0.0013457
2057.01802,0.0013420
2056.05364,0.0013384
2055.08926,0.0013347
2054.12488,0.0013311
2053.16051,0.0013274
2052.19613,0.0013238
2051.23175,0.0013201
2050.26737,0.0013165
2049.30300,0.0013128
2048.33862,0.0013092
2047.37424,0.0013055
2046.40986,0.0013019
2045.44548,0.0012982
2044.48111,0.0012946
2043.51673,0.0012909
2042.55235,0.0012873
2041.58797,0.0012837
2040.62359,0.0012800
2039.65922,0.0012764
2038.69484,0.0012727
2037.73046,0.0012691
2036.76608,0.0012654
2035.80171,0.0012618
2034.83733,0.0012581
2033.87295,0.0012545
2032.90857,0.0012508
2031.94419,0.0012472
2030.97982,0.0012435
2030.01544,0.0012399
2029.05106,0.0012362
2028.08668,0.0012326
2027.12230,0.0012289
2026.15793,0.0012253
2025.19355,0.0012216
2024.22917,0.0012180
2023.26479,0.0012143
2022.30041,0.0012107
2021.33604,0.0012070
2020.37166,0.0012034
2019.40728,0.0011997
2018.44290,0.0011961
2017.47853,0.0011924
2016.51415,0.0011888
2015.54977,0.0011851
2014.58539,0.0011815
2013.62101,0.0011779
2012.65664,0.0011742
2011.69226,0.0011706
2010.72788,0.0011669
2009.76350,0.0011633
2008.79912,0.0011596
2007.83475,0.0011560
2006.87037,0.0011523
2005.90599,0.0011487
2004.94161,0.0011450
2003.97724,0.0011414
2003.01286,0.0011377
2002.04848,0.0011341
2001.08410,0.0011304
2000.11972,0.0011268
1999.15535,0.0011231
1998.19097,0.0011195
1997.22659,0.0011158
1996.26221,0.0011122
1995.29783,0.0011085
1994.33346,0.0011049
1993.36908,0.0011012
1992.40470,0.0010976
1991.44032,0.0010939
1990.47594,0.0010903
1989.51157,0.0010866
1988.54719,0.0010830
1987.58281,0.0010793
1986.61843,0.0010757
1985.65406,0.0010721
1984.68968,0.0010684
1983.72530,0.0010648
1982.76092,0.0010611
1981.79654,0.0010575
1980.83217,0.0010538
1979.86779,0.0010502
1978.90341,0.0010465
1977.93903,0.0010429
1976.97465,0.0010392
1976.01028,0.0010356
1975.04590,0.0010319
1974.08152,0.0010283
1973.11714,0.0010246
1972.15276,0.0010210
1971.18839,0.0010173
1970.22401,0.0010137
1969.25963,0.0010100
1968.29525,0.0010064
1967.33088,0.0010027
1966.36650,0.0009991
1965.40212,0.0009954
1964.43774,0.0009918
1963.47336,0.0009881
1962.50899,0.0009845
1961.54461,0.0009808
1960.58023,0.0009772
1959.61585,0.0009735
1958.65147,0.0009699
1957.68710,0.0009663
1956.72272,0.0009626
1955.75834,0.0009590
1954.79396,0.0009553
1953.82959,0.0009517
1952.86521,0.0009480
1951.90083,0.0009444
1950.93645,0.0009407
1949.97207,0.0009371
1949.00770,0.0009334
1948.04332,0.0009298
1947.07894,0.0009261
1946.11456,0.0009225
1945.15018,0.0009188
1944.18581,0.0009152
1943.22143,0.0009115
1942.25705,0.0009079
1941.29267,0.0009042
1940.32829,0.0009006
1939.36392,0.0008969
1938.39954,0.0008933
1937.43516,0.0008896
1936.47078,0.0008860
1935.50641,0.0008823
1934.54203,0.0008787
1933.57765,0.0008750
1932.61327,0.0008714
1931.64889,0.0008678
1930.68452,0.0008641
1929.72014,0.0008605
1928.75576,0.0008568
1927.79138,0.0008532
1926.82700,0.0008495
1925.86263,0.0008459
1924.89825,0.0008422
1923.93387,0.0008386
1922.96949,0.0008349
1922.00512,0.0008313
1921.04074,0.0008276
1920.07636,0.0008240
1919.11198,0.0008203
1918.14760,0.0008167
1917.18323,0.0008130
1916.21885,0.0008094
1915.25447,0.0008057
1914.29009,0.0008021
1913.32571,0.0007984
1912.36134,0.0007948
1911.39696,0.0007911
1910.43258,0.0007875
1909.46820,0.0007838
1908.50382,0.0007802
1907.53945,0.0007765
1906.57507,0.0007729
1905.61069,0.0007692
1904.64631,0.0007656
1903.68194,0.0007620
1902.71756,0.0007583
1901.75318,0.0007547
1900.78880,0.0007510
1899.82442,0.0007474
1898.86005,0.0007437
1897.89567,0.0007401
1896.93129,0.0007364
1895.96691,0.0007328
1895.00253,0.0007291
1894.03816,0.0007255
1893.07378,0.0007218
1892.10940,0.0007182
1891.14502,0.0007145
1890.18065,0.0007109
1889.21627,0.0007072
1888.25189,0.0007036
1887.28751,0.0006999
1886.32313,0.0006802
1885.35876,0.0006960
1884.39438,0.0007248
1883.43000,0.0007295
1882.46562,0.0007000
1881.50124,0.0006796
1880.53687,0.0006520
1879.57249,0.0005866
1878.60811,0.0005097
1877.64373,0.0004527
1876.67935,0.0004137
1875.71498,0.0003449
1874.75060,0.0002890
1873.78622,0.0003652
1872.82184,0.0004853
1871.85747,0.0005695
1870.89309,0.0006282
1869.92871,0.0006998
1868.96433,0.0007293
1867.99995,0.0006874
1867.03558,0.0006380
1866.07120,0.0006188
1865.10682,0.0005772
1864.14244,0.0004707
1863.17806,0.0003998
1862.21369,0.0004199
1861.24931,0.0004538
1860.28493,0.0004687
1859.32055,0.0004899
1858.35618,0.0005174
1857.39180,0.0005462
1856.42742,0.0005652
1855.46304,0.0005663
1854.49866,0.0005809
1853.53429,0.0005947
1852.56991,0.0006112
1851.60553,0.0006466
1850.64115,0.0006563
1849.67677,0.0006606
1848.71240,0.0006856
1847.74802,0.0007022
1846.78364,0.0007078
1845.81926,0.0007252
1844.85488,0.0007398
1843.89051,0.0007362
1842.92613,0.0007481
1841.96175,0.0007725
1840.99737,0.0008013
1840.03300,0.0008049
1839.06862,0.0007527
1838.10424,0.0007165
1837.13986,0.0007033
1836.17548,0.0006577
1835.21111,0.0005998
1834.24673,0.0005598
1833.28235,0.0005514
1832.31797,0.0005715
1831.35359,0.0006093
1830.38922,0.0006763
1829.42484,0.0007511
1828.46046,0.0008019
1827.49608,0.0008523
1826.53171,0.0009165
1825.56733,0.0009468
1824.60295,0.0009004
1823.63857,0.0008056
1822.67419,0.0007014
1821.70982,0.0006040
1820.74544,0.0005220
1819.78106,0.0004573
1818.81668,0.0004327
1817.85230,0.0004296
1816.88793,0.0004384
1815.92355,0.0004943
1814.95917,0.0005675
1813.99479,0.0006110
1813.03041,0.0006255
1812.06604,0.0006442
1811.10166,0.0006710
1810.13728,0.0006848
1809.17290,0.0006782
1808.20853,0.0006551
1807.24415,0.0006539
1806.27977,0.0006694
1805.31539,0.0006862
1804.35101,0.0007190
1803.38664,0.0007453
1802.42226,0.0007538
1801.45788,0.0007583
1800.49350,0.0007649
1799.52912,0.0007435
1798.56475,0.0006978
1797.60037,0.0006743
1796.63599,0.0006711
1795.67161,0.0006857
1794.70724,0.0007049
1793.74286,0.0007261
1792.77848,0.0007568
1791.81410,0.0007779
1790.84972,0.0007844
1789.88535,0.0007789
1788.92097,0.0007724
1787.95659,0.0007445
1786.99221,0.0007025
1786.02783,0.0006927
1785.06346,0.0006939
1784.09908,0.0006866
1783.13470,0.0006732
1782.17032,0.0006615
1781.20594,0.0006607
1780.24157,0.0006591
1779.27719,0.0006523
1778.31281,0.0006628
1777.34843,0.0007283
1776.38406,0.0008243
1775.41968,0.0009000
1774.45530,0.0009570
1773.49092,0.0010082
1772.52654,0.0010449
1771.56217,0.0010562
1770.59779,0.0010443
1769.63341,0.0010115
1768.66903,0.0009610
1767.70465,0.0009070
1766.74028,0.0008822
1765.77590,0.0009090
1764.81152,0.0009570
1763.84714,0.0009771
1762.88276,0.0009786
1761.91839,0.0010195
1760.95401,0.0010807
1759.98963,0.0011253
1759.02525,0.0011703
1758.06088,0.0012146
1757.09650,0.0012827
1756.13212,0.0014064
1755.16774,0.0015693
1754.20336,0.0017533
1753.23899,0.0019450
1752.27461,0.0021325
1751.31023,0.0023137
1750.34585,0.0024871
1749.38147,0.0026241
1748.41710,0.0027226
1747.45272,0.0027921
1746.48834,0.0028130
1745.52396,0.0028416
1744.55959,0.0029261
1743.59521,0.0030039
1742.63083,0.0030453
1741.66645,0.0030500
1740.70207,0.0030048
1739.73770,0.0029527
1738.77332,0.0029402
1737.80894,0.0029394
1736.84456,0.0029122
1735.88018,0.0028448
1734.91581,0.0027470
1733.95143,0.0026574
1732.98705,0.0025875
1732.02267,0.0024954
1731.05829,0.0023687
1730.09392,0.0022155
1729.12954,0.0020514
1728.16516,0.0019431
1727.20078,0.0019079
1726.23641,0.0018715
1725.27203,0.0018003
1724.30765,0.0017226
1723.34327,0.0016779
1722.37889,0.0016788
1721.41452,0.0016977
1720.45014,0.0017266
1719.48576,0.0017675
1718.52138,0.0017851
1717.55700,0.0017662
1716.59263,0.0017268
1715.62825,0.0016754
1714.66387,0.0015996
1713.69949,0.0014931
1712.73512,0.0013963
1711.77074,0.0013536
1710.80636,0.0013651
1709.84198,0.0013850
1708.87760,0.0014249
1707.91323,0.0014769
1706.94885,0.0014655
1705.98447,0.0014649
1705.02009,0.0015463
1704.05571,0.0016452
1703.09134,0.0017026
1702.12696,0.0017014
1701.16258,0.0017333
1700.19820,0.0018204
1699.23382,0.0018953
1698.26945,0.0019287
1697.30507,0.0019151
1696.34069,0.0018520
1695.37631,0.0017571
1694.41194,0.0017202
1693.44756,0.0017442
1692.48318,0.0017344
1691.51880,0.0016573
1690.55442,0.0015871
1689.59005,0.0016674
1688.62567,0.0018393
1687.66129,0.0019919
1686.69691,0.0021105
1685.73253,0.0021996
1684.76816,0.0022724
1683.80378,0.0023177
1682.83940,0.0023266
1681.87502,0.0022963
1680.91065,0.0022535
1679.94627,0.0022315
1678.98189,0.0022566
1678.01751,0.0023435
1677.05313,0.0024321
1676.08876,0.0024911
1675.12438,0.0025293
1674.16000,0.0025912
1673.19562,0.0026654
1672.23124,0.0027025
1671.26687,0.0027152
1670.30249,0.0027125
1669.33811,0.0027288
1668.37373,0.0027824
1667.40935,0.0028362
1666.44498,0.0028636
1665.48060,0.0028684
1664.51622,0.0028676
1663.55184,0.0028698
1662.58747,0.0028989
1661.62309,0.0029150
1660.65871,0.0028797
1659.69433,0.0028139
1658.72995,0.0027759
1657.76558,0.0028599
1656.80120,0.0030380
1655.83682,0.0032144
1654.87244,0.0033173
1653.90806,0.0033511
1652.94369,0.0033382
1651.97931,0.0032855
1651.01493,0.0032344
1650.05055,0.0031613
1649.08618,0.0030361
1648.12180,0.0029033
1647.15742,0.0028475
1646.19304,0.0028928
1645.22866,0.0029352
1644.26429,0.0029170
1643.29991,0.0028524
1642.33553,0.0027700
1641.37115,0.0027053
1640.40677,0.0027209
1639.44240,0.0028116
1638.47802,0.0028936
1637.51364,0.0029331
1636.54926,0.0029485
1635.58488,0.0029529
1634.62051,0.0029367
1633.65613,0.0029066
1632.69175,0.0028681
1631.72737,0.0028254
1630.76300,0.0027847
1629.79862,0.0027622
1628.83424,0.0027976
1627.86986,0.0028419
1626.90548,0.0028573
1625.94111,0.0028503
1624.97673,0.0028203
1624.01235,0.0027762
1623.04797,0.0027166
1622.08359,0.0027140
1621.11922,0.0027833
1620.15484,0.0028555
1619.19046,0.0029144
1618.22608,0.0029562
1617.26171,0.0029934
1616.29733,0.0030114
1615.33295,0.0029981
1614.36857,0.0029608
1613.40419,0.0029006
1612.43982,0.0028229
1611.47544,0.0027485
1610.51106,0.0027400
1609.54668,0.0027705
1608.58230,0.0027755
1607.61793,0.0027649
1606.65355,0.0027518
1605.68917,0.0027464
1604.72479,0.0027430
1603.76041,0.0027354
1602.79604,0.0027321
1601.83166,0.0027306
1600.86728,0.0027146
1599.90290,0.0026834
1598.93853,0.0026526
1597.97415,0.0026209
1597.00977,0.0025858
1596.04539,0.0025531
1595.08101,0.0025345
1594.11664,0.0025353
1593.15226,0.0025446
1592.18788,0.0025557
1591.22350,0.0025717
1590.25912,0.0025845
1589.29475,0.0025839
1588.33037,0.0025762
1587.36599,0.0025698
1586.40161,0.0025664
1585.43724,0.0025626
1584.47286,0.0025757
1583.50848,0.0025995
1582.54410,0.0026253
1581.57972,0.0027223
1580.61535,0.0028853
1579.65097,0.0030425
1578.68659,0.0031633
1577.72221,0.0032379
1576.75783,0.0032615
1575.79346,0.0032297
1574.82908,0.0031663
1573.86470,0.0030750
1572.90032,0.0029528
1571.93594,0.0027940
1570.97157,0.0026302
1570.00719,0.0025438
1569.04281,0.0024993
1568.07843,0.0024421
1567.11406,0.0023602
1566.14968,0.0022605
1565.18530,0.0022017
1564.22092,0.0022082
1563.25654,0.0023086
1562.29217,0.0024567
1561.32779,0.0025553
1560.36341,0.0026023
1559.39903,0.0026310
1558.43465,0.0026455
1557.47028,0.0026247
1556.50590,0.0025530
1555.54152,0.0024320
1554.57714,0.0023095
1553.61276,0.0022421
1552.64839,0.0022220
1551.68401,0.0022457
1550.71963,0.0022896
1549.75525,0.0023234
1548.79088,0.0023600
1547.82650,0.0024321
1546.86212,0.0025455
1545.89774,0.0026671
1544.93336,0.0028306
1543.96899,0.0030737
1543.00461,0.0033298
1542.04023,0.0035377
1541.07585,0.0036693
1540.11147,0.0037134
1539.14710,0.0037006
1538.18272,0.0036350
1537.21834,0.0034809
1536.25396,0.0032753
1535.28959,0.0030510
1534.32521,0.0028048
1533.36083,0.0026041
1532.39645,0.0024595
1531.43207,0.0023208
1530.46770,0.0022105
1529.50332,0.0021236
1528.53894,0.0020342
1527.57456,0.0019807
1526.61018,0.0019894
1525.64581,0.0020316
1524.68143,0.0020705
1523.71705,0.0020665
1522.75267,0.0020303
1521.78829,0.0019878
1520.82392,0.0019342
1519.85954,0.0018839
1518.89516,0.0018345
1517.93078,0.0017712
1516.96641,0.0016976
1516.00203,0.0016417
1515.03765,0.0016288
1514.07327,0.0016257
1513.10889,0.0015947
1512.14452,0.0015626
1511.18014,0.0016004
1510.21576,0.0016866
1509.25138,0.0017445
1508.28700,0.0017570
1507.32263,0.0017340
1506.35825,0.0016974
1505.39387,0.0016235
1504.42949,0.0015199
1503.46512,0.0014174
1502.50074,0.0012934
1501.53636,0.0012041
1500.57198,0.0012012
1499.60760,0.0012568
1498.64323,0.0013074
1497.67885,0.0013058
1496.71447,0.0012806
1495.75009,0.0012674
1494.78571,0.0012685
1493.82134,0.0012555
1492.85696,0.0012385
1491.89258,0.0012333
1490.92820,0.0012239
1489.96382,0.0012393
1488.99945,0.0012604
1488.03507,0.0012505
1487.07069,0.0012234
1486.10631,0.0011998
1485.14194,0.0011949
1484.17756,0.0011985
1483.21318,0.0012077
1482.24880,0.0012246
1481.28442,0.0012596
1480.32005,0.0013140
1479.35567,0.0013735
1478.39129,0.0014444
1477.42691,0.0015366
1476.46253,0.0016601
1475.49816,0.0017952
1474.53378,0.0019224
1473.56940,0.0020445
1472.60502,0.0021529
1471.64065,0.0022390
1470.67627,0.0023236
1469.71189,0.0024293
1468.74751,0.0025103
1467.78313,0.0025558
1466.81876,0.0025898
1465.85438,0.0026041
1464.89000,0.0025979
1463.92562,0.0025469
1462.96124,0.0024849
1461.99687,0.0024958
1461.03249,0.0025595
1460.06811,0.0026105
1459.10373,0.0026496
1458.13935,0.0027033
1457.17498,0.0027387
1456.21060,0.0027354
1455.24622,0.0026824
1454.28184,0.0025765
1453.31747,0.0024515
1452.35309,0.0023158
1451.38871,0.0022060
1450.42433,0.0021630
1449.45995,0.0021463
1448.49558,0.0021125
1447.53120,0.0020783
1446.56682,0.0020736
1445.60244,0.0020804
1444.63806,0.0020800
1443.67369,0.0020562
1442.70931,0.0020280
1441.74493,0.0020465
1440.78055,0.0020808
1439.81618,0.0021037
1438.85180,0.0021340
1437.88742,0.0021650
1436.92304,0.0021745
1435.95866,0.0021629
1434.99429,0.0021562
1434.02991,0.0021425
1433.06553,0.0021003
1432.10115,0.0020382
1431.13677,0.0019807
1430.17240,0.0019614
1429.20802,0.0019548
1428.24364,0.0019366
1427.27926,0.0019213
1426.31488,0.0018968
1425.35051,0.0018742
1424.38613,0.0018990
1423.42175,0.0019776
1422.45737,0.0020700
1421.49300,0.0021473
1420.52862,0.0022169
1419.56424,0.0022706
1418.59986,0.0023046
1417.63548,0.0023215
1416.67111,0.0023144
1415.70673,0.0022827
1414.74235,0.0022215
1413.77797,0.0021641
1412.81359,0.0021430
1411.84922,0.0021320
1410.88484,0.0021228
1409.92046,0.0021268
1408.95608,0.0021338
1407.99171,0.0021312
1407.02733,0.0021289
1406.06295,0.0021332
1405.09857,0.0021473
1404.13419,0.0021768
1403.16982,0.0022031
1402.20544,0.0022152
1401.24106,0.0022167
1400.27668,0.0022230
1399.31230,0.0022497
1398.34793,0.0022796
1397.38355,0.0022870
1396.41917,0.0022760
1395.45479,0.0022638
1394.49041,0.0022402
1393.52604,0.0022130
1392.56166,0.0022139
1391.59728,0.0022259
1390.63290,0.0022243
1389.66853,0.0022229
1388.70415,0.0022394
1387.73977,0.0022622
1386.77539,0.0022713
1385.81101,0.0022684
1384.84664,0.0022645
1383.88226,0.0022650
1382.91788,0.0022594
1381.95350,0.0022538
1380.98912,0.0022609
1380.02475,0.0022693
1379.06037,0.0022790
1378.09599,0.0022869
1377.13161,0.0022747
1376.16724,0.0022436
1375.20286,0.0022113
1374.23848,0.0021800
1373.27410,0.0021423
1372.30972,0.0021056
1371.34535,0.0020720
1370.38097,0.0020321
1369.41659,0.0019771
1368.45221,0.0019271
1367.48783,0.0019059
1366.52346,0.0018976
1365.55908,0.0018939
1364.59470,0.0018920
1363.63032,0.0018909
1362.66594,0.0018898
1361.70157,0.0018689
1360.73719,0.0018375
1359.77281,0.0017988
1358.80843,0.0017414
1357.84406,0.0016881
1356.87968,0.0016577
1355.91530,0.0016479
1354.95092,0.0016493
1353.98654,0.0016583
1353.02217,0.0016716
1352.05779,0.0016800
1351.09341,0.0016736
1350.12903,0.0016441
1349.16465,0.0016049
1348.20028,0.0015646
1347.23590,0.0015269
1346.27152,0.0015035
1345.30714,0.0014844
1344.34276,0.0014674
1343.37839,0.0014595
1342.41401,0.0014605
1341.44963,0.0014718
1340.48525,0.0014718
1339.52088,0.0014518
1338.55650,0.0014291
1337.59212,0.0014071
1336.62774,0.0013851
1335.66336,0.0013659
1334.69899,0.0013482
1333.73461,0.0013290
1332.77023,0.0013108
1331.80585,0.0013016
1330.84147,0.0013023
1329.87710,0.0013148
1328.91272,0.0013248
1327.94834,0.0013192
1326.98396,0.0013165
1326.01959,0.0013180
1325.05521,0.0013164
1324.09083,0.0013241
1323.12645,0.0013358
1322.16207,0.0013414
1321.19770,0.0013515
1320.23332,0.0013651
1319.26894,0.0013727
1318.30456,0.0013847
1317.34018,0.0013965
1316.37581,0.0013945
1315.41143,0.0013874
1314.44705,0.0013736
1313.48267,0.0013562
1312.51829,0.0013540
1311.55392,0.0013657
1310.58954,0.0013853
1309.62516,0.0014078
1308.66078,0.0014137
1307.69641,0.0014030
1306.73203,0.0013986
1305.76765,0.0014008
1304.80327,0.0013928
1303.83889,0.0013671
1302.87452,0.0013325
1301.91014,0.0013131
1300.94576,0.0013156
1299.98138,0.0013226
1299.01700,0.0013242
1298.05263,0.0013232
1297.08825,0.0013183
1296.12387,0.0013085
1295.15949,0.0013069
1294.19512,0.0013166
1293.23074,0.0013221
1292.26636,0.0013188
1291.30198,0.0013211
1290.33760,0.0013347
1289.37323,0.0013417
1288.40885,0.0013286
1287.44447,0.0013198
1286.48009,0.0013355
1285.51571,0.0013516
1284.55134,0.0013548
1283.58696,0.0013612
1282.62258,0.0013763
1281.65820,0.0013907
1280.69382,0.0014027
1279.72945,0.0014151
1278.76507,0.0014204
1277.80069,0.0014252
1276.83631,0.0014434
1275.87194,0.0014745
1274.90756,0.0015100
1273.94318,0.0015382
1272.97880,0.0015581
1272.01442,0.0015777
1271.05005,0.0016051
1270.08567,0.0016320
1269.12129,0.0016493
1268.15691,0.0016693
1267.19253,0.0016879
1266.22816,0.0017052
1265.26378,0.0017250
1264.29940,0.0017365
1263.33502,0.0017483
1262.37065,0.0017608
1261.40627,0.0017678
1260.44189,0.0017728
1259.47751,0.0017677
1258.51313,0.0017550
1257.54876,0.0017407
1256.58438,0.0017214
1255.62000,0.0016923
1254.65562,0.0016596
1253.69124,0.0016382
1252.72687,0.0016298
1251.76249,0.0016313
1250.79811,0.0016367
1249.83373,0.0016453
1248.86935,0.0016598
1247.90498,0.0016743
1246.94060,0.0017008
1245.97622,0.0017321
1245.01184,0.0017479
1244.04747,0.0017612
1243.08309,0.0017781
1242.11871,0.0018012
1241.15433,0.0018339
1240.18995,0.0018697
1239.22558,0.0018984
1238.26120,0.0019145
1237.29682,0.0019308
1236.33244,0.0019422
1235.36806,0.0019437
1234.40369,0.0019418
1233.43931,0.0019354
1232.47493,0.0019349
1231.51055,0.0019389
1230.54618,0.0019500
1229.58180,0.0019739
1228.61742,0.0019955
1227.65304,0.0020074
1226.68866,0.0020117
1225.72429,0.0020137
1224.75991,0.0020113
1223.79553,0.0020102
1222.83115,0.0020235
1221.86677,0.0020459
1220.90240,0.0020731
1219.93802,0.0021021
1218.97364,0.0021284
1218.00926,0.0021460
1217.04488,0.0021505
1216.08051,0.0021504
1215.11613,0.0021534
1214.15175,0.0021592
1213.18737,0.0021604
1212.22300,0.0021617
1211.25862,0.0021717
1210.29424,0.0021834
1209.32986,0.0021990
1208.36548,0.0022150
1207.40111,0.0022181
1206.43673,0.0022195
1205.47235,0.0022324
1204.50797,0.0022520
1203.54359,0.0022806
1202.57922,0.0023189
1201.61484,0.0023516
1200.65046,0.0023778
1199.68608,0.0024035
1198.72171,0.0024212
1197.75733,0.0024332
1196.79295,0.0024394
1195.82857,0.0024333
1194.86419,0.0024367
1193.89982,0.0024587
1192.93544,0.0024835
1191.97106,0.0025103
1191.00668,0.0025356
1190.04230,0.0025513
1189.07793,0.0025615
1188.11355,0.0025753
1187.14917,0.0025950
1186.18479,0.0026211
1185.22041,0.0026441
1184.25604,0.0026536
1183.29166,0.0026772
1182.32728,0.0027243
1181.36290,0.0027671
1180.39853,0.0028003
1179.43415,0.0028226
1178.46977,0.0028357
1177.50539,0.0028471
1176.54101,0.0028567
1175.57664,0.0028688
1174.61226,0.0028836
1173.64788,0.0028940
1172.68350,0.0029048
1171.71912,0.0029353
1170.75475,0.0029753
1169.79037,0.0029978
1168.82599,0.0030142
1167.86161,0.0030360
1166.89724,0.0030574
1165.93286,0.0030773
1164.96848,0.0030838
1164.00410,0.0030709
1163.03972,0.0030543
1162.07535,0.0030403
1161.11097,0.0030341
1160.14659,0.0030417
1159.18221,0.0030389
1158.21783,0.0030193
1157.25346,0.0030176
1156.28908,0.0030406
1155.32470,0.0030821
1154.36032,0.0031355
1153.39594,0.0031675
1152.43157,0.0031799
1151.46719,0.0032006
1150.50281,0.0032240
1149.53843,0.0032428
1148.57406,0.0032585
1147.60968,0.0032619
1146.64530,0.0032554
1145.68092,0.0032454
1144.71654,0.0032294
1143.75217,0.0032219
1142.78779,0.0032178
1141.82341,0.0031930
1140.85903,0.0031693
1139.89465,0.0031627
1138.93028,0.0031586
1137.96590,0.0031478
1137.00152,0.0031321
1136.03714,0.0031345
1135.07276,0.0031596
1134.10839,0.0031844
1133.14401,0.0032032
1132.17963,0.0032287
1131.21525,0.0032560
1130.25088,0.0032632
1129.28650,0.0032595
1128.32212,0.0032651
1127.35774,0.0032723
1126.39336,0.0032571
1125.42899,0.0032342
1124.46461,0.0032513
1123.50023,0.0032895
1122.53585,0.0033169
1121.57147,0.0033539
1120.60710,0.0034082
1119.64272,0.0034619
1118.67834,0.0034933
1117.71396,0.0035111
1116.74959,0.0035366
1115.78521,0.0035572
1114.82083,0.0035614
1113.85645,0.0035702
1112.89207,0.0035905
1111.92770,0.0036049
1110.96332,0.0036175
1109.99894,0.0036250
1109.03456,0.0036280
1108.07018,0.0036437
1107.10581,0.0036604
1106.14143,0.0036810
1105.17705,0.0037152
1104.21267,0.0037554
1103.24829,0.0037901
1102.28392,0.0038080
1101.31954,0.0038209
1100.35516,0.0038258
1099.39078,0.0038167
1098.42641,0.0038002
1097.46203,0.0037865
1096.49765,0.0037881
1095.53327,0.0037923
1094.56889,0.0037965
1093.60452,0.0037975
1092.64014,0.0037928
1091.67576,0.0037794
1090.71138,0.0037486
1089.74700,0.0037274
1088.78263,0.0037177
1087.81825,0.0037156
1086.85387,0.0037227
1085.88949,0.0037276
1084.92512,0.0037365
1083.96074,0.0037382
1082.99636,0.0037404
1082.03198,0.0037390
1081.06760,0.0037229
1080.10323,0.0037141
1079.13885,0.0037039
1078.17447,0.0036972
1077.21009,0.0037012
1076.24571,0.0037045
1075.28134,0.0037101
1074.31696,0.0037160
1073.35258,0.0036998
1072.38820,0.0036639
1071.42382,0.0036567
1070.45945,0.0036640
1069.49507,0.0036561
1068.53069,0.0036521
1067.56631,0.0036503
1066.60194,0.0036548
1065.63756,0.0036763
1064.67318,0.0036982
1063.70880,0.0036858
1062.74442,0.0036405
1061.78005,0.0035874
1060.81567,0.0035411
1059.85129,0.0035171
1058.88691,0.0034996
1057.92253,0.0034774
1056.95816,0.0034593
1055.99378,0.0034435
1055.02940,0.0034255
1054.06502,0.0034124
1053.10065,0.0033903
1052.13627,0.0033345
1051.17189,0.0032799
1050.20751,0.0032293
1049.24313,0.0031640
1048.27876,0.0031083
1047.31438,0.0030630
1046.35000,0.0030297
1045.38562,0.0029886
1044.42124,0.0029222
1043.45687,0.0028582
1042.49249,0.0028190
1041.52811,0.0027933
1040.56373,0.0027551
1039.59935,0.0027068
1038.63498,0.0026500
1037.67060,0.0026029
1036.70622,0.0025701
1035.74184,0.0025258
1034.77747,0.0024776
1033.81309,0.0024171
1032.84871,0.0023524
1031.88433,0.0023135
1030.91995,0.0023021
1029.95558,0.0023021
1028.99120,0.0022912
1028.02682,0.0022764
1027.06244,0.0022598
1026.09806,0.0022307
1025.13369,0.0021847
1024.16931,0.0021249
1023.20493,0.0020638
1022.24055,0.0020006
1021.27618,0.0019422
1020.31180,0.0018964
1019.34742,0.0018631
1018.38304,0.0018439
1017.41866,0.0018374
1016.45429,0.0018270
1015.48991,0.0018067
1014.52553,0.0018027
1013.56115,0.0018068
1012.59677,0.0018006
1011.63240,0.0017820
1010.66802,0.0017543
1009.70364,0.0017256
1008.73926,0.0016856
1007.77488,0.0016433
1006.81051,0.0016041
1005.84613,0.0015587
1004.88175,0.0015129
1003.91737,0.0014927
1002.95300,0.0015048
1001.98862,0.0014863
1001.02424,0.0014340
1000.05986,0.0013941
999.09548,0.0013614
998.13111,0.0013312
997.16673,0.0013016
996.20235,0.0012822
995.23797,0.0012751
994.27359,0.0012768
993.30922,0.0012981
992.34484,0.0013295
991.38046,0.0013408
990.41608,0.0013101
989.45171,0.0012890
988.48733,0.0013009
987.52295,0.0013093
986.55857,0.0013260
985.59419,0.0013627
984.62982,0.0014217
983.66544,0.0014746
982.70106,0.0014917
981.73668,0.0014925
980.77230,0.0014893
979.80793,0.0014811
978.84355,0.0014657
977.87917,0.0014674
976.91479,0.0014813
975.95041,0.0014917
974.98604,0.0015248
974.02166,0.0015775
973.05728,0.0016231
972.09290,0.0016110
971.12853,0.0015552
970.16415,0.0015253
969.19977,0.0015327
968.23539,0.0015736
967.27101,0.0016317
966.30664,0.0016941
965.34226,0.0017399
964.37788,0.0017503
963.41350,0.0017251
962.44912,0.0016705
961.48475,0.0016113
960.52037,0.0015129
959.55599,0.0013868
958.59161,0.0013170
957.62724,0.0013076
956.66286,0.0013264
955.69848,0.0013593
954.73410,0.0013919
953.76972,0.0013921
952.80535,0.0013546
951.84097,0.0013030
950.87659,0.0012778
949.91221,0.0012969
948.94783,0.0012844
947.98346,0.0012297
947.01908,0.0012118
946.05470,0.0012310
945.09032,0.0012350
944.12594,0.0012301
943.16157,0.0012392
942.19719,0.0012408
941.23281,0.0012423
940.26843,0.0012554
939.30406,0.0012730
938.33968,0.0012914
937.37530,0.0012879
936.41092,0.0012673
935.44654,0.0012583
934.48217,0.0012600
933.51779,0.0012624
932.55341,0.0012775
931.58903,0.0012959
930.62465,0.0013064
929.66028,0.0013171
928.69590,0.0013082
927.73152,0.0012881
926.76714,0.0012848
925.80276,0.0012865
924.83839,0.0012729
923.87401,0.0012484
922.90963,0.0012303
921.94525,0.0012204
920.98088,0.0011997
920.01650,0.0011527
919.05212,0.0011130
918.08774,0.0010775
917.12336,0.0010087
916.15899,0.0009499
915.19461,0.0009365
914.23023,0.0009535
913.26585,0.0009888
912.30147,0.0010327
911.33710,0.0010647
910.37272,0.0010851
909.40834,0.0011007
908.44396,0.0011020
907.47959,0.0011037
906.51521,0.0010868
905.55083,0.0010468
904.58645,0.0010110
903.62207,0.0009721
902.65770,0.0009431
901.69332,0.0009164
900.72894,0.0008784
899.76456,0.0008355
898.80018,0.0007954
897.83581,0.0007738
896.87143,0.0007720
895.90705,0.0007940
894.94267,0.0008235
893.97829,0.0008348
893.01392,0.0007943
892.04954,0.0007279
891.08516,0.0007004
890.12078,0.0006694
889.15641,0.0006271
888.19203,0.0006069
887.22765,0.0005916
886.26327,0.0005930
885.29889,0.0006209
884.33452,0.0006512
883.37014,0.0006436
882.40576,0.0006029
881.44138,0.0005677
880.47700,0.0005645
879.51263,0.0005894
878.54825,0.0006009
877.58387,0.0006369
876.61949,0.0007199
875.65512,0.0007894
874.69074,0.0008377
873.72636,0.0008799
872.76198,0.0008964
871.79760,0.0008505
870.83323,0.0007725
869.86885,0.0007067
868.90447,0.0006265
867.94009,0.0005296
866.97571,0.0004483
866.01134,0.0004251
865.04696,0.0004550
864.08258,0.0004803
863.11820,0.0004986
862.15382,0.0005390
861.18945,0.0005813
860.22507,0.0006021
859.26069,0.0006277
858.29631,0.0006380
857.33194,0.0006096
856.36756,0.0005773
855.40318,0.0005562
854.43880,0.0005651
853.47442,0.0005837
852.51005,0.0005931
851.54567,0.0006190
850.58129,0.0006367
849.61691,0.0006372
848.65253,0.0006496
847.68816,0.0006532
846.72378,0.0006186
845.75940,0.0005884
844.79502,0.0005840
843.83065,0.0005714
842.86627,0.0005510
841.90189,0.0005359
840.93751,0.0005474
839.97313,0.0005673
839.00876,0.0005603
838.04438,0.0005648
837.08000,0.0005908
836.11562,0.0006091
835.15124,0.0006247
834.18687,0.0006494
833.22249,0.0006738
832.25811,0.0006980
831.29373,0.0007360
830.32935,0.0007707
829.36498,0.0007818
828.40060,0.0007711
827.43622,0.0007433
826.47184,0.0007098
825.50747,0.0006839
824.54309,0.0006732
823.57871,0.0006742
822.61433,0.0006641
821.64995,0.0006521
820.68558,0.0006748
819.72120,0.0007201
818.75682,0.0007559
817.79244,0.0007714
816.82806,0.0007736
815.86369,0.0007561
814.89931,0.0007404
813.93493,0.0007602
812.97055,0.0007755
812.00618,0.0007608
811.04180,0.0007226
810.07742,0.0006819
809.11304,0.0006455
808.14866,0.0006015
807.18429,0.0005791
806.21991,0.0005713
805.25553,0.0005692
804.29115,0.0005850
803.32677,0.0006396
802.36240,0.0007092
801.39802,0.0007331
800.43364,0.0007589
799.46926,0.0007888
798.50488,0.0007901
797.54051,0.0007719
796.57613,0.0007364
795.61175,0.0007147
794.64737,0.0006898
793.68300,0.0006640
792.71862,0.0006578
791.75424,0.0006701
790.78986,0.0006869
789.82548,0.0006889
788.86111,0.0006922
787.89673,0.0006725
786.93235,0.0006702
785.96797,0.0007076
785.00359,0.0007288
784.03922,0.0007311
783.07484,0.0007044
782.11046,0.0007029
781.14608,0.0007402
780.18171,0.0007567
779.21733,0.0007497
778.25295,0.0007145
777.28857,0.0006703
776.32419,0.0006392
775.35982,0.0006262
774.39544,0.0006240
773.43106,0.0006042
772.46668,0.0005485
771.50230,0.0004842
770.53793,0.0004834
769.57355,0.0005191
768.60917,0.0005339
767.64479,0.0005426
766.68041,0.0005411
765.71604,0.0005523
764.75166,0.0005704
763.78728,0.0005418
762.82290,0.0005193
761.85853,0.0005307
760.89415,0.0005209
759.92977,0.0005019
758.96539,0.0005097
758.00101,0.0005372
757.03664,0.0005592
756.07226,0.0005691
755.10788,0.0005801
754.14350,0.0006197
753.17912,0.0006501
752.21475,0.0006185
751.25037,0.0006249
750.28599,0.0006915
749.32161,0.0007175
748.35724,0.0007009
747.39286,0.0006944
746.42848,0.0007062
745.46410,0.0006663
744.49972,0.0006078
743.53535,0.0006308
742.57097,0.0007036
741.60659,0.0007415
740.64221,0.0007351
739.67783,0.0007350
738.71346,0.0006848
737.74908,0.0005887
736.78470,0.0005411
735.82032,0.0005100
734.85594,0.0004713
733.89157,0.0004269
732.92719,0.0004398
731.96281,0.0005805
730.99843,0.0007386
730.03406,0.0008384
729.06968,0.0009295
728.10530,0.0009858
727.14092,0.0009544
726.17654,0.0009220
725.21217,0.0009337
724.24779,0.0009078
723.28341,0.0008683
722.31903,0.0008706
721.35465,0.0009034
720.39028,0.0009566
719.42590,0.0009758
718.46152,0.0009553
717.49714,0.0009375
716.53276,0.0008984
715.56839,0.0008313
714.60401,0.0007630
713.63963,0.0007153
712.67525,0.0006876
711.71088,0.0006699
710.74650,0.0006673
709.78212,0.0006599
708.81774,0.0006344
707.85336,0.0005941
706.88899,0.0005598
705.92461,0.0005667
704.96023,0.0006081
703.99585,0.0006646
703.03147,0.0007198
702.06710,0.0007690
701.10272,0.0008282
700.13834,0.0008776
699.17396,0.0008957
698.20959,0.0008927
697.24521,0.0008664
696.28083,0.0008325
695.31645,0.0008149
694.35207,0.0008152
693.38770,0.0008286
692.42332,0.0008371
691.45894,0.0008441
690.49456,0.0008519
689.53018,0.0008638
688.56581,0.0008932
687.60143,0.0009490
686.63705,0.0010291
685.67267,0.0010705
684.70829,0.0010712
683.74392,0.0010696
682.77954,0.0010712
681.81516,0.0010749
680.85078,0.0010436
679.88641,0.0009928
678.92203,0.0009509
677.95765,0.0009355
676.99327,0.0009305
676.02889,0.0009127
675.06452,0.0007775
674.10014,0.0004650
673.13576,0.0006406
672.17138,0.0014763
671.20700,0.0023061
670.24263,0.0028931
669.27825,0.0032364
668.31387,0.0033504
667.34949,0.0032790
666.38512,0.0030204
665.42074,0.0025631
664.45636,0.0018774
663.49198,0.0010115
662.52760,0.0002943
661.56323,0.0002959
660.59885,0.0006706
659.63447,0.0008024
658.67009,0.0008251
657.70571,0.0008335
656.74134,0.0008322
655.77696,0.0008258
654.81258,0.0008048
653.84820,0.0008191
652.88382,0.0008093
651.91945,0.0007783
650.95507,0.0007873
649.99069,0.0008313
649.02631,0.0008802
648.06194,0.0009206
647.09756,0.0009440
646.13318,0.0009425
645.16880,0.0009352
644.20442,0.0008711
643.24005,0.0007531
642.27567,0.0006647
641.31129,0.0006048
640.34691,0.0005504
639.38253,0.0005307
638.41816,0.0005489
637.45378,0.0005703
636.48940,0.0005934
635.52502,0.0006213
634.56065,0.0006900
633.59627,0.0007683
632.63189,0.0007559
631.66751,0.0007215
630.70313,0.0006897
629.73876,0.0005456
628.77438,0.0004048
627.81000,0.0006012
626.84562,0.0005608
625.88124,-0.0000933
624.91687,-0.0007246
623.95249,-0.0011173
622.98811,-0.0010155
622.02373,-0.0008033
621.05935,-0.0013183
620.09498,-0.0021002
619.13060,-0.0024634
618.16622,-0.0024217
617.20184,-0.0021366
616.23747,-0.0020770
615.27309,-0.0027356
614.30871,-0.0031580
613.34433,-0.0029756
612.37995,-0.0027274
611.41558,-0.0022035
610.45120,-0.0019450
609.48682,-0.0022971
608.52244,-0.0024014
607.55806,-0.0018026
606.59369,-0.0009045
605.62931,-0.0002612
604.66493,-0.0001333
603.70055,-0.0000050
602.73618,0.0005974
601.77180,0.0008953
600.80742,0.0007635
599.84304,0.0006778
598.87866,0.0005757
597.91429,0.0004183
596.94991,0.0002911
595.98553,0.0003545
595.02115,0.0004990
594.05677,0.0005488
593.09240,0.0005009
592.12802,0.0004353
591.16364,0.0003754
590.19926,0.0002460
589.23488,0.0001440
588.27051,0.0001187
587.30613,0.0001616
586.34175,0.0002234
585.37737,0.0003243
584.41300,0.0005158
583.44862,0.0006217
582.48424,0.0006749
581.51986,0.0007367
580.55548,0.0007476
579.59111,0.0007512
578.62673,0.0007565
577.66235,0.0007656
576.69797,0.0007078
575.73359,0.0006064
574.76922,0.0005495
573.80484,0.0006074
572.84046,0.0007725
571.87608,0.0008373
570.91171,0.0008556
569.94733,0.0009660
568.98295,0.0011334
568.01857,0.0012741
567.05419,0.0012987
566.08982,0.0012131
565.12544,0.0010305
564.16106,0.0009019
563.19668,0.0008856
562.23230,0.0009053
561.26793,0.0009680
560.30355,0.0009442
559.33917,0.0008652
558.37479,0.0009021
557.41041,0.0009262
556.44604,0.0007735
555.48166,0.0005744
554.51728,0.0004097
553.55290,0.0002810
552.58853,0.0003056
551.62415,0.0003895
550.65977,0.0004480
549.69539,0.0004595
548.73101,0.0003323
547.76664,0.0002451
546.80226,0.0002954
545.83788,0.0002714
544.87350,0.0001497
543.90912,0.0001006
542.94475,0.0001033
541.98037,0.0001281
541.01599,0.0002342
540.05161,0.0003877
539.08724,0.0005266
538.12286,0.0005613
537.15848,0.0005239
536.19410,0.0004881
535.22972,0.0004479
534.26535,0.0004203
533.30097,0.0004394
532.33659,0.0005638
531.37221,0.0006901
530.40783,0.0007512
529.44346,0.0008249
528.47908,0.0009288
527.51470,0.0010087
526.55032,0.0009397
525.58594,0.0007204
524.62157,0.0004478
523.65719,0.0003110
522.69281,0.0003246
521.72843,0.0003295
520.76406,0.0004277
519.79968,0.0005861
518.83530,0.0007246
517.87092,0.0008668
516.90654,0.0009524
515.94217,0.0009953
514.97779,0.0009694
514.01341,0.0008843
513.04903,0.0007869
512.08465,0.0007042
511.12028,0.0006091
510.15590,0.0004914
509.19152,0.0005094
508.22714,0.0006005
507.26276,0.0005817
506.29839,0.0004970
505.33401,0.0004655
504.36963,0.0005262
503.40525,0.0006156
502.44088,0.0006390
501.47650,0.0005542
500.51212,0.0004348
499.54774,0.0003541
498.58336,0.0003645
497.61899,0.0004648
496.65461,0.0005142
495.69023,0.0004464
494.72585,0.0003734
493.76147,0.0003983
492.79710,0.0004775
491.83272,0.0005585
490.86834,0.0005844
489.90396,0.0005274
488.93959,0.0005307
487.97521,0.0006722
487.01083,0.0008692
486.04645,0.0010252
485.08207,0.0011228
484.11770,0.0011678
483.15332,0.0011538
482.18894,0.0011545
481.22456,0.0012044
480.26018,0.0012181
479.29581,0.0011395
478.33143,0.0010727
477.36705,0.0011198
476.40267,0.0012015
475.43829,0.0012211
474.47392,0.0012138
473.50954,0.0012240
472.54516,0.0011849
471.58078,0.0010812
470.61641,0.0010187
469.65203,0.0010255
468.68765,0.0010144
467.72327,0.0010073
466.75889,0.0010673
465.79452,0.0011487
464.83014,0.0012438
463.86576,0.0013384
462.90138,0.0014183
461.93700,0.0014980
460.97263,0.0015719
460.00825,0.0016517
459.04387,0.0017166
458.07949,0.0017446
457.11512,0.0017207
456.15074,0.0017027
455.18636,0.0017100
454.22198,0.0017012
453.25760,0.0016682
452.29323,0.0015298
451.32885,0.0013783
450.36447,0.0013243
449.40009,0.0013103
448.43571,0.0013143
447.47134,0.0012906
446.50696,0.0012613
445.54258,0.0012581
444.57820,0.0013058
443.61382,0.0013886
442.64945,0.0014285
441.68507,0.0014495
440.72069,0.0014458
439.75631,0.0014415
438.79194,0.0014248
437.82756,0.0013664
436.86318,0.0013665
435.89880,0.0014013
434.93442,0.0014114
433.97005,0.0014072
433.00567,0.0014284
432.04129,0.0014577
431.07691,0.0014235
430.11253,0.0013938
429.14816,0.0013540
428.18378,0.0012214
427.21940,0.0010341
426.25502,0.0008739
425.29065,0.0008156
424.32627,0.0008004
423.36189,0.0007616
422.39751,0.0007520
421.43313,0.0007956
420.46876,0.0008072
419.50438,0.0007588
418.54000,0.0007723
417.57562,0.0008043
416.61124,0.0007560
415.64687,0.0007009
414.68249,0.0006752
413.71811,0.0006791
412.75373,0.0006822
411.78935,0.0006623
410.82498,0.0006815
409.86060,0.0007149
408.89622,0.0006858
407.93184,0.0006847
406.96747,0.0008002
406.00309,0.0008785
405.03871,0.0008535
404.07433,0.0008535
403.10995,0.0008535
402.14558,0.0008535
401.18120,0.0008535
400.21682,0.0008535
399.25244,0.0008535
