3998.31069,0.0062108
3997.34631,0.0062108
3996.38194,0.0062108
3995.41756,0.0062108
3994.45318,0.0062108
3993.48880,0.0062108
3992.52442,0.0062108
3991.56005,0.0061132
3990.59567,0.0060304
3989.63129,0.0060063
3988.66691,0.0060036
3987.70253,0.0059702
3986.73816,0.0059829
3985.77378,0.0060450
3984.80940,0.0061675
3983.84502,0.0063332
3982.88065,0.0064624
3981.91627,0.0064774
3980.95189,0.0064311
3979.98751,0.0064085
3979.02313,0.0063413
3978.05876,0.0062862
3977.09438,0.0062745
3976.13000,0.0062533
3975.16562,0.0062839
3974.20124,0.0063453
3973.23687,0.0063861
3972.27249,0.0064183
3971.30811,0.0064474
3970.34373,0.0064596
3969.37935,0.0064782
3968.41498,0.0064931
3967.45060,0.0064477
3966.48622,0.0064058
3965.52184,0.0063828
3964.55747,0.0063434
3963.59309,0.0063041
3962.62871,0.0062519
3961.66433,0.0062128
3960.69995,0.0062206
3959.73558,0.0062765
3958.77120,0.0063114
3957.80682,0.0062961
3956.84244,0.0062974
3955.87806,0.0063039
3954.91369,0.0062948
3953.94931,0.0062599
3952.98493,0.0062344
3952.02055,0.0062410
3951.05618,0.0062146
3950.09180,0.0061631
3949.12742,0.0060882
3948.16304,0.0060249
3947.19866,0.0060039
3946.23429,0.0060110
3945.26991,0.0060664
3944.30553,0.0061246
3943.34115,0.0061859
3942.37677,0.0062197
3941.41240,0.0062141
3940.44802,0.0062175
3939.48364,0.0061718
3938.51926,0.0061144
3937.55488,0.0060880
3936.59051,0.0060991
3935.62613,0.0061613
3934.66175,0.0062115
3933.69737,0.0062623
3932.73300,0.0063439
3931.76862,0.0064239
3930.80424,0.0064488
3929.83986,0.0064152
3928.87548,0.0063635
3927.91111,0.0062806
3926.94673,0.0061475
3925.98235,0.0060082
3925.01797,0.0059148
3924.05359,0.0058520
3923.08922,0.0058362
3922.12484,0.0058885
3921.16046,0.0059737
3920.19608,0.0060778
3919.23171,0.0061824
3918.26733,0.0062463
3917.30295,0.0062457
3916.33857,0.0061704
3915.37419,0.0060334
3914.40982,0.0059385
3913.44544,0.0058907
3912.48106,0.0058463
3911.51668,0.0058489
3910.55230,0.0058742
3909.58793,0.0059397
3908.62355,0.0060160
3907.65917,0.0061087
3906.69479,0.0062554
3905.73041,0.0063290
3904.76604,0.0063177
3903.80166,0.0063051
3902.83728,0.0063390
3901.87290,0.0063365
3900.90853,0.0062577
3899.94415,0.0061676
3898.97977,0.0060500
3898.01539,0.0059860
3897.05101,0.0059899
3896.08664,0.0060830
3895.12226,0.0062339
3894.15788,0.0062865
3893.19350,0.0062889
3892.22912,0.0063032
3891.26475,0.0063899
3890.30037,0.0064885
3889.33599,0.0065286
3888.37161,0.0065710
3887.40724,0.0065712
3886.44286,0.0065615
3885.47848,0.0065571
3884.51410,0.0065467
3883.54972,0.0065285
3882.58535,0.0064197
3881.62097,0.0062155
3880.65659,0.0060156
3879.69221,0.0059433
3878.72783,0.0059602
3877.76346,0.0059804
3876.79908,0.0059670
3875.83470,0.0059461
3874.87032,0.0059999
3873.90594,0.0060783
3872.94157,0.0061345
3871.97719,0.0061702
3871.01281,0.0061923
3870.04843,0.0062085
3869.08406,0.0061876
3868.11968,0.0061408
3867.15530,0.0061106
3866.19092,0.0060554
3865.22654,0.0059634
3864.26217,0.0059352
3863.29779,0.0059689
3862.33341,0.0059880
3861.36903,0.0059088
3860.40465,0.0058554
3859.44028,0.0060580
3858.47590,0.0063127
3857.51152,0.0064760
3856.54714,0.0065364
3855.58276,0.0065081
3854.61839,0.0065026
3853.65401,0.0064910
3852.68963,0.0064296
3851.72525,0.0063148
3850.76088,0.0061588
3849.79650,0.0059579
3848.83212,0.0058544
3847.86774,0.0059280
3846.90336,0.0059350
3845.93899,0.0059159
3844.97461,0.0058376
3844.01023,0.0057261
3843.04585,0.0058592
3842.08147,0.0060470
3841.11710,0.0061365
3840.15272,0.0062211
3839.18834,0.0062942
3838.22396,0.0063327
3837.25959,0.0063197
3836.29521,0.0062567
3835.33083,0.0061282
3834.36645,0.0059793
3833.40207,0.0058307
3832.43770,0.0057485
3831.47332,0.0058124
3830.50894,0.0058075
3829.54456,0.0057028
3828.58018,0.0056483
3827.61581,0.0056396
3826.65143,0.0057083
3825.68705,0.0058321
3824.72267,0.0059392
3823.75829,0.0059821
3822.79392,0.0059668
3821.82954,0.0060131
3820.86516,0.0061226
3819.90078,0.0061970
3818.93641,0.0061750
3817.97203,0.0060633
3817.00765,0.0059292
3816.04327,0.0058035
3815.07889,0.0057014
3814.11452,0.0055727
3813.15014,0.0054598
3812.18576,0.0054611
3811.22138,0.0055179
3810.25700,0.0056441
3809.29263,0.0058069
3808.32825,0.0059111
3807.36387,0.0060330
3806.39949,0.0062049
3805.43512,0.0063101
3804.47074,0.0062866
3803.50636,0.0061691
3802.54198,0.0060389
3801.57760,0.0059789
3800.61323,0.0059338
3799.64885,0.0058121
3798.68447,0.0056465
3797.72009,0.0054472
3796.75571,0.0052768
3795.79134,0.0052596
3794.82696,0.0053661
3793.86258,0.0054191
3792.89820,0.0053983
3791.93382,0.0054283
3790.96945,0.0054992
3790.00507,0.0055172
3789.04069,0.0054678
3788.07631,0.0054410
3787.11194,0.0054008
3786.14756,0.0052788
3785.18318,0.0052110
3784.21880,0.0052004
3783.25442,0.0051937
3782.29005,0.0051912
3781.32567,0.0051972
3780.36129,0.0052900
3779.39691,0.0053887
3778.43253,0.0054356
3777.46816,0.0054839
3776.50378,0.0055215
3775.53940,0.0055238
3774.57502,0.0055104
3773.61065,0.0055375
3772.64627,0.0055392
3771.68189,0.0055039
3770.71751,0.0054817
3769.75313,0.0054367
3768.78876,0.0053802
3767.82438,0.0052893
3766.86000,0.0051960
3765.89562,0.0051545
3764.93124,0.0051288
3763.96687,0.0051304
3763.00249,0.0051825
3762.03811,0.0052620
3761.07373,0.0053310
3760.10935,0.0053905
3759.14498,0.0054121
3758.18060,0.0054519
3757.21622,0.0055402
3756.25184,0.0055382
3755.28747,0.0055553
3754.32309,0.0056758
3753.35871,0.0057608
3752.39433,0.0057701
3751.42995,0.0056839
3750.46558,0.0056617
3749.50120,0.0058736
3748.53682,0.0060873
3747.57244,0.0061624
3746.60806,0.0062287
3745.64369,0.0062733
3744.67931,0.0061994
3743.71493,0.0060907
3742.75055,0.0059672
3741.78618,0.0058070
3740.82180,0.0056276
3739.85742,0.0054503
3738.89304,0.0054544
3737.92866,0.0056948
3736.96429,0.0059084
3735.99991,0.0059664
3735.03553,0.0058979
3734.07115,0.0057641
3733.10677,0.0056163
3732.14240,0.0054602
3731.17802,0.0053758
3730.21364,0.0053977
3729.24926,0.0054294
3728.28488,0.0054719
3727.32051,0.0055624
3726.35613,0.0057078
3725.39175,0.0058485
3724.42737,0.0058498
3723.46300,0.0057270
3722.49862,0.0056399
3721.53424,0.0055950
3720.56986,0.0055099
3719.60548,0.0054091
3718.64111,0.0052729
3717.67673,0.0052005
3716.71235,0.0052616
3715.74797,0.0053514
3714.78359,0.0054788
3713.81922,0.0055737
3712.85484,0.0056161
3711.89046,0.0056798
3710.92608,0.0057583
3709.96171,0.0057942
3708.99733,0.0056730
3708.03295,0.0054372
3707.06857,0.0052467
3706.10419,0.0052419
3705.13982,0.0053112
3704.17544,0.0053466
3703.21106,0.0054181
3702.24668,0.0053840
3701.28230,0.0053028
3700.31793,0.0052326
3699.35355,0.0051104
3698.38917,0.0050305
3697.42479,0.0049272
3696.46041,0.0048406
3695.49604,0.0048543
3694.53166,0.0049803
3693.56728,0.0052103
3692.60290,0.0053957
3691.63853,0.0055171
3690.67415,0.0055947
3689.70977,0.0056397
3688.74539,0.0056080
3687.78101,0.0055167
3686.81664,0.0054392
3685.85226,0.0053180
3684.88788,0.0052074
3683.92350,0.0051304
3682.95912,0.0050938
3681.99475,0.0051250
3681.03037,0.0051804
3680.06599,0.0053220
3679.10161,0.0055178
3678.13724,0.0056564
3677.17286,0.0057417
3676.20848,0.0058849
3675.24410,0.0060586
3674.27972,0.0061707
3673.31535,0.0062614
3672.35097,0.0062518
3671.38659,0.0061050
3670.42221,0.0059212
3669.45783,0.0057323
3668.49346,0.0055269
3667.52908,0.0052937
3666.56470,0.0050403
3665.60032,0.0048174
3664.63594,0.0047300
3663.67157,0.0047103
3662.70719,0.0046567
3661.74281,0.0046691
3660.77843,0.0047825
3659.81406,0.0049329
3658.84968,0.0050194
3657.88530,0.0050574
3656.92092,0.0051785
3655.95654,0.0053524
3654.99217,0.0054658
3654.02779,0.0054763
3653.06341,0.0054649
3652.09903,0.0054737
3651.13465,0.0054635
3650.17028,0.0054889
3649.20590,0.0055784
3648.24152,0.0056242
3647.27714,0.0055419
3646.31276,0.0054209
3645.34839,0.0053075
3644.38401,0.0051730
3643.41963,0.0050466
3642.45525,0.0049385
3641.49088,0.0049101
3640.52650,0.0049411
3639.56212,0.0049025
3638.59774,0.0048042
3637.63336,0.0047652
3636.66899,0.0047699
3635.70461,0.0046983
3634.74023,0.0046454
3633.77585,0.0047317
3632.81147,0.0049181
3631.84710,0.0051616
3630.88272,0.0054084
3629.91834,0.0056245
3628.95396,0.0057481
3627.98959,0.0057155
3627.02521,0.0055911
3626.06083,0.0054975
3625.09645,0.0053972
3624.13207,0.0052254
3623.16770,0.0051380
3622.20332,0.0051835
3621.23894,0.0052335
3620.27456,0.0052859
3619.31018,0.0053504
3618.34581,0.0053974
3617.38143,0.0054321
3616.41705,0.0053939
3615.45267,0.0052944
3614.48829,0.0052645
3613.52392,0.0052735
3612.55954,0.0052251
3611.59516,0.0051436
3610.63078,0.0051331
3609.66641,0.0051672
3608.70203,0.0051257
3607.73765,0.0050167
3606.77327,0.0048916
3605.80889,0.0048481
3604.84452,0.0048551
3603.88014,0.0048745
3602.91576,0.0050053
3601.95138,0.0051386
3600.98700,0.0052121
3600.02263,0.0053027
3599.05825,0.0054398
3598.09387,0.0055326
3597.12949,0.0054388
3596.16512,0.0052412
3595.20074,0.0051006
3594.23636,0.0050770
3593.27198,0.0050493
3592.30760,0.0049625
3591.34323,0.0049075
3590.37885,0.0048613
3589.41447,0.0048460
3588.45009,0.0048747
3587.48571,0.0049428
3586.52134,0.0050161
3585.55696,0.0050006
3584.59258,0.0049536
3583.62820,0.0049539
3582.66382,0.0049672
3581.69945,0.0049182
3580.73507,0.0048515
3579.77069,0.0048267
3578.80631,0.0048520
3577.84194,0.0049310
3576.87756,0.0050263
3575.91318,0.0051169
3574.94880,0.0050879
3573.98442,0.0049862
3573.02005,0.0049760
3572.05567,0.0050207
3571.09129,0.0050816
3570.12691,0.0051058
3569.16253,0.0050955
3568.19816,0.0050853
3567.23378,0.0050990
3566.26940,0.0051458
3565.30502,0.0051424
3564.34065,0.0050819
3563.37627,0.0049836
3562.41189,0.0049586
3561.44751,0.0050571
3560.48313,0.0051315
3559.51876,0.0051628
3558.55438,0.0051788
3557.59000,0.0052006
3556.62562,0.0052547
3555.66124,0.0052998
3554.69687,0.0052902
3553.73249,0.0052406
3552.76811,0.0052180
3551.80373,0.0052046
3550.83935,0.0051701
3549.87498,0.0051229
3548.91060,0.0050564
3547.94622,0.0050159
3546.98184,0.0050338
3546.01747,0.0050797
3545.05309,0.0051278
3544.08871,0.0051252
3543.12433,0.0050367
3542.15995,0.0049360
3541.19558,0.0048994
3540.23120,0.0049245
3539.26682,0.0049585
3538.30244,0.0050024
3537.33806,0.0050792
3536.37369,0.0051691
3535.40931,0.0052560
3534.44493,0.0052727
3533.48055,0.0052392
3532.51618,0.0051767
3531.55180,0.0050366
3530.58742,0.0049132
3529.62304,0.0048662
3528.65866,0.0048759
3527.69429,0.0049167
3526.72991,0.0049873
3525.76553,0.0051165
3524.80115,0.0052827
3523.83677,0.0054403
3522.87240,0.0055093
3521.90802,0.0055194
3520.94364,0.0055293
3519.97926,0.0055167
3519.01488,0.0054834
3518.05051,0.0053957
3517.08613,0.0052924
3516.12175,0.0052501
3515.15737,0.0052588
3514.19300,0.0052872
3513.22862,0.0053090
3512.26424,0.0052741
3511.29986,0.0051855
3510.33548,0.0051613
3509.37111,0.0052386
3508.40673,0.0053366
3507.44235,0.0053550
3506.47797,0.0053071
3505.51359,0.0052935
3504.54922,0.0053096
3503.58484,0.0053104
3502.62046,0.0052363
3501.65608,0.0051114
3500.69171,0.0050327
3499.72733,0.0050343
3498.76295,0.0050995
3497.79857,0.0051573
3496.83419,0.0051741
3495.86982,0.0051355
3494.90544,0.0050845
3493.94106,0.0050734
3492.97668,0.0050735
3492.01230,0.0050865
3491.04793,0.0051030
3490.08355,0.0051656
3489.11917,0.0053048
3488.15479,0.0054253
3487.19041,0.0054524
3486.22604,0.0054113
3485.26166,0.0053567
3484.29728,0.0052813
3483.33290,0.0051984
3482.36853,0.0051168
3481.40415,0.0050505
3480.43977,0.0050675
3479.47539,0.0051384
3478.51101,0.0052128
3477.54664,0.0052972
3476.58226,0.0053596
3475.61788,0.0053804
3474.65350,0.0053921
3473.68912,0.0053752
3472.72475,0.0053343
3471.76037,0.0053157
3470.79599,0.0052731
3469.83161,0.0051955
3468.86724,0.0051427
3467.90286,0.0051250
3466.93848,0.0051216
3465.97410,0.0051235
3465.00972,0.0051085
3464.04535,0.0051149
3463.08097,0.0052082
3462.11659,0.0053453
3461.15221,0.0055105
3460.18783,0.0056442
3459.22346,0.0056624
3458.25908,0.0056163
3457.29470,0.0055420
3456.33032,0.0054541
3455.36594,0.0053351
3454.40157,0.0051929
3453.43719,0.0050905
3452.47281,0.0050614
3451.50843,0.0051089
3450.54406,0.0051891
3449.57968,0.0052626
3448.61530,0.0052687
3447.65092,0.0052244
3446.68654,0.0051724
3445.72217,0.0051035
3444.75779,0.0050805
3443.79341,0.0050953
3442.82903,0.0051189
3441.86465,0.0051472
3440.90028,0.0051676
3439.93590,0.0052058
3438.97152,0.0052478
3438.00714,0.0052619
3437.04276,0.0052462
3436.07839,0.0052372
3435.11401,0.0052288
3434.14963,0.0052412
3433.18525,0.0052838
3432.22088,0.0052752
3431.25650,0.0052192
3430.29212,0.0051384
3429.32774,0.0050666
3428.36336,0.0050151
3427.39899,0.0049642
3426.43461,0.0049604
3425.47023,0.0050110
3424.50585,0.0050986
3423.54147,0.0051893
3422.57710,0.0052768
3421.61272,0.0053480
3420.64834,0.0053834
3419.68396,0.0054168
3418.71959,0.0054320
3417.75521,0.0054601
3416.79083,0.0055047
3415.82645,0.0055180
3414.86207,0.0055194
3413.89770,0.0054980
3412.93332,0.0054337
3411.96894,0.0053396
3411.00456,0.0052626
3410.04018,0.0052088
3409.07581,0.0051492
3408.11143,0.0051294
3407.14705,0.0051871
3406.18267,0.0052562
3405.21829,0.0052611
3404.25392,0.0052244
3403.28954,0.0051892
3402.32516,0.0051649
3401.36078,0.0051225
3400.39641,0.0050624
3399.43203,0.0050219
3398.46765,0.0049796
3397.50327,0.0049360
3396.53889,0.0049319
3395.57452,0.0049668
3394.61014,0.0049706
3393.64576,0.0049608
3392.68138,0.0050032
3391.71700,0.0050601
3390.75263,0.0051304
3389.78825,0.0051774
3388.82387,0.0052100
3387.85949,0.0052940
3386.89512,0.0053770
3385.93074,0.0054409
3384.96636,0.0054888
3384.00198,0.0055192
3383.03760,0.0055168
3382.07323,0.0054819
3381.10885,0.0054514
3380.14447,0.0053908
3379.18009,0.0053021
3378.21571,0.0052322
3377.25134,0.0052083
3376.28696,0.0051972
3375.32258,0.0051710
3374.35820,0.0051634
3373.39382,0.0051591
3372.42945,0.0051406
3371.46507,0.0050941
3370.50069,0.0050563
3369.53631,0.0050500
3368.57194,0.0050071
3367.60756,0.0049706
3366.64318,0.0050153
3365.67880,0.0050912
3364.71442,0.0051364
3363.75005,0.0051802
3362.78567,0.0052093
3361.82129,0.0051740
3360.85691,0.0051490
3359.89253,0.0051779
3358.92816,0.0052116
3357.96378,0.0052229
3356.99940,0.0052187
3356.03502,0.0052037
3355.07065,0.0052111
3354.10627,0.0052753
3353.14189,0.0053459
3352.17751,0.0053732
3351.21313,0.0053203
3350.24876,0.0052231
3349.28438,0.0051886
3348.32000,0.0051917
3347.35562,0.0051718
3346.39124,0.0051550
3345.42687,0.0051470
3344.46249,0.0051214
3343.49811,0.0050979
3342.53373,0.0050957
3341.56935,0.0051135
3340.60498,0.0051413
3339.64060,0.0051326
3338.67622,0.0050933
3337.71184,0.0050630
3336.74747,0.0050506
3335.78309,0.0050657
3334.81871,0.0051159
3333.85433,0.0051833
3332.88995,0.0052248
3331.92558,0.0052193
3330.96120,0.0051764
3329.99682,0.0051425
3329.03244,0.0051555
3328.06806,0.0051879
3327.10369,0.0051844
3326.13931,0.0051543
3325.17493,0.0051561
3324.21055,0.0051628
3323.24618,0.0051639
3322.28180,0.0051627
3321.31742,0.0051088
3320.35304,0.0050306
3319.38866,0.0049698
3318.42429,0.0049452
3317.45991,0.0049455
3316.49553,0.0049422
3315.53115,0.0049508
3314.56677,0.0049854
3313.60240,0.0050186
3312.63802,0.0049846
3311.67364,0.0049287
3310.70926,0.0049116
3309.74488,0.0048878
3308.78051,0.0048753
3307.81613,0.0049118
3306.85175,0.0049634
3305.88737,0.0049850
3304.92300,0.0050338
3303.95862,0.0051504
3302.99424,0.0052408
3302.02986,0.0052502
3301.06548,0.0052106
3300.10111,0.0051973
3299.13673,0.0051995
3298.17235,0.0051524
3297.20797,0.0050886
3296.24359,0.0050380
3295.27922,0.0050083
3294.31484,0.0049990
3293.35046,0.0050074
3292.38608,0.0050153
3291.42171,0.0050080
3290.45733,0.0050092
3289.49295,0.0050125
3288.52857,0.0050164
3287.56419,0.0050028
3286.59982,0.0049974
3285.63544,0.0050503
3284.67106,0.0051231
3283.70668,0.0052056
3282.74230,0.0052613
3281.77793,0.0052661
3280.81355,0.0052513
3279.84917,0.0052189
3278.88479,0.0051795
3277.92041,0.0051260
3276.95604,0.0050760
3275.99166,0.0050239
3275.02728,0.0050016
3274.06290,0.0050447
3273.09853,0.0050607
3272.13415,0.0050572
3271.16977,0.0050316
3270.20539,0.0049825
3269.24101,0.0049957
3268.27664,0.0050156
3267.31226,0.0050155
3266.34788,0.0050487
3265.38350,0.0050984
3264.41912,0.0050960
3263.45475,0.0050581
3262.49037,0.0050268
3261.52599,0.0049520
3260.56161,0.0048889
3259.59724,0.0048488
3258.63286,0.0048112
3257.66848,0.0048294
3256.70410,0.0048173
3255.73972,0.0047856
3254.77535,0.0048090
3253.81097,0.0048238
3252.84659,0.0047979
3251.88221,0.0047590
3250.91783,0.0047360
3249.95346,0.0047223
3248.98908,0.0047151
3248.02470,0.0047139
3247.06032,0.0047199
3246.09594,0.0047362
3245.13157,0.0047293
3244.16719,0.0046992
3243.20281,0.0046655
3242.23843,0.0046482
3241.27406,0.0046344
3240.30968,0.0045919
3239.34530,0.0045476
3238.38092,0.0045109
3237.41654,0.0044815
3236.45217,0.0044794
3235.48779,0.0044962
3234.52341,0.0045159
3233.55903,0.0045299
3232.59465,0.0045435
3231.63028,0.0045988
3230.66590,0.0047073
3229.70152,0.0047834
3228.73714,0.0048095
3227.77276,0.0048382
3226.80839,0.0048365
3225.84401,0.0047887
3224.87963,0.0047146
3223.91525,0.0046182
3222.95088,0.0045224
3221.98650,0.0044354
3221.02212,0.0043651
3220.05774,0.0043337
3219.09336,0.0043542
3218.12899,0.0044149
3217.16461,0.0044924
3216.20023,0.0045651
3215.23585,0.0046052
3214.27147,0.0046205
3213.30710,0.0046351
3212.34272,0.0046637
3211.37834,0.0046996
3210.41396,0.0047022
3209.44959,0.0046656
3208.48521,0.0046056
3207.52083,0.0045609
3206.55645,0.0045448
3205.59207,0.0045027
3204.62770,0.0044466
3203.66332,0.0044109
3202.69894,0.0043913
3201.73456,0.0044017
3200.77018,0.0044650
3199.80581,0.0045448
3198.84143,0.0045824
3197.87705,0.0046048
3196.91267,0.0045933
3195.94829,0.0045294
3194.98392,0.0044631
3194.01954,0.0043881
3193.05516,0.0043253
3192.09078,0.0042728
3191.12641,0.0042096
3190.16203,0.0041796
3189.19765,0.0042102
3188.23327,0.0042541
3187.26889,0.0042453
3186.30452,0.0042381
3185.34014,0.0042615
3184.37576,0.0042695
3183.41138,0.0042635
3182.44700,0.0042617
3181.48263,0.0042961
3180.51825,0.0043166
3179.55387,0.0042969
3178.58949,0.0043192
3177.62512,0.0043816
3176.66074,0.0043995
3175.69636,0.0043619
3174.73198,0.0043574
3173.76760,0.0043852
3172.80323,0.0043827
3171.83885,0.0043688
3170.87447,0.0043764
3169.91009,0.0043848
3168.94571,0.0043505
3167.98134,0.0043118
3167.01696,0.0042978
3166.05258,0.0042635
3165.08820,0.0041974
3164.12382,0.0041238
3163.15945,0.0040688
3162.19507,0.0040394
3161.23069,0.0040398
3160.26631,0.0040421
3159.30194,0.0040298
3158.33756,0.0040302
3157.37318,0.0040482
3156.40880,0.0040986
3155.44442,0.0041544
3154.48005,0.0041924
3153.51567,0.0042186
3152.55129,0.0041745
3151.58691,0.0040991
3150.62253,0.0040612
3149.65816,0.0039942
3148.69378,0.0039087
3147.72940,0.0039089
3146.76502,0.0039721
3145.80065,0.0040171
3144.83627,0.0040504
3143.87189,0.0040816
3142.90751,0.0040877
3141.94313,0.0040513
3140.97876,0.0039601
3140.01438,0.0038768
3139.05000,0.0038368
3138.08562,0.0037999
3137.12124,0.0038353
3136.15687,0.0039659
3135.19249,0.0040637
3134.22811,0.0040860
3133.26373,0.0040835
3132.29935,0.0040949
3131.33498,0.0041052
3130.37060,0.0040865
3129.40622,0.0040514
3128.44184,0.0040208
3127.47747,0.0040218
3126.51309,0.0040420
3125.54871,0.0040680
3124.58433,0.0041024
3123.61995,0.0041048
3122.65558,0.0040837
3121.69120,0.0040761
3120.72682,0.0040731
3119.76244,0.0040498
3118.79806,0.0039894
3117.83369,0.0039137
3116.86931,0.0038570
3115.90493,0.0038411
3114.94055,0.0038580
3113.97618,0.0038920
3113.01180,0.0039462
3112.04742,0.0039944
3111.08304,0.0040188
3110.11866,0.0040332
3109.15429,0.0040276
3108.18991,0.0040012
3107.22553,0.0039726
3106.26115,0.0039445
3105.29677,0.0039194
3104.33240,0.0038962
3103.36802,0.0038667
3102.40364,0.0038352
3101.43926,0.0038197
3100.47488,0.0038264
3099.51051,0.0038266
3098.54613,0.0038095
3097.58175,0.0038040
3096.61737,0.0038109
3095.65300,0.0038136
3094.68862,0.0038171
3093.72424,0.0038240
3092.75986,0.0038136
3091.79548,0.0037669
3090.83111,0.0037223
3089.86673,0.0037318
3088.90235,0.0037645
3087.93797,0.0037720
3086.97359,0.0037740
3086.00922,0.0037740
3085.04484,0.0037394
3084.08046,0.0036848
3083.11608,0.0036488
3082.15171,0.0036471
3081.18733,0.0036558
3080.22295,0.0036279
3079.25857,0.0035953
3078.29419,0.0036221
3077.32982,0.0036758
3076.36544,0.0037267
3075.40106,0.0037983
3074.43668,0.0038707
3073.47230,0.0039070
3072.50793,0.0038987
3071.54355,0.0038650
3070.57917,0.0038348
3069.61479,0.0037851
3068.65041,0.0036832
3067.68604,0.0035779
3066.72166,0.0035190
3065.75728,0.0034971
3064.79290,0.0035294
3063.82853,0.0036231
3062.86415,0.0037172
3061.89977,0.0037646
3060.93539,0.0037748
3059.97101,0.0037826
3059.00664,0.0037877
3058.04226,0.0037625
3057.07788,0.0037141
3056.11350,0.0036703
3055.14912,0.0036511
3054.18475,0.0036685
3053.22037,0.0037183
3052.25599,0.0037523
3051.29161,0.0037330
3050.32724,0.0036968
3049.36286,0.0036814
3048.39848,0.0036742
3047.43410,0.0036449
3046.46972,0.0036021
3045.50535,0.0035762
3044.54097,0.0035656
3043.57659,0.0035532
3042.61221,0.0035210
3041.64783,0.0034792
3040.68346,0.0034434
3039.71908,0.0034242
3038.75470,0.0034430
3037.79032,0.0034807
3036.82594,0.0035240
3035.86157,0.0035799
3034.89719,0.0036426
3033.93281,0.0037023
3032.96843,0.0037293
3032.00406,0.0037016
3031.03968,0.0036391
3030.07530,0.0035910
3029.11092,0.0035558
3028.14654,0.0035224
3027.18217,0.0035023
3026.21779,0.0034788
3025.25341,0.0034947
3024.28903,0.0035518
3023.32465,0.0035884
3022.36028,0.0036220
3021.39590,0.0036592
3020.43152,0.0036736
3019.46714,0.0036556
3018.50276,0.0036332
3017.53839,0.0036242
3016.57401,0.0036254
3015.60963,0.0036652
3014.64525,0.0037141
3013.68088,0.0037603
3012.71650,0.0038083
3011.75212,0.0038180
3010.78774,0.0038162
3009.82336,0.0038104
3008.85899,0.0037730
3007.89461,0.0037174
3006.93023,0.0036822
3005.96585,0.0036715
3005.00147,0.0036457
3004.03710,0.0036194
3003.07272,0.0035862
3002.10834,0.0035353
3001.14396,0.0035066
3000.17959,0.0035017
2999.21521,0.0035316
2998.25083,0.0035823
2997.28645,0.0036257
2996.32207,0.0036706
2995.35770,0.0037099
2994.39332,0.0037417
2993.42894,0.0037413
2992.46456,0.0037101
2991.50018,0.0036805
2990.53581,0.0036467
2989.57143,0.0036383
2988.60705,0.0036549
2987.64267,0.0036569
2986.67829,0.0036579
2985.71392,0.0036618
2984.74954,0.0036524
2983.78516,0.0036551
2982.82078,0.0037046
2981.85641,0.0037659
2980.89203,0.0038055
2979.92765,0.0038356
2978.96327,0.0038607
2977.99889,0.0038971
2977.03452,0.0039160
2976.07014,0.0039122
2975.10576,0.0039479
2974.14138,0.0039963
2973.17700,0.0040281
2972.21263,0.0040847
2971.24825,0.0041763
2970.28387,0.0042723
2969.31949,0.0043524
2968.35512,0.0044192
2967.39074,0.0044831
2966.42636,0.0045545
2965.46198,0.0046189
2964.49760,0.0046887
2963.53323,0.0047675
2962.56885,0.0048193
2961.60447,0.0048555
2960.64009,0.0048753
2959.67571,0.0048960
2958.71134,0.0049442
2957.74696,0.0049855
2956.78258,0.0050064
2955.81820,0.0050003
2954.85382,0.0049756
2953.88945,0.0049587
2952.92507,0.0049445
2951.96069,0.0049224
2950.99631,0.0049009
2950.03194,0.0048838
2949.06756,0.0048726
2948.10318,0.0049026
2947.13880,0.0049504
2946.17442,0.0049845
2945.21005,0.0050444
2944.24567,0.0051197
2943.28129,0.0051810
2942.31691,0.0052495
2941.35253,0.0053606
2940.38816,0.0055071
2939.42378,0.0056622
2938.45940,0.0058286
2937.49502,0.0060065
2936.53065,0.0061769
2935.56627,0.0063167
2934.60189,0.0064665
2933.63751,0.0066639
2932.67313,0.0068790
2931.70876,0.0070828
2930.74438,0.0072730
2929.78000,0.0074651
2928.81562,0.0076276
2927.85124,0.0077603
2926.88687,0.0078945
2925.92249,0.0079948
2924.95811,0.0080518
2923.99373,0.0080776
2923.02935,0.0080833
2922.06498,0.0080730
2921.10060,0.0080188
2920.13622,0.0079161
2919.17184,0.0077813
2918.20747,0.0076059
2917.24309,0.0073903
2916.27871,0.0071799
2915.31433,0.0069688
2914.34995,0.0067504
2913.38558,0.0065619
2912.42120,0.0063770
2911.45682,0.0061814
2910.49244,0.0059961
2909.52806,0.0058233
2908.56369,0.0056849
2907.59931,0.0055986
2906.63493,0.0055155
2905.67055,0.0054015
2904.70618,0.0052825
2903.74180,0.0051611
2902.77742,0.0050692
2901.81304,0.0050114
2900.84866,0.0049297
2899.88429,0.0048393
2898.91991,0.0047672
2897.95553,0.0047088
2896.99115,0.0046740
2896.02677,0.0046676
2895.06240,0.0046533
2894.09802,0.0046098
2893.13364,0.0045757
2892.16926,0.0045710
2891.20488,0.0045791
2890.24051,0.0045514
2889.27613,0.0044766
2888.31175,0.0044033
2887.34737,0.0043353
2886.38300,0.0042688
2885.41862,0.0042185
2884.45424,0.0041749
2883.48986,0.0041332
2882.52548,0.0041083
2881.56111,0.0041124
2880.59673,0.0041431
2879.63235,0.0041650
2878.66797,0.0041417
2877.70359,0.0041089
2876.73922,0.0041190
2875.77484,0.0041593
2874.81046,0.0041938
2873.84608,0.0042088
2872.88171,0.0042046
2871.91733,0.0041989
2870.95295,0.0042033
2869.98857,0.0042176
2869.02419,0.0042468
2868.05982,0.0042651
2867.09544,0.0042720
2866.13106,0.0043054
2865.16668,0.0043820
2864.20230,0.0044860
2863.23793,0.0045774
2862.27355,0.0046692
2861.30917,0.0047852
2860.34479,0.0049300
2859.38041,0.0051095
2858.41604,0.0052826
2857.45166,0.0054276
2856.48728,0.0055556
2855.52290,0.0056795
2854.55853,0.0057865
2853.59415,0.0058359
2852.62977,0.0058181
2851.66539,0.0057487
2850.70101,0.0056443
2849.73664,0.0055035
2848.77226,0.0053451
2847.80788,0.0051618
2846.84350,0.0049268
2845.87912,0.0046926
2844.91475,0.0044848
2843.95037,0.0043008
2842.98599,0.0041467
2842.02161,0.0040045
2841.05724,0.0038792
2840.09286,0.0037876
2839.12848,0.0037260
2838.16410,0.0036644
2837.19972,0.0035929
2836.23535,0.0035196
2835.27097,0.0034524
2834.30659,0.0033948
2833.34221,0.0033344
2832.37783,0.0032904
2831.41346,0.0032524
2830.44908,0.0032091
2829.48470,0.0031921
2828.52032,0.0031966
2827.55594,0.0032206
2826.59157,0.0032435
2825.62719,0.0032548
2824.66281,0.0032801
2823.69843,0.0032969
2822.73406,0.0032812
2821.76968,0.0032361
2820.80530,0.0031732
2819.84092,0.0031040
2818.87654,0.0030475
2817.91217,0.0030100
2816.94779,0.0029731
2815.98341,0.0029518
2815.01903,0.0029498
2814.05465,0.0029608
2813.09028,0.0029808
2812.12590,0.0029774
2811.16152,0.0029516
2810.19714,0.0029231
2809.23276,0.0029077
2808.26839,0.0029155
2807.30401,0.0029238
2806.33963,0.0029053
2805.37525,0.0028729
2804.41088,0.0028613
2803.44650,0.0028660
2802.48212,0.0028775
2801.51774,0.0028892
2800.55336,0.0028819
2799.58899,0.0028759
2798.62461,0.0028820
2797.66023,0.0028749
2796.69585,0.0028594
2795.73147,0.0028486
2794.76710,0.0028259
2793.80272,0.0028061
2792.83834,0.0028170
2791.87396,0.0028296
2790.90959,0.0028204
2789.94521,0.0027995
2788.98083,0.0027780
2788.01645,0.0027695
2787.05207,0.0027714
2786.08770,0.0027643
2785.12332,0.0027554
2784.15894,0.0027645
2783.19456,0.0027731
2782.23018,0.0027668
2781.26581,0.0027547
2780.30143,0.0027407
2779.33705,0.0027227
2778.37267,0.0027046
2777.40829,0.0027044
2776.44392,0.0027203
2775.47954,0.0027400
2774.51516,0.0027575
2773.55078,0.0027737
2772.58641,0.0027927
2771.62203,0.0027987
2770.65765,0.0027833
2769.69327,0.0027589
2768.72889,0.0027442
2767.76452,0.0027312
2766.80014,0.0027055
2765.83576,0.0026827
2764.87138,0.0026616
2763.90700,0.0026450
2762.94263,0.0026430
2761.97825,0.0026439
2761.01387,0.0026501
2760.04949,0.0026678
2759.08512,0.0026734
2758.12074,0.0026573
2757.15636,0.0026487
2756.19198,0.0026415
2755.22760,0.0026230
2754.26323,0.0026104
2753.29885,0.0026120
2752.33447,0.0026165
2751.37009,0.0026098
2750.40571,0.0026081
2749.44134,0.0026076
2748.47696,0.0025986
2747.51258,0.0025827
2746.54820,0.0025588
2745.58382,0.0025508
2744.61945,0.0025417
2743.65507,0.0025205
2742.69069,0.0025086
2741.72631,0.0025037
2740.76194,0.0025004
2739.79756,0.0024975
2738.83318,0.0025035
2737.86880,0.0024902
2736.90442,0.0024520
2735.94005,0.0024207
2734.97567,0.0024118
2734.01129,0.0024341
2733.04691,0.0024405
2732.08253,0.0024305
2731.11816,0.0024434
2730.15378,0.0024676
2729.18940,0.0024994
2728.22502,0.0025306
2727.26065,0.0025506
2726.29627,0.0025452
2725.33189,0.0025200
2724.36751,0.0024993
2723.40313,0.0024914
2722.43876,0.0024775
2721.47438,0.0024205
2720.51000,0.0023718
2719.54562,0.0023786
2718.58124,0.0023982
2717.61687,0.0024042
2716.65249,0.0024079
2715.68811,0.0024258
2714.72373,0.0024370
2713.75935,0.0024403
2712.79498,0.0024555
2711.83060,0.0024716
2710.86622,0.0024775
2709.90184,0.0024712
2708.93747,0.0024818
2707.97309,0.0025120
2707.00871,0.0025223
2706.04433,0.0024963
2705.07995,0.0024524
2704.11558,0.0024247
2703.15120,0.0024005
2702.18682,0.0023817
2701.22244,0.0023944
2700.25806,0.0024123
2699.29369,0.0024170
2698.32931,0.0024036
2697.36493,0.0023895
2696.40055,0.0023991
2695.43618,0.0023965
2694.47180,0.0023612
2693.50742,0.0023327
2692.54304,0.0023486
2691.57866,0.0023929
2690.61429,0.0024273
2689.64991,0.0024531
2688.68553,0.0024623
2687.72115,0.0024417
2686.75677,0.0024107
2685.79240,0.0023915
2684.82802,0.0023811
2683.86364,0.0023450
2682.89926,0.0022996
2681.93488,0.0022854
2680.97051,0.0022944
2680.00613,0.0023144
2679.04175,0.0023280
2678.07737,0.0023295
2677.11300,0.0023278
2676.14862,0.0023290
2675.18424,0.0023292
2674.21986,0.0023235
2673.25548,0.0023268
2672.29111,0.0023246
2671.32673,0.0023091
2670.36235,0.0022925
2669.39797,0.0022792
2668.43359,0.0022858
2667.46922,0.0023006
2666.50484,0.0023019
2665.54046,0.0022894
2664.57608,0.0022697
2663.61171,0.0022476
2662.64733,0.0022365
2661.68295,0.0022448
2660.71857,0.0022491
2659.75419,0.0022563
2658.78982,0.0022836
2657.82544,0.0023279
2656.86106,0.0023841
2655.89668,0.0024318
2654.93230,0.0024577
2653.96793,0.0024502
2653.00355,0.0024269
2652.03917,0.0024139
2651.07479,0.0023948
2650.11041,0.0023581
2649.14604,0.0023195
2648.18166,0.0022853
2647.21728,0.0022518
2646.25290,0.0022375
2645.28853,0.0022365
2644.32415,0.0022415
2643.35977,0.0022626
2642.39539,0.0022692
2641.43101,0.0022575
2640.46664,0.0022553
2639.50226,0.0022627
2638.53788,0.0022654
2637.57350,0.0022742
2636.60912,0.0022869
2635.64475,0.0022828
2634.68037,0.0022877
2633.71599,0.0023047
2632.75161,0.0023335
2631.78724,0.0023616
2630.82286,0.0023412
2629.85848,0.0023021
2628.89410,0.0022758
2627.92972,0.0022672
2626.96535,0.0022725
2626.00097,0.0022625
2625.03659,0.0022378
2624.07221,0.0021969
2623.10783,0.0021623
2622.14346,0.0021411
2621.17908,0.0020952
2620.21470,0.0020483
2619.25032,0.0020224
2618.28594,0.0020186
2617.32157,0.0020464
2616.35719,0.0020732
2615.39281,0.0020849
2614.42843,0.0021017
2613.46406,0.0021296
2612.49968,0.0021573
2611.53530,0.0021829
2610.57092,0.0021982
2609.60654,0.0021828
2608.64217,0.0021724
2607.67779,0.0021483
2606.71341,0.0020845
2605.74903,0.0020441
2604.78465,0.0019875
2603.82028,0.0018998
2602.85590,0.0018463
2601.89152,0.0018224
2600.92714,0.0018388
2599.96276,0.0018866
2598.99839,0.0019307
2598.03401,0.0019601
2597.06963,0.0019672
2596.10525,0.0019541
2595.14088,0.0019561
2594.17650,0.0020008
2593.21212,0.0020401
2592.24774,0.0020531
2591.28336,0.0020447
2590.31899,0.0020429
2589.35461,0.0020731
2588.39023,0.0020700
2587.42585,0.0020607
2586.46147,0.0020703
2585.49710,0.0020409
2584.53272,0.0019907
2583.56834,0.0019275
2582.60396,0.0018532
2581.63959,0.0017934
2580.67521,0.0017711
2579.71083,0.0017758
2578.74645,0.0017969
2577.78207,0.0018519
2576.81770,0.0019093
2575.85332,0.0019979
2574.88894,0.0021050
2573.92456,0.0021519
2572.96018,0.0021410
2571.99581,0.0020674
2571.03143,0.0019998
2570.06705,0.0019921
2569.10267,0.0020249
2568.13829,0.0020698
2567.17392,0.0020564
2566.20954,0.0019976
2565.24516,0.0019369
2564.28078,0.0019289
2563.31641,0.0019363
2562.35203,0.0018703
2561.38765,0.0017930
2560.42327,0.0017455
2559.45889,0.0017611
2558.49452,0.0018111
2557.53014,0.0018494
2556.56576,0.0018922
2555.60138,0.0018765
2554.63700,0.0018367
2553.67263,0.0018337
2552.70825,0.0018628
2551.74387,0.0018734
2550.77949,0.0018552
2549.81512,0.0019147
2548.85074,0.0020060
2547.88636,0.0020512
2546.92198,0.0020729
2545.95760,0.0021064
2544.99323,0.0021126
2544.02885,0.0020227
2543.06447,0.0019247
2542.10009,0.0018425
2541.13571,0.0017632
2540.17134,0.0017171
2539.20696,0.0016809
2538.24258,0.0016696
2537.27820,0.0016235
2536.31382,0.0014953
2535.34945,0.0013867
2534.38507,0.0013562
2533.42069,0.0013373
2532.45631,0.0013202
2531.49194,0.0013644
2530.52756,0.0014690
2529.56318,0.0016310
2528.59880,0.0018012
2527.63442,0.0019239
2526.67005,0.0020037
2525.70567,0.0020171
2524.74129,0.0019580
2523.77691,0.0018789
2522.81253,0.0018342
2521.84816,0.0018147
2520.88378,0.0017818
2519.91940,0.0017226
2518.95502,0.0017094
2517.99065,0.0017820
2517.02627,0.0018505
2516.06189,0.0018782
2515.09751,0.0018846
2514.13313,0.0019243
2513.16876,0.0019784
2512.20438,0.0019725
2511.24000,0.0019919
2510.27562,0.0020322
2509.31124,0.0020026
2508.34687,0.0019606
2507.38249,0.0019536
2506.41811,0.0019428
2505.45373,0.0018779
2504.48935,0.0017434
2503.52498,0.0015970
2502.56060,0.0015004
2501.59622,0.0014204
2500.63184,0.0013618
2499.66747,0.0013604
2498.70309,0.0013633
2497.73871,0.0014029
2496.77433,0.0015109
2495.80995,0.0015903
2494.84558,0.0016286
2493.88120,0.0016581
2492.91682,0.0016756
2491.95244,0.0017042
2490.98806,0.0017254
2490.02369,0.0017606
2489.05931,0.0018398
2488.09493,0.0018921
2487.13055,0.0019183
2486.16618,0.0019546
2485.20180,0.0019921
2484.23742,0.0019956
2483.27304,0.0019439
2482.30866,0.0018843
2481.34429,0.0018158
2480.37991,0.0017406
2479.41553,0.0016992
2478.45115,0.0017064
2477.48677,0.0017296
2476.52240,0.0017321
2475.55802,0.0017533
2474.59364,0.0017797
2473.62926,0.0017921
2472.66488,0.0017944
2471.70051,0.0017940
2470.73613,0.0018217
2469.77175,0.0018156
2468.80737,0.0018033
2467.84300,0.0018258
2466.87862,0.0018271
2465.91424,0.0018270
2464.94986,0.0018491
2463.98548,0.0018841
2463.02111,0.0018584
2462.05673,0.0017650
2461.09235,0.0017115
2460.12797,0.0017150
2459.16359,0.0017088
2458.19922,0.0016403
2457.23484,0.0015651
2456.27046,0.0015238
2455.30608,0.0015078
2454.34171,0.0015277
2453.37733,0.0015145
2452.41295,0.0014506
2451.44857,0.0013770
2450.48419,0.0013212
2449.51982,0.0013418
2448.55544,0.0014173
2447.59106,0.0014747
2446.62668,0.0014917
2445.66230,0.0015221
2444.69793,0.0015910
2443.73355,0.0016066
2442.76917,0.0015412
2441.80479,0.0014174
2440.84041,0.0012647
2439.87604,0.0012006
2438.91166,0.0012657
2437.94728,0.0014113
2436.98290,0.0015754
2436.01853,0.0017037
2435.05415,0.0017911
2434.08977,0.0018510
2433.12539,0.0019068
2432.16101,0.0018903
2431.19664,0.0017673
2430.23226,0.0015910
2429.26788,0.0014011
2428.30350,0.0013162
2427.33912,0.0013283
2426.37475,0.0013709
2425.41037,0.0014483
2424.44599,0.0014885
2423.48161,0.0014755
2422.51724,0.0014769
2421.55286,0.0015548
2420.58848,0.0016301
2419.62410,0.0016473
2418.65972,0.0016615
2417.69535,0.0016477
2416.73097,0.0016525
2415.76659,0.0016705
2414.80221,0.0016635
2413.83783,0.0016524
2412.87346,0.0015880
2411.90908,0.0015095
2410.94470,0.0014700
2409.98032,0.0014901
2409.01594,0.0015419
2408.05157,0.0015592
2407.08719,0.0015406
2406.12281,0.0014803
2405.15843,0.0014298
2404.19406,0.0014008
2403.22968,0.0013757
2402.26530,0.0013926
2401.30092,0.0014274
2400.33654,0.0014665
2399.37217,0.0015030
2398.40779,0.0015367
2397.44341,0.0015573
2396.47903,0.0015317
2395.51465,0.0015003
2394.55028,0.0014701
2393.58590,0.0014361
2392.62152,0.0014141
2391.65714,0.0013593
2390.69276,0.0012968
2389.72839,0.0012871
2388.76401,0.0013163
2387.79963,0.0013625
2386.83525,0.0014074
2385.87088,0.0014808
2384.90650,0.0016158
2383.94212,0.0017874
2382.97774,0.0019920
2382.01336,0.0022333
2381.04899,0.0024951
2380.08461,0.0027708
2379.12023,0.0031233
2378.15585,0.0035664
2377.19147,0.0040228
2376.22710,0.0045190
2375.26272,0.0050726
2374.29834,0.0056603
2373.33396,0.0062765
2372.36959,0.0068960
2371.40521,0.0075194
2370.44083,0.0081063
2369.47645,0.0086469
2368.51207,0.0091446
2367.54770,0.0095681
2366.58332,0.0099095
2365.61894,0.0101668
2364.65456,0.0104026
2363.69018,0.0106095
2362.72581,0.0107237
2361.76143,0.0107710
2360.79705,0.0107835
2359.83267,0.0107414
2358.86829,0.0106017
2357.90392,0.0103769
2356.93954,0.0100438
2355.97516,0.0095687
2355.01078,0.0089406
2354.04641,0.0080969
2353.08203,0.0071076
2352.11765,0.0061390
2351.15327,0.0053089
2350.18889,0.0047581
2349.22452,0.0045793
2348.26014,0.0047309
2347.29576,0.0051530
2346.33138,0.0057976
2345.36700,0.0065410
2344.40263,0.0072758
2343.43825,0.0078756
2342.47387,0.0082212
2341.50949,0.0083688
2340.54512,0.0083907
2339.58074,0.0083204
2338.61636,0.0082434
2337.65198,0.0081999
2336.68760,0.0081481
2335.72323,0.0080566
2334.75885,0.0079568
2333.79447,0.0078825
2332.83009,0.0078449
2331.86571,0.0077960
2330.90134,0.0076923
2329.93696,0.0075711
2328.97258,0.0074298
2328.00820,0.0072560
2327.04382,0.0070757
2326.07945,0.0068886
2325.11507,0.0066797
2324.15069,0.0064484
2323.18631,0.0062452
2322.22194,0.0060894
2321.25756,0.0059118
2320.29318,0.0056558
2319.32880,0.0053483
2318.36442,0.0050609
2317.40005,0.0047978
2316.43567,0.0045234
2315.47129,0.0042395
2314.50691,0.0039555
2313.54253,0.0037051
2312.57816,0.0035135
2311.61378,0.0033472
2310.64940,0.0031810
2309.68502,0.0030154
2308.72065,0.0028337
2307.75627,0.0026615
2306.79189,0.0025341
2305.82751,0.0024565
2304.86313,0.0024109
2303.89876,0.0023782
2302.93438,0.0023536
2301.97000,0.0023523
2301.00562,0.0023658
2300.04124,0.0023629
2299.07687,0.0023523
2298.11249,0.0023524
2297.14811,0.0023477
2296.18373,0.0023429
2295.21935,0.0023382
2294.25498,0.0023335
2293.29060,0.0023288
2292.32622,0.0023241
2291.36184,0.0023194
2290.39747,0.0023146
2289.43309,0.0023099
2288.46871,0.0023052
2287.50433,0.0023005
2286.53995,0.0022958
2285.57558,0.0022910
2284.61120,0.0022863
2283.64682,0.0022816
2282.68244,0.0022769
2281.71806,0.0022722
2280.75369,0.0022674
2279.78931,0.0022627
2278.82493,0.0022580
2277.86055,0.0022533
2276.89618,0.0022486
2275.93180,0.0022439
2274.96742,0.0022391
2274.00304,0.0022344
2273.03866,0.0022297
2272.07429,0.0022250
2271.10991,0.0022203
2270.14553,0.0022155
2269.18115,0.0022108
2268.21677,0.0022061
2267.25240,0.0022014
2266.28802,0.0021967
2265.32364,0.0021919
2264.35926,0.0021872
2263.39488,0.0021825
2262.43051,0.0021778
2261.46613,0.0021731
2260.50175,0.0021684
2259.53737,0.0021636
2258.57300,0.0021589
2257.60862,0.0021542
2256.64424,0.0021495
2255.67986,0.0021448
2254.71548,0.0021400
2253.75111,0.0021353
2252.78673,0.0021306
2251.82235,0.0021259
2250.85797,0.0021212
2249.89359,0.0021164
2248.92922,0.0021117
2247.96484,0.0021070
2247.00046,0.0021023
2246.03608,0.0020976
2245.07171,0.0020929
2244.10733,0.0020881
2243.14295,0.0020834
2242.17857,0.0020787
2241.21419,0.0020740
2240.24982,0.0020693
2239.28544,0.0020645
2238.32106,0.0020598
2237.35668,0.0020551
2236.39230,0.0020504
2235.42793,0.0020457
2234.46355,0.0020409
2233.49917,0.0020362
2232.53479,0.0020315
2231.57041,0.0020268
2230.60604,0.0020221
2229.64166,0.0020174
2228.67728,0.0020126
2227.71290,0.0020079
2226.74853,0.0020032
2225.78415,0.0019985
2224.81977,0.0019938
2223.85539,0.0019890
2222.89101,0.0019843
2221.92664,0.0019796
2220.96226,0.0019749
2219.99788,0.0019702
2219.03350,0.0019654
2218.06912,0.0019607
2217.10475,0.0019560
2216.14037,0.0019513
2215.17599,0.0019466
2214.21161,0.0019419
2213.24724,0.0019371
2212.28286,0.0019324
2211.31848,0.0019277
2210.35410,0.0019230
2209.38972,0.0019183
2208.42535,0.0019135
2207.46097,0.0019088
2206.49659,0.0019041
2205.53221,0.0018994
2204.56783,0.0018947
2203.60346,0.0018899
2202.63908,0.0018852
2201.67470,0.0018805
2200.71032,0.0018758
2199.74594,0.0018711
2198.78157,0.0018664
2197.81719,0.0018616
2196.85281,0.0018569
2195.88843,0.0018522
2194.92406,0.0018475
2193.95968,0.0018428
2192.99530,0.0018380
2192.03092,0.0018333
2191.06654,0.0018286
2190.10217,0.0018239
2189.13779,0.0018192
2188.17341,0.0018144
2187.20903,0.0018097
2186.24465,0.0018050
2185.28028,0.0018003
2184.31590,0.0017956
2183.35152,0.0017909
2182.38714,0.0017861
2181.42276,0.0017814
2180.45839,0.0017767
2179.49401,0.0017720
2178.52963,0.0017673
2177.56525,0.0017625
2176.60088,0.0017578
2175.63650,0.0017531
2174.67212,0.0017484
2173.70774,0.0017437
2172.74336,0.0017389
2171.77899,0.0017342
2170.81461,0.0017295
2169.85023,0.0017248
2168.88585,0.0017201
2167.92147,0.0017154
2166.95710,0.0017106
2165.99272,0.0017059
2165.02834,0.0017012
2164.06396,0.0016965
2163.09959,0.0016918
2162.13521,0.0016870
2161.17083,0.0016823
2160.20645,0.0016776
2159.24207,0.0016729
2158.27770,0.0016682
2157.31332,0.0016634
2156.34894,0.0016587
2155.38456,0.0016540
2154.42018,0.0016493
2153.45581,0.0016446
2152.49143,0.0016399
2151.52705,0.0016351
2150.56267,0.0016304
2149.59829,0.0016257
2148.63392,0.0016210
2147.66954,0.0016163
2146.70516,0.0016115
2145.74078,0.0016068
2144.77641,0.0016021
2143.81203,0.0015974
2142.84765,0.0015927
2141.88327,0.0015879
2140.91889,0.0015832
2139.95452,0.0015785
2138.99014,0.0015738
2138.02576,0.0015691
2137.06138,0.0015643
2136.09700,0.0015596
2135.13263,0.0015549
2134.16825,0.0015502
2133.20387,0.0015455
2132.23949,0.0015408
2131.27512,0.0015360
2130.31074,0.0015313
2129.34636,0.0015266
2128.38198,0.0015219
2127.41760,0.0015172
2126.45323,0.0015124
2125.48885,0.0015077
2124.52447,0.0015030
2123.56009,0.0014983
2122.59571,0.0014936
2121.63134,0.0014888
2120.66696,0.0014841
2119.70258,0.0014794
2118.73820,0.0014747
2117.77382,0.0014700
2116.80945,0.0014653
2115.84507,0.0014605
2114.88069,0.0014558
2113.91631,0.0014511
2112.95194,0.0014464
2111.98756,0.0014417
2111.02318,0.0014369
2110.05880,0.0014322
2109.09442,0.0014275
2108.13005,0.0014228
2107.16567,0.0014181
2106.20129,0.0014133
2105.23691,0.0014086
2104.27253,0.0014039
2103.30816,0.0013992
2102.34378,0.0013945
2101.37940,0.0013898
2100.41502,0.0013850
2099.45065,0.0013803
2098.48627,0.0013756
2097.52189,0.0013709
2096.55751,0.0013662
2095.59313,0.0013614
2094.62876,0.0013567
2093.66438,0.0013520
2092.70000,0.0013473
2091.73562,0.0013426
2090.77124,0.0013378
2089.80687,0.0013331
2088.84249,0.0013284
2087.87811,0.0013237
2086.91373,0.0013190
2085.94935,0.0013143
2084.98498,0.0013095
2084.02060,0.0013048
2083.05622,0.0013001
2082.09184,0.0012954
2081.12747,0.0012907
2080.16309,0.0012859
2079.19871,0.0012812
2078.23433,0.0012765
2077.26995,0.0012718
2076.30558,0.0012671
2075.34120,0.0012623
2074.37682,0.0012576
2073.41244,0.0012529
2072.44806,0.0012482
2071.48369,0.0012435
2070.51931,0.0012388
2069.55493,0.0012340
2068.59055,0.0012293
2067.62618,0.0012246
2066.66180,0.0012199
2065.69742,0.0012152
2064.73304,0.0012104
2063.76866,0.0012057
2062.80429,0.0012010
2061.83991,0.0011963
2060.87553,0.0011916
2059.91115,0.0011868
2058.94677,0.0011821
2057.98240,0.0011774
2057.01802,0.0011727
2056.05364,0.0011680
2055.08926,0.0011633
2054.12488,0.0011585
2053.16051,0.0011538
2052.19613,0.0011491
2051.23175,0.0011444
2050.26737,0.0011397
2049.30300,0.0011349
2048.33862,0.0011302
2047.37424,0.0011255
2046.40986,0.0011208
2045.44548,0.0011161
2044.48111,0.0011113
2043.51673,0.0011066
2042.55235,0.0011019
2041.58797,0.0010972
2040.62359,0.0010925
2039.65922,0.0010878
2038.69484,0.0010830
2037.73046,0.0010783
2036.76608,0.0010736
2035.80171,0.0010689
2034.83733,0.0010642
2033.87295,0.0010594
2032.90857,0.0010547
2031.94419,0.0010500
2030.97982,0.0010453
2030.01544,0.0010406
2029.05106,0.0010358
2028.08668,0.0010311
2027.12230,0.0010264
2026.15793,0.0010217
2025.19355,0.0010170
2024.22917,0.0010123
2023.26479,0.0010075
2022.30041,0.0010028
2021.33604,0.0009981
2020.37166,0.0009934
2019.40728,0.0009887
2018.44290,0.0009839
2017.47853,0.0009792
2016.51415,0.0009745
2015.54977,0.0009698
2014.58539,0.0009651
2013.62101,0.0009603
2012.65664,0.0009556
2011.69226,0.0009509
2010.72788,0.0009462
2009.76350,0.0009415
2008.79912,0.0009368
2007.83475,0.0009320
2006.87037,0.0009273
2005.90599,0.0009226
2004.94161,0.0009179
2003.97724,0.0009132
2003.01286,0.0009084
2002.04848,0.0009037
2001.08410,0.0008990
2000.11972,0.0008943
1999.15535,0.0008896
1998.19097,0.0008848
1997.22659,0.0008801
1996.26221,0.0008754
1995.29783,0.0008707
1994.33346,0.0008660
1993.36908,0.0008613
1992.40470,0.0008565
1991.44032,0.0008518
1990.47594,0.0008471
1989.51157,0.0008424
1988.54719,0.0008377
1987.58281,0.0008329
1986.61843,0.0008282
1985.65406,0.0008235
1984.68968,0.0008188
1983.72530,0.0008141
1982.76092,0.0008093
1981.79654,0.0008046
1980.83217,0.0007999
1979.86779,0.0007952
1978.90341,0.0007905
1977.93903,0.0007858
1976.97465,0.0007810
1976.01028,0.0007763
1975.04590,0.0007716
1974.08152,0.0007669
1973.11714,0.0007622
1972.15276,0.0007574
1971.18839,0.0007527
1970.22401,0.0007480
1969.25963,0.0007433
1968.29525,0.0007386
1967.33088,0.0007338
1966.36650,0.0007291
1965.40212,0.0007244
1964.43774,0.0007197
1963.47336,0.0007150
1962.50899,0.0007103
1961.54461,0.0007055
1960.58023,0.0007008
1959.61585,0.0006961
1958.65147,0.0006914
1957.68710,0.0006867
1956.72272,0.0006819
1955.75834,0.0006772
1954.79396,0.0006725
1953.82959,0.0006678
1952.86521,0.0006631
1951.90083,0.0006583
1950.93645,0.0006536
1949.97207,0.0006489
1949.00770,0.0006442
1948.04332,0.0006395
1947.07894,0.0006348
1946.11456,0.0006300
1945.15018,0.0006253
1944.18581,0.0006206
1943.22143,0.0006159
1942.25705,0.0006112
1941.29267,0.0006064
1940.32829,0.0006017
1939.36392,0.0005970
1938.39954,0.0005923
1937.43516,0.0005876
1936.47078,0.0005828
1935.50641,0.0005781
1934.54203,0.0005734
1933.57765,0.0005687
1932.61327,0.0005640
1931.64889,0.0005593
1930.68452,0.0005545
1929.72014,0.0005498
1928.75576,0.0005451
1927.79138,0.0005404
1926.82700,0.0005357
1925.86263,0.0005309
1924.89825,0.0005262
1923.93387,0.0005215
1922.96949,0.0005168
1922.00512,0.0005121
1921.04074,0.0005073
1920.07636,0.0005026
1919.11198,0.0004979
1918.14760,0.0004932
1917.18323,0.0004885
1916.21885,0.0004838
1915.25447,0.0004790
1914.29009,0.0004743
1913.32571,0.0004696
1912.36134,0.0004649
1911.39696,0.0004602
1910.43258,0.0004554
1909.46820,0.0004507
1908.50382,0.0004460
1907.53945,0.0004413
1906.57507,0.0004366
1905.61069,0.0004318
1904.64631,0.0004271
1903.68194,0.0004224
1902.71756,0.0004177
1901.75318,0.0004130
1900.78880,0.0004083
1899.82442,0.0004035
1898.86005,0.0003988
1897.89567,0.0003941
1896.93129,0.0003894
1895.96691,0.0003847
1895.00253,0.0003799
1894.03816,0.0003752
1893.07378,0.0003705
1892.10940,0.0003658
1891.14502,0.0003611
1890.18065,0.0003563
1889.21627,0.0003516
1888.25189,0.0003469
1887.28751,0.0003422
1886.32313,0.0003255
1885.35876,0.0003193
1884.39438,0.0003215
1883.43000,0.0003437
1882.46562,0.0003625
1881.50124,0.0003906
1880.53687,0.0004151
1879.57249,0.0004165
1878.60811,0.0004260
1877.64373,0.0004393
1876.67935,0.0004383
1875.71498,0.0003973
1874.75060,0.0003589
1873.78622,0.0003978
1872.82184,0.0004615
1871.85747,0.0005290
1870.89309,0.0005889
1869.92871,0.0006656
1868.96433,0.0006906
1867.99995,0.0006277
1867.03558,0.0005489
1866.07120,0.0004616
1865.10682,0.0003787
1864.14244,0.0002961
1863.17806,0.0002508
1862.21369,0.0002776
1861.24931,0.0003178
1860.28493,0.0003520
1859.32055,0.0004038
1858.35618,0.0004660
1857.39180,0.0004927
1856.42742,0.0005070
1855.46304,0.0005173
1854.49866,0.0005047
1853.53429,0.0005242
1852.56991,0.0005579
1851.60553,0.0005620
1850.64115,0.0005463
1849.67677,0.0005360
1848.71240,0.0005501
1847.74802,0.0005757
1846.78364,0.0006100
1845.81926,0.0006578
1844.85488,0.0007158
1843.89051,0.0007283
1842.92613,0.0006952
1841.96175,0.0006923
1840.99737,0.0006926
1840.03300,0.0006613
1839.06862,0.0006224
1838.10424,0.0006058
1837.13986,0.0005832
1836.17548,0.0005034
1835.21111,0.0004273
1834.24673,0.0003956
1833.28235,0.0004024
1832.31797,0.0004309
1831.35359,0.0004512
1830.38922,0.0005097
1829.42484,0.0006062
1828.46046,0.0007027
1827.49608,0.0007935
1826.53171,0.0008341
1825.56733,0.0007956
1824.60295,0.0007033
1823.63857,0.0006041
1822.67419,0.0005203
1821.70982,0.0004581
1820.74544,0.0004056
1819.78106,0.0003447
1818.81668,0.0003237
1817.85230,0.0003544
1816.88793,0.0003936
1815.92355,0.0004389
1814.95917,0.0004881
1813.99479,0.0005265
1813.03041,0.0005532
1812.06604,0.0005759
1811.10166,0.0005994
1810.13728,0.0006115
1809.17290,0.0005850
1808.20853,0.0005323
1807.24415,0.0005092
1806.27977,0.0005219
1805.31539,0.0005413
1804.35101,0.0005658
1803.38664,0.0006046
1802.42226,0.0006401
1801.45788,0.0006707
1800.49350,0.0007029
1799.52912,0.0006782
1798.56475,0.0006011
1797.60037,0.0005529
1796.63599,0.0005406
1795.67161,0.0005570
1794.70724,0.0005972
1793.74286,0.0006414
1792.77848,0.0006802
1791.81410,0.0006988
1790.84972,0.0006939
1789.88535,0.0006839
1788.92097,0.0006771
1787.95659,0.0006392
1786.99221,0.0005928
1786.02783,0.0006035
1785.06346,0.0006201
1784.09908,0.0006231
1783.13470,0.0006428
1782.17032,0.0006354
1781.20594,0.0006027
1780.24157,0.0005565
1779.27719,0.0004876
1778.31281,0.0004586
1777.34843,0.0005163
1776.38406,0.0006316
1775.41968,0.0007537
1774.45530,0.0008593
1773.49092,0.0009591
1772.52654,0.0010564
1771.56217,0.0011160
1770.59779,0.0011081
1769.63341,0.0010601
1768.66903,0.0009653
1767.70465,0.0008416
1766.74028,0.0007958
1765.77590,0.0008320
1764.81152,0.0008772
1763.84714,0.0008847
1762.88276,0.0008651
1761.91839,0.0008908
1760.95401,0.0009413
1759.98963,0.0009667
1759.02525,0.0009769
1758.06088,0.0009608
1757.09650,0.0009572
1756.13212,0.0010492
1755.16774,0.0012185
1754.20336,0.0013945
1753.23899,0.0015640
1752.27461,0.0017235
1751.31023,0.0018658
1750.34585,0.0019966
1749.38147,0.0020895
1748.41710,0.0021403
1747.45272,0.0021480
1746.48834,0.0020895
1745.52396,0.0020543
1744.55959,0.0021234
1743.59521,0.0022101
1742.63083,0.0022735
1741.66645,0.0023149
1740.70207,0.0022918
1739.73770,0.0022737
1738.77332,0.0023558
1737.80894,0.0024841
1736.84456,0.0025700
1735.88018,0.0025846
1734.91581,0.0025533
1733.95143,0.0025187
1732.98705,0.0024822
1732.02267,0.0023850
1731.05829,0.0022185
1730.09392,0.0020073
1729.12954,0.0017840
1728.16516,0.0016526
1727.20078,0.0016262
1726.23641,0.0015956
1725.27203,0.0015130
1724.30765,0.0014127
1723.34327,0.0013851
1722.37889,0.0014581
1721.41452,0.0015494
1720.45014,0.0016378
1719.48576,0.0017562
1718.52138,0.0018581
1717.55700,0.0018983
1716.59263,0.0018738
1715.62825,0.0017852
1714.66387,0.0016516
1713.69949,0.0014721
1712.73512,0.0012834
1711.77074,0.0011876
1710.80636,0.0012042
1709.84198,0.0012433
1708.87760,0.0013111
1707.91323,0.0013980
1706.94885,0.0013888
1705.98447,0.0013914
1705.02009,0.0015361
1704.05571,0.0017206
1703.09134,0.0018436
1702.12696,0.0018705
1701.16258,0.0019473
1700.19820,0.0021225
1699.23382,0.0022658
1698.26945,0.0023283
1697.30507,0.0022970
1696.34069,0.0021557
1695.37631,0.0019571
1694.41194,0.0018574
1693.44756,0.0018756
1692.48318,0.0018487
1691.51880,0.0017005
1690.55442,0.0015674
1689.59005,0.0017122
1688.62567,0.0020280
1687.66129,0.0022945
1686.69691,0.0024886
1685.73253,0.0026327
1684.76816,0.0027462
1683.80378,0.0028114
1682.83940,0.0028189
1681.87502,0.0027579
1680.91065,0.0026549
1679.94627,0.0025795
1678.98189,0.0025912
1678.01751,0.0027202
1677.05313,0.0028562
1676.08876,0.0029339
1675.12438,0.0029873
1674.16000,0.0030884
1673.19562,0.0032085
1672.23124,0.0032734
1671.26687,0.0032993
1670.30249,0.0032790
1669.33811,0.0032597
1668.37373,0.0033042
1667.40935,0.0033553
1666.44498,0.0033582
1665.48060,0.0033336
1664.51622,0.0033130
1663.55184,0.0033139
1662.58747,0.0033576
1661.62309,0.0033773
1660.65871,0.0033321
1659.69433,0.0032375
1658.72995,0.0031828
1657.76558,0.0033411
1656.80120,0.0036565
1655.83682,0.0039670
1654.87244,0.0041604
1653.90806,0.0042499
1652.94369,0.0042593
1651.97931,0.0041789
1651.01493,0.0040866
1650.05055,0.0039539
1649.08618,0.0037250
1648.12180,0.0034812
1647.15742,0.0033704
1646.19304,0.0034320
1645.22866,0.0034868
1644.26429,0.0034486
1643.29991,0.0033537
1642.33553,0.0032307
1641.37115,0.0031250
1640.40677,0.0031701
1639.44240,0.0033617
1638.47802,0.0035402
1637.51364,0.0036461
1636.54926,0.0037075
1635.58488,0.0037345
1634.62051,0.0037121
1633.65613,0.0036600
1632.69175,0.0035831
1631.72737,0.0034929
1630.76300,0.0034009
1629.79862,0.0033421
1628.83424,0.0034166
1627.86986,0.0035272
1626.90548,0.0035999
1625.94111,0.0036544
1624.97673,0.0036740
1624.01235,0.0036645
1623.04797,0.0035988
1622.08359,0.0036015
1621.11922,0.0037275
1620.15484,0.0038578
1619.19046,0.0039548
1618.22608,0.0040143
1617.26171,0.0040777
1616.29733,0.0041193
1615.33295,0.0041144
1614.36857,0.0040800
1613.40419,0.0040017
1612.43982,0.0038839
1611.47544,0.0037637
1610.51106,0.0037543
1609.54668,0.0038141
1608.58230,0.0038369
1607.61793,0.0038474
1606.65355,0.0038590
1605.68917,0.0038743
1604.72479,0.0038780
1603.76041,0.0038756
1602.79604,0.0038781
1601.83166,0.0038703
1600.86728,0.0038478
1599.90290,0.0038110
1598.93853,0.0037624
1597.97415,0.0037031
1597.00977,0.0036432
1596.04539,0.0035826
1595.08101,0.0035275
1594.11664,0.0034832
1593.15226,0.0034381
1592.18788,0.0033891
1591.22350,0.0033442
1590.25912,0.0033008
1589.29475,0.0032441
1588.33037,0.0031836
1587.36599,0.0031182
1586.40161,0.0030474
1585.43724,0.0029731
1584.47286,0.0029095
1583.50848,0.0028417
1582.54410,0.0027388
1581.57972,0.0027221
1580.61535,0.0028263
1579.65097,0.0029374
1578.68659,0.0030120
1577.72221,0.0030407
1576.75783,0.0030162
1575.79346,0.0029389
1574.82908,0.0028594
1573.86470,0.0027812
1572.90032,0.0026691
1571.93594,0.0024988
1570.97157,0.0023138
1570.00719,0.0022619
1569.04281,0.0022876
1568.07843,0.0022595
1567.11406,0.0021568
1566.14968,0.0020012
1565.18530,0.0019061
1564.22092,0.0019478
1563.25654,0.0021738
1562.29217,0.0024824
1561.32779,0.0026872
1560.36341,0.0027797
1559.39903,0.0028436
1558.43465,0.0028853
1557.47028,0.0028334
1556.50590,0.0026608
1555.54152,0.0023925
1554.57714,0.0021218
1553.61276,0.0019596
1552.64839,0.0018957
1551.68401,0.0018992
1550.71963,0.0019120
1549.75525,0.0018875
1548.79088,0.0018475
1547.82650,0.0018664
1546.86212,0.0019545
1545.89774,0.0020239
1544.93336,0.0021471
1543.96899,0.0024115
1543.00461,0.0026976
1542.04023,0.0028930
1541.07585,0.0029563
1540.11147,0.0028949
1539.14710,0.0027943
1538.18272,0.0026869
1537.21834,0.0025024
1536.25396,0.0022945
1535.28959,0.0021022
1534.32521,0.0018954
1533.36083,0.0017953
1532.39645,0.0017917
1531.43207,0.0017612
1530.46770,0.0017257
1529.50332,0.0016827
1528.53894,0.0016134
1527.57456,0.0015816
1526.61018,0.0016482
1525.64581,0.0017849
1524.68143,0.0019140
1523.71705,0.0019538
1522.75267,0.0019414
1521.78829,0.0019468
1520.82392,0.0019279
1519.85954,0.0018919
1518.89516,0.0018411
1517.93078,0.0017447
1516.96641,0.0016193
1516.00203,0.0015086
1515.03765,0.0014725
1514.07327,0.0014674
1513.10889,0.0014159
1512.14452,0.0013757
1511.18014,0.0014811
1510.21576,0.0017011
1509.25138,0.0018815
1508.28700,0.0019720
1507.32263,0.0019789
1506.35825,0.0019378
1505.39387,0.0018313
1504.42949,0.0016578
1503.46512,0.0014618
1502.50074,0.0012256
1501.53636,0.0010612
1500.57198,0.0010629
1499.60760,0.0011674
1498.64323,0.0012772
1497.67885,0.0013108
1496.71447,0.0012927
1495.75009,0.0012844
1494.78571,0.0012938
1493.82134,0.0012784
1492.85696,0.0012543
1491.89258,0.0012466
1490.92820,0.0012252
1489.96382,0.0012436
1488.99945,0.0012733
1488.03507,0.0012422
1487.07069,0.0011839
1486.10631,0.0011144
1485.14194,0.0010530
1484.17756,0.0010257
1483.21318,0.0010127
1482.24880,0.0009968
1481.28442,0.0010136
1480.32005,0.0010633
1479.35567,0.0011117
1478.39129,0.0011882
1477.42691,0.0013216
1476.46253,0.0014955
1475.49816,0.0016566
1474.53378,0.0017738
1473.56940,0.0018594
1472.60502,0.0019125
1471.64065,0.0019115
1470.67627,0.0018945
1469.71189,0.0019277
1468.74751,0.0019499
1467.78313,0.0019434
1466.81876,0.0019578
1465.85438,0.0019782
1464.89000,0.0019890
1463.92562,0.0019462
1462.96124,0.0018903
1461.99687,0.0019507
1461.03249,0.0021066
1460.06811,0.0022616
1459.10373,0.0024028
1458.13935,0.0025342
1457.17498,0.0026002
1456.21060,0.0026030
1455.24622,0.0025360
1454.28184,0.0023766
1453.31747,0.0021918
1452.35309,0.0020176
1451.38871,0.0018992
1450.42433,0.0019007
1449.45995,0.0019538
1448.49558,0.0019750
1447.53120,0.0019713
1446.56682,0.0019642
1445.60244,0.0019591
1444.63806,0.0019610
1443.67369,0.0019223
1442.70931,0.0018687
1441.74493,0.0019192
1440.78055,0.0020378
1439.81618,0.0021381
1438.85180,0.0022211
1437.88742,0.0022839
1436.92304,0.0023054
1435.95866,0.0022905
1434.99429,0.0022695
1434.02991,0.0022468
1433.06553,0.0021944
1432.10115,0.0021108
1431.13677,0.0020542
1430.17240,0.0020755
1429.20802,0.0021165
1428.24364,0.0021326
1427.27926,0.0021450
1426.31488,0.0021275
1425.35051,0.0020935
1424.38613,0.0021386
1423.42175,0.0022765
1422.45737,0.0024380
1421.49300,0.0025616
1420.52862,0.0026458
1419.56424,0.0026969
1418.59986,0.0027124
1417.63548,0.0027085
1416.67111,0.0026797
1415.70673,0.0026171
1414.74235,0.0025198
1413.77797,0.0024469
1412.81359,0.0024616
1411.84922,0.0025022
1410.88484,0.0025291
1409.92046,0.0025650
1408.95608,0.0026070
1407.99171,0.0026409
1407.02733,0.0026672
1406.06295,0.0026857
1405.09857,0.0027000
1404.13419,0.0027362
1403.16982,0.0027838
1402.20544,0.0028143
1401.24106,0.0028143
1400.27668,0.0027985
1399.31230,0.0028180
1398.34793,0.0028693
1397.38355,0.0029070
1396.41917,0.0029144
1395.45479,0.0029055
1394.49041,0.0028752
1393.52604,0.0028380
1392.56166,0.0028533
1391.59728,0.0028895
1390.63290,0.0028876
1389.66853,0.0028495
1388.70415,0.0028106
1387.73977,0.0027979
1386.77539,0.0027778
1385.81101,0.0027357
1384.84664,0.0026883
1383.88226,0.0026430
1382.91788,0.0025925
1381.95350,0.0025498
1380.98912,0.0025427
1380.02475,0.0025411
1379.06037,0.0025299
1378.09599,0.0025149
1377.13161,0.0024883
1376.16724,0.0024660
1375.20286,0.0024496
1374.23848,0.0024316
1373.27410,0.0024130
1372.30972,0.0023941
1371.34535,0.0023715
1370.38097,0.0023359
1369.41659,0.0022817
1368.45221,0.0022353
1367.48783,0.0022239
1366.52346,0.0022229
1365.55908,0.0022151
1364.59470,0.0021994
1363.63032,0.0021806
1362.66594,0.0021627
1361.70157,0.0021217
1360.73719,0.0020666
1359.77281,0.0020160
1358.80843,0.0019593
1357.84406,0.0019079
1356.87968,0.0018857
1355.91530,0.0018835
1354.95092,0.0018787
1353.98654,0.0018724
1353.02217,0.0018640
1352.05779,0.0018572
1351.09341,0.0018470
1350.12903,0.0018190
1349.16465,0.0017920
1348.20028,0.0017704
1347.23590,0.0017446
1346.27152,0.0017212
1345.30714,0.0016984
1344.34276,0.0016771
1343.37839,0.0016625
1342.41401,0.0016587
1341.44963,0.0016629
1340.48525,0.0016587
1339.52088,0.0016490
1338.55650,0.0016443
1337.59212,0.0016323
1336.62774,0.0016056
1335.66336,0.0015681
1334.69899,0.0015259
1333.73461,0.0014901
1332.77023,0.0014626
1331.80585,0.0014396
1330.84147,0.0014293
1329.87710,0.0014308
1328.91272,0.0014282
1327.94834,0.0014228
1326.98396,0.0014204
1326.01959,0.0014174
1325.05521,0.0014166
1324.09083,0.0014240
1323.12645,0.0014343
1322.16207,0.0014419
1321.19770,0.0014508
1320.23332,0.0014551
1319.26894,0.0014617
1318.30456,0.0014810
1317.34018,0.0014956
1316.37581,0.0014956
1315.41143,0.0014863
1314.44705,0.0014749
1313.48267,0.0014694
1312.51829,0.0014740
1311.55392,0.0014799
1310.58954,0.0014826
1309.62516,0.0014839
1308.66078,0.0014732
1307.69641,0.0014672
1306.73203,0.0014684
1305.76765,0.0014502
1304.80327,0.0014183
1303.83889,0.0013817
1302.87452,0.0013496
1301.91014,0.0013302
1300.94576,0.0013205
1299.98138,0.0013193
1299.01700,0.0013261
1298.05263,0.0013420
1297.08825,0.0013502
1296.12387,0.0013456
1295.15949,0.0013374
1294.19512,0.0013254
1293.23074,0.0013126
1292.26636,0.0013000
1291.30198,0.0012924
1290.33760,0.0012826
1289.37323,0.0012653
1288.40885,0.0012557
1287.44447,0.0012663
1286.48009,0.0012901
1285.51571,0.0012931
1284.55134,0.0012810
1283.58696,0.0012863
1282.62258,0.0012966
1281.65820,0.0013039
1280.69382,0.0013135
1279.72945,0.0013163
1278.76507,0.0013088
1277.80069,0.0013015
1276.83631,0.0013110
1275.87194,0.0013283
1274.90756,0.0013408
1273.94318,0.0013491
1272.97880,0.0013552
1272.01442,0.0013762
1271.05005,0.0014067
1270.08567,0.0014388
1269.12129,0.0014754
1268.15691,0.0014993
1267.19253,0.0015036
1266.22816,0.0014981
1265.26378,0.0014915
1264.29940,0.0014816
1263.33502,0.0014751
1262.37065,0.0014739
1261.40627,0.0014662
1260.44189,0.0014649
1259.47751,0.0014623
1258.51313,0.0014570
1257.54876,0.0014610
1256.58438,0.0014475
1255.62000,0.0014126
1254.65562,0.0013777
1253.69124,0.0013562
1252.72687,0.0013445
1251.76249,0.0013366
1250.79811,0.0013347
1249.83373,0.0013362
1248.86935,0.0013497
1247.90498,0.0013715
1246.94060,0.0013965
1245.97622,0.0014221
1245.01184,0.0014372
1244.04747,0.0014482
1243.08309,0.0014617
1242.11871,0.0014825
1241.15433,0.0015047
1240.18995,0.0015235
1239.22558,0.0015408
1238.26120,0.0015502
1237.29682,0.0015587
1236.33244,0.0015670
1235.36806,0.0015704
1234.40369,0.0015684
1233.43931,0.0015660
1232.47493,0.0015721
1231.51055,0.0015843
1230.54618,0.0016114
1229.58180,0.0016506
1228.61742,0.0016819
1227.65304,0.0017011
1226.68866,0.0017085
1225.72429,0.0017130
1224.75991,0.0017207
1223.79553,0.0017230
1222.83115,0.0017218
1221.86677,0.0017345
1220.90240,0.0017652
1219.93802,0.0017977
1218.97364,0.0018226
1218.00926,0.0018367
1217.04488,0.0018395
1216.08051,0.0018328
1215.11613,0.0018207
1214.15175,0.0018163
1213.18737,0.0018116
1212.22300,0.0017962
1211.25862,0.0017898
1210.29424,0.0018045
1209.32986,0.0018344
1208.36548,0.0018643
1207.40111,0.0018795
1206.43673,0.0018894
1205.47235,0.0019137
1204.50797,0.0019450
1203.54359,0.0019768
1202.57922,0.0020217
1201.61484,0.0020638
1200.65046,0.0020913
1199.68608,0.0021184
1198.72171,0.0021437
1197.75733,0.0021674
1196.79295,0.0021860
1195.82857,0.0021914
1194.86419,0.0022037
1193.89982,0.0022470
1192.93544,0.0023022
1191.97106,0.0023416
1191.00668,0.0023747
1190.04230,0.0024018
1189.07793,0.0024168
1188.11355,0.0024230
1187.14917,0.0024208
1186.18479,0.0024290
1185.22041,0.0024458
1184.25604,0.0024628
1183.29166,0.0025013
1182.32728,0.0025630
1181.36290,0.0026227
1180.39853,0.0026617
1179.43415,0.0026821
1178.46977,0.0026902
1177.50539,0.0026903
1176.54101,0.0026820
1175.57664,0.0026684
1174.61226,0.0026685
1173.64788,0.0026821
1172.68350,0.0027073
1171.71912,0.0027496
1170.75475,0.0027996
1169.79037,0.0028443
1168.82599,0.0028692
1167.86161,0.0028840
1166.89724,0.0029096
1165.93286,0.0029414
1164.96848,0.0029628
1164.00410,0.0029733
1163.03972,0.0029907
1162.07535,0.0030156
1161.11097,0.0030468
1160.14659,0.0030884
1159.18221,0.0031220
1158.21783,0.0031325
1157.25346,0.0031235
1156.28908,0.0031190
1155.32470,0.0031387
1154.36032,0.0031660
1153.39594,0.0031770
1152.43157,0.0031710
1151.46719,0.0031682
1150.50281,0.0031803
1149.53843,0.0032069
1148.57406,0.0032440
1147.60968,0.0032816
1146.64530,0.0033078
1145.68092,0.0033122
1144.71654,0.0033142
1143.75217,0.0033419
1142.78779,0.0033755
1141.82341,0.0033794
1140.85903,0.0033636
1139.89465,0.0033578
1138.93028,0.0033580
1137.96590,0.0033485
1137.00152,0.0033405
1136.03714,0.0033535
1135.07276,0.0033695
1134.10839,0.0033742
1133.14401,0.0033954
1132.17963,0.0034326
1131.21525,0.0034610
1130.25088,0.0034638
1129.28650,0.0034474
1128.32212,0.0034439
1127.35774,0.0034527
1126.39336,0.0034592
1125.42899,0.0034668
1124.46461,0.0034896
1123.50023,0.0035268
1122.53585,0.0035537
1121.57147,0.0035731
1120.60710,0.0035887
1119.64272,0.0035893
1118.67834,0.0035749
1117.71396,0.0035492
1116.74959,0.0035358
1115.78521,0.0035402
1114.82083,0.0035315
1113.85645,0.0035060
1112.89207,0.0035123
1111.92770,0.0035650
1110.96332,0.0036112
1109.99894,0.0036372
1109.03456,0.0036646
1108.07018,0.0036968
1107.10581,0.0037335
1106.14143,0.0037559
1105.17705,0.0037604
1104.21267,0.0037604
1103.24829,0.0037386
1102.28392,0.0037081
1101.31954,0.0037030
1100.35516,0.0037001
1099.39078,0.0036811
1098.42641,0.0036685
1097.46203,0.0036693
1096.49765,0.0036811
1095.53327,0.0036911
1094.56889,0.0036793
1093.60452,0.0036581
1092.64014,0.0036445
1091.67576,0.0036353
1090.71138,0.0036222
1089.74700,0.0035970
1088.78263,0.0035619
1087.81825,0.0035425
1086.85387,0.0035516
1085.88949,0.0035704
1084.92512,0.0035878
1083.96074,0.0035879
1082.99636,0.0035732
1082.03198,0.0035790
1081.06760,0.0036037
1080.10323,0.0036318
1079.13885,0.0036577
1078.17447,0.0036651
1077.21009,0.0036489
1076.24571,0.0036236
1075.28134,0.0036043
1074.31696,0.0035844
1073.35258,0.0035401
1072.38820,0.0034734
1071.42382,0.0034340
1070.45945,0.0034316
1069.49507,0.0034345
1068.53069,0.0034487
1067.56631,0.0034742
1066.60194,0.0035037
1065.63756,0.0035375
1064.67318,0.0035699
1063.70880,0.0035860
1062.74442,0.0035694
1061.78005,0.0035312
1060.81567,0.0034964
1059.85129,0.0034913
1058.88691,0.0034842
1057.92253,0.0034507
1056.95816,0.0034217
1055.99378,0.0033834
1055.02940,0.0033490
1054.06502,0.0033369
1053.10065,0.0033245
1052.13627,0.0032993
1051.17189,0.0032529
1050.20751,0.0032062
1049.24313,0.0031733
1048.27876,0.0031638
1047.31438,0.0031577
1046.35000,0.0031239
1045.38562,0.0030827
1044.42124,0.0030306
1043.45687,0.0029746
1042.49249,0.0029306
1041.52811,0.0028927
1040.56373,0.0028504
1039.59935,0.0027836
1038.63498,0.0027188
1037.67060,0.0026747
1036.70622,0.0026471
1035.74184,0.0026260
1034.77747,0.0025934
1033.81309,0.0025685
1032.84871,0.0025466
1031.88433,0.0025170
1030.91995,0.0024987
1029.95558,0.0024915
1028.99120,0.0024774
1028.02682,0.0024427
1027.06244,0.0024007
1026.09806,0.0023531
1025.13369,0.0022918
1024.16931,0.0022287
1023.20493,0.0021671
1022.24055,0.0021088
1021.27618,0.0020504
1020.31180,0.0019973
1019.34742,0.0019689
1018.38304,0.0019681
1017.41866,0.0019715
1016.45429,0.0019541
1015.48991,0.0019442
1014.52553,0.0019477
1013.56115,0.0019294
1012.59677,0.0018987
1011.63240,0.0018566
1010.66802,0.0017971
1009.70364,0.0017370
1008.73926,0.0016894
1007.77488,0.0016591
1006.81051,0.0016304
1005.84613,0.0015896
1004.88175,0.0015443
1003.91737,0.0015279
1002.95300,0.0015254
1001.98862,0.0014930
1001.02424,0.0014590
1000.05986,0.0014316
999.09548,0.0013894
998.13111,0.0013523
997.16673,0.0013430
996.20235,0.0013462
995.23797,0.0013408
994.27359,0.0013462
993.30922,0.0013602
992.34484,0.0013660
991.38046,0.0013587
990.41608,0.0013421
989.45171,0.0013368
988.48733,0.0013212
987.52295,0.0012926
986.55857,0.0012928
985.59419,0.0013273
984.62982,0.0013628
983.66544,0.0013826
982.70106,0.0014079
981.73668,0.0014297
980.77230,0.0014316
979.80793,0.0014308
978.84355,0.0014377
977.87917,0.0014319
976.91479,0.0014042
975.95041,0.0013984
974.98604,0.0014117
974.02166,0.0014122
973.05728,0.0013975
972.09290,0.0013724
971.12853,0.0013649
970.16415,0.0013763
969.19977,0.0014018
968.23539,0.0014464
967.27101,0.0014986
966.30664,0.0015494
965.34226,0.0015815
964.37788,0.0016027
963.41350,0.0015962
962.44912,0.0015443
961.48475,0.0014829
960.52037,0.0014088
959.55599,0.0013250
958.59161,0.0012610
957.62724,0.0012223
956.66286,0.0012041
955.69848,0.0011995
954.73410,0.0012122
953.76972,0.0012258
952.80535,0.0012266
951.84097,0.0012154
950.87659,0.0012075
949.91221,0.0012317
948.94783,0.0012460
947.98346,0.0012219
947.01908,0.0012128
946.05470,0.0012270
945.09032,0.0012205
944.12594,0.0011987
943.16157,0.0011978
942.19719,0.0012070
941.23281,0.0012095
940.26843,0.0012126
939.30406,0.0012164
938.33968,0.0012181
937.37530,0.0012079
936.41092,0.0011965
935.44654,0.0012055
934.48217,0.0012144
933.51779,0.0012101
932.55341,0.0012232
931.58903,0.0012589
930.62465,0.0012874
929.66028,0.0012956
928.69590,0.0012819
927.73152,0.0012600
926.76714,0.0012495
925.80276,0.0012354
924.83839,0.0012103
923.87401,0.0011861
922.90963,0.0011546
921.94525,0.0011260
920.98088,0.0011063
920.01650,0.0010744
919.05212,0.0010268
918.08774,0.0009660
917.12336,0.0009081
916.15899,0.0008733
915.19461,0.0008556
914.23023,0.0008339
913.26585,0.0008280
912.30147,0.0008623
911.33710,0.0008836
910.37272,0.0008815
909.40834,0.0008743
908.44396,0.0008591
907.47959,0.0008549
906.51521,0.0008310
905.55083,0.0007959
904.58645,0.0007885
903.62207,0.0008005
902.65770,0.0008139
901.69332,0.0008147
900.72894,0.0008115
899.76456,0.0007845
898.80018,0.0007400
897.83581,0.0006936
896.87143,0.0006467
895.90705,0.0006199
894.94267,0.0005960
893.97829,0.0005876
893.01392,0.0006062
892.04954,0.0006489
891.08516,0.0006990
890.12078,0.0007127
889.15641,0.0007085
888.19203,0.0007028
887.22765,0.0007098
886.26327,0.0007260
885.29889,0.0007175
884.33452,0.0006932
883.37014,0.0006808
882.40576,0.0006812
881.44138,0.0006641
880.47700,0.0006480
879.51263,0.0006382
878.54825,0.0006072
877.58387,0.0005701
876.61949,0.0005487
875.65512,0.0005516
874.69074,0.0005387
873.72636,0.0005046
872.76198,0.0004934
871.79760,0.0005094
870.83323,0.0005183
869.86885,0.0004973
868.90447,0.0004752
867.94009,0.0004487
866.97571,0.0004295
866.01134,0.0004361
865.04696,0.0004411
864.08258,0.0004370
863.11820,0.0004165
862.15382,0.0004211
861.18945,0.0004555
860.22507,0.0004676
859.26069,0.0004659
858.29631,0.0004528
857.33194,0.0004317
856.36756,0.0004109
855.40318,0.0004187
854.43880,0.0004673
853.47442,0.0005063
852.51005,0.0005332
851.54567,0.0005432
850.58129,0.0005163
849.61691,0.0004606
848.65253,0.0003893
847.68816,0.0003210
846.72378,0.0002535
845.75940,0.0002293
844.79502,0.0002534
843.83065,0.0002722
842.86627,0.0003075
841.90189,0.0003617
840.93751,0.0004248
839.97313,0.0004694
839.00876,0.0004618
838.04438,0.0004513
837.08000,0.0004478
836.11562,0.0004428
835.15124,0.0004595
834.18687,0.0004950
833.22249,0.0005061
832.25811,0.0004730
831.29373,0.0004700
830.32935,0.0005043
829.36498,0.0005311
828.40060,0.0005369
827.43622,0.0005082
826.47184,0.0004797
825.50747,0.0004599
824.54309,0.0004652
823.57871,0.0004968
822.61433,0.0004988
821.64995,0.0004782
820.68558,0.0004657
819.72120,0.0004915
818.75682,0.0005279
817.79244,0.0005312
816.82806,0.0005043
815.86369,0.0004422
814.89931,0.0003957
813.93493,0.0003783
812.97055,0.0003614
812.00618,0.0003416
811.04180,0.0003105
810.07742,0.0002985
809.11304,0.0002997
808.14866,0.0002994
807.18429,0.0003151
806.21991,0.0003360
805.25553,0.0003379
804.29115,0.0003346
803.32677,0.0003776
802.36240,0.0004174
801.39802,0.0004278
800.43364,0.0004744
799.46926,0.0005202
798.50488,0.0005354
797.54051,0.0005395
796.57613,0.0005301
795.61175,0.0005163
794.64737,0.0004943
793.68300,0.0004590
792.71862,0.0004317
791.75424,0.0004181
790.78986,0.0003936
789.82548,0.0003919
788.86111,0.0004136
787.89673,0.0004105
786.93235,0.0004392
785.96797,0.0005140
785.00359,0.0005743
784.03922,0.0005899
783.07484,0.0005740
782.11046,0.0005775
781.14608,0.0005855
780.18171,0.0005587
779.21733,0.0005020
778.25295,0.0004133
777.28857,0.0003060
776.32419,0.0002435
775.35982,0.0002483
774.39544,0.0002761
773.43106,0.0003127
772.46668,0.0003298
771.50230,0.0003150
770.53793,0.0003140
769.57355,0.0003035
768.60917,0.0002676
767.64479,0.0002297
766.68041,0.0001666
765.71604,0.0001312
764.75166,0.0001641
763.78728,0.0002025
762.82290,0.0002517
761.85853,0.0002973
760.89415,0.0002955
759.92977,0.0002751
758.96539,0.0002434
758.00101,0.0002053
757.03664,0.0001728
756.07226,0.0001337
755.10788,0.0000948
754.14350,0.0000983
753.17912,0.0001424
752.21475,0.0001866
751.25037,0.0002352
750.28599,0.0002710
749.32161,0.0002950
748.35724,0.0003122
747.39286,0.0003077
746.42848,0.0003126
745.46410,0.0003078
744.49972,0.0002951
743.53535,0.0003002
742.57097,0.0003002
741.60659,0.0003087
740.64221,0.0003392
739.67783,0.0003644
738.71346,0.0003359
737.74908,0.0002680
736.78470,0.0002184
735.82032,0.0002034
734.85594,0.0002250
733.89157,0.0002622
732.92719,0.0003272
731.96281,0.0004280
730.99843,0.0005084
730.03406,0.0005659
729.06968,0.0006274
728.10530,0.0006411
727.14092,0.0005483
726.17654,0.0004484
725.21217,0.0004372
724.24779,0.0004452
723.28341,0.0004647
722.31903,0.0005010
721.35465,0.0005240
720.39028,0.0005539
719.42590,0.0005536
718.46152,0.0005278
717.49714,0.0004980
716.53276,0.0004293
715.56839,0.0003414
714.60401,0.0003057
713.63963,0.0003513
712.67525,0.0004194
711.71088,0.0004793
710.74650,0.0005103
709.78212,0.0005095
708.81774,0.0005074
707.85336,0.0004824
706.88899,0.0004594
705.92461,0.0004582
704.96023,0.0004635
703.99585,0.0004832
703.03147,0.0005171
702.06710,0.0005645
701.10272,0.0006178
700.13834,0.0006590
699.17396,0.0006717
698.20959,0.0006726
697.24521,0.0006422
696.28083,0.0005978
695.31645,0.0006074
694.35207,0.0006414
693.38770,0.0006728
692.42332,0.0007080
691.45894,0.0007694
690.49456,0.0008411
689.53018,0.0009040
688.56581,0.0009666
687.60143,0.0009930
686.63705,0.0010130
685.67267,0.0010383
684.70829,0.0010701
683.74392,0.0010959
682.77954,0.0010905
681.81516,0.0010859
680.85078,0.0010740
679.88641,0.0010706
678.92203,0.0010640
677.95765,0.0010750
676.99327,0.0010795
676.02889,0.0010182
675.06452,0.0008043
674.10014,0.0003990
673.13576,0.0006363
672.17138,0.0016831
671.20700,0.0027069
670.24263,0.0034479
669.27825,0.0038801
668.31387,0.0040254
667.34949,0.0039357
666.38512,0.0035875
665.42074,0.0029693
664.45636,0.0020725
663.49198,0.0009663
662.52760,0.0000574
661.56323,0.0000907
660.59885,0.0005906
659.63447,0.0007686
658.67009,0.0008210
657.70571,0.0008603
656.74134,0.0009017
655.77696,0.0009276
654.81258,0.0008780
653.84820,0.0008349
652.88382,0.0008083
651.91945,0.0007916
650.95507,0.0007635
649.99069,0.0007484
649.02631,0.0007771
648.06194,0.0008262
647.09756,0.0008950
646.13318,0.0009581
645.16880,0.0010081
644.20442,0.0010110
643.24005,0.0009507
642.27567,0.0008916
641.31129,0.0008598
640.34691,0.0008064
639.38253,0.0007414
638.41816,0.0007222
637.45378,0.0007075
636.48940,0.0006712
635.52502,0.0006613
634.56065,0.0007056
633.59627,0.0007548
632.63189,0.0007723
631.66751,0.0007791
630.70313,0.0007245
629.73876,0.0007383
628.77438,0.0008619
627.81000,0.0009550
626.84562,0.0009223
625.88124,0.0004419
624.91687,0.0000376
623.95249,0.0002830
622.98811,0.0008245
622.02373,0.0014531
621.05935,0.0014917
620.09498,0.0005392
619.13060,-0.0001823
618.16622,-0.0003313
617.20184,-0.0006198
616.23747,-0.0011856
615.27309,-0.0022758
614.30871,-0.0035508
613.34433,-0.0043102
612.37995,-0.0046793
611.41558,-0.0049662
610.45120,-0.0052188
609.48682,-0.0059718
608.52244,-0.0066611
607.55806,-0.0059288
606.59369,-0.0045784
605.62931,-0.0033841
604.66493,-0.0022831
603.70055,-0.0015005
602.73618,-0.0006966
601.77180,-0.0001741
600.80742,-0.0000959
599.84304,-0.0000727
598.87866,-0.0000299
597.91429,-0.0000050
596.94991,0.0001427
595.98553,0.0004208
595.02115,0.0005688
594.05677,0.0006101
593.09240,0.0005353
592.12802,0.0004197
591.16364,0.0003403
590.19926,0.0001971
589.23488,0.0000710
588.27051,0.0000516
587.30613,0.0001611
586.34175,0.0002753
585.37737,0.0003337
584.41300,0.0004109
583.44862,0.0004661
582.48424,0.0005441
581.51986,0.0006640
580.55548,0.0007917
579.59111,0.0008704
578.62673,0.0008186
577.66235,0.0006897
576.69797,0.0005109
575.73359,0.0002874
574.76922,0.0001231
573.80484,0.0001278
572.84046,0.0002188
571.87608,0.0002818
570.91171,0.0003585
569.94733,0.0004922
568.98295,0.0006829
568.01857,0.0007937
567.05419,0.0007692
566.08982,0.0007236
565.12544,0.0006662
564.16106,0.0006089
563.19668,0.0006169
562.23230,0.0006847
561.26793,0.0007461
560.30355,0.0007675
559.33917,0.0007010
558.37479,0.0006016
557.41041,0.0005631
556.44604,0.0004451
555.48166,0.0002651
554.51728,0.0001480
553.55290,0.0000502
552.58853,0.0000121
551.62415,0.0000609
550.65977,0.0001808
549.69539,0.0003283
548.73101,0.0003808
547.76664,0.0003312
546.80226,0.0002877
545.83788,0.0002620
544.87350,0.0001748
543.90912,0.0000946
542.94475,0.0000741
541.98037,0.0000535
541.01599,0.0001240
540.05161,0.0002902
539.08724,0.0004107
538.12286,0.0004586
537.15848,0.0004440
536.19410,0.0004055
535.22972,0.0003751
534.26535,0.0003453
533.30097,0.0003487
532.33659,0.0003981
531.37221,0.0004406
530.40783,0.0004451
529.44346,0.0004737
528.47908,0.0005324
527.51470,0.0005583
526.55032,0.0005319
525.58594,0.0004603
524.62157,0.0004211
523.65719,0.0004298
522.69281,0.0004387
521.72843,0.0005001
520.76406,0.0006234
519.79968,0.0007528
518.83530,0.0008925
517.87092,0.0010306
516.90654,0.0010772
515.94217,0.0010207
514.97779,0.0009235
514.01341,0.0007931
513.04903,0.0006351
512.08465,0.0004634
511.12028,0.0003147
510.15590,0.0002619
509.19152,0.0003271
508.22714,0.0004167
507.26276,0.0004583
506.29839,0.0004824
505.33401,0.0004633
504.36963,0.0004516
503.40525,0.0005102
502.44088,0.0005130
501.47650,0.0004315
500.51212,0.0003264
499.54774,0.0001963
498.58336,0.0001083
497.61899,0.0000930
496.65461,0.0000468
495.69023,-0.0000438
494.72585,-0.0001005
493.76147,-0.0001176
492.79710,-0.0000765
491.83272,0.0000276
490.86834,0.0001417
489.90396,0.0002249
488.93959,0.0003058
487.97521,0.0004535
487.01083,0.0006125
486.04645,0.0007141
485.08207,0.0007790
484.11770,0.0007967
483.15332,0.0007537
482.18894,0.0006905
481.22456,0.0006544
480.26018,0.0006084
479.29581,0.0005199
478.33143,0.0004796
477.36705,0.0006224
476.40267,0.0008689
475.43829,0.0009767
474.47392,0.0009654
473.50954,0.0009697
472.54516,0.0009829
471.58078,0.0009653
470.61641,0.0009196
469.65203,0.0008770
468.68765,0.0008113
467.72327,0.0007897
466.75889,0.0008741
465.79452,0.0009986
464.83014,0.0010919
463.86576,0.0010392
462.90138,0.0008996
461.93700,0.0008487
460.97263,0.0009180
460.00825,0.0010416
459.04387,0.0011345
458.07949,0.0011652
457.11512,0.0011626
456.15074,0.0012138
455.18636,0.0012587
454.22198,0.0012468
453.25760,0.0012292
452.29323,0.0011381
451.32885,0.0010350
450.36447,0.0010054
449.40009,0.0010663
448.43571,0.0011693
447.47134,0.0011691
446.50696,0.0011127
445.54258,0.0010646
444.57820,0.0010656
443.61382,0.0011147
442.64945,0.0011369
441.68507,0.0011577
440.72069,0.0011601
439.75631,0.0011318
438.79194,0.0010571
437.82756,0.0009638
436.86318,0.0009253
435.89880,0.0009095
434.93442,0.0009349
433.97005,0.0009919
433.00567,0.0010887
432.04129,0.0011988
431.07691,0.0012262
430.11253,0.0012474
429.14816,0.0012274
428.18378,0.0010973
427.21940,0.0009268
426.25502,0.0007355
425.29065,0.0005900
424.32627,0.0005365
423.36189,0.0005646
422.39751,0.0006541
421.43313,0.0007456
420.46876,0.0007701
419.50438,0.0007357
418.54000,0.0007420
417.57562,0.0007112
416.61124,0.0005976
415.64687,0.0005131
414.68249,0.0004322
413.71811,0.0003866
412.75373,0.0004116
411.78935,0.0004581
410.82498,0.0005364
409.86060,0.0005997
408.89622,0.0006027
407.93184,0.0005901
406.96747,0.0006159
406.00309,0.0006151
405.03871,0.0005434
404.07433,0.0005434
403.10995,0.0005434
402.14558,0.0005434
401.18120,0.0005434
400.21682,0.0005434
399.25244,0.0005434
