3998.31069,0.0093591
3997.34631,0.0093591
3996.38194,0.0093591
3995.41756,0.0093591
3994.45318,0.0093591
3993.48880,0.0093591
3992.52442,0.0093591
3991.56005,0.0093509
3990.59567,0.0093767
3989.63129,0.0094452
3988.66691,0.0095273
3987.70253,0.0095552
3986.73816,0.0095769
3985.77378,0.0096247
3984.80940,0.0096637
3983.84502,0.0097184
3982.88065,0.0097834
3981.91627,0.0097807
3980.95189,0.0097055
3979.98751,0.0096437
3979.02313,0.0095953
3978.05876,0.0095628
3977.09438,0.0095913
3976.13000,0.0096092
3975.16562,0.0095890
3974.20124,0.0095477
3973.23687,0.0094723
3972.27249,0.0094456
3971.30811,0.0094735
3970.34373,0.0095239
3969.37935,0.0096248
3968.41498,0.0096956
3967.45060,0.0096965
3966.48622,0.0096803
3965.52184,0.0096628
3964.55747,0.0096162
3963.59309,0.0095189
3962.62871,0.0094234
3961.66433,0.0093794
3960.69995,0.0093884
3959.73558,0.0094014
3958.77120,0.0093755
3957.80682,0.0093471
3956.84244,0.0093395
3955.87806,0.0093274
3954.91369,0.0093089
3953.94931,0.0093272
3952.98493,0.0093840
3952.02055,0.0094412
3951.05618,0.0094936
3950.09180,0.0095285
3949.12742,0.0095190
3948.16304,0.0094598
3947.19866,0.0093913
3946.23429,0.0093841
3945.26991,0.0094244
3944.30553,0.0094221
3943.34115,0.0093960
3942.37677,0.0093962
3941.41240,0.0093969
3940.44802,0.0094153
3939.48364,0.0094251
3938.51926,0.0094011
3937.55488,0.0094058
3936.59051,0.0094421
3935.62613,0.0095129
3934.66175,0.0095989
3933.69737,0.0096122
3932.73300,0.0095642
3931.76862,0.0095422
3930.80424,0.0095462
3929.83986,0.0095118
3928.87548,0.0094615
3927.91111,0.0093878
3926.94673,0.0092363
3925.98235,0.0091070
3925.01797,0.0090467
3924.05359,0.0090197
3923.08922,0.0090184
3922.12484,0.0089926
3921.16046,0.0090101
3920.19608,0.0091234
3919.23171,0.0092396
3918.26733,0.0093003
3917.30295,0.0093327
3916.33857,0.0093416
3915.37419,0.0092584
3914.40982,0.0091643
3913.44544,0.0091416
3912.48106,0.0091282
3911.51668,0.0091247
3910.55230,0.0091401
3909.58793,0.0091969
3908.62355,0.0092966
3907.65917,0.0093972
3906.69479,0.0094625
3905.73041,0.0094791
3904.76604,0.0094488
3903.80166,0.0093680
3902.83728,0.0093296
3901.87290,0.0093136
3900.90853,0.0092558
3899.94415,0.0092231
3898.97977,0.0092082
3898.01539,0.0092367
3897.05101,0.0093261
3896.08664,0.0094340
3895.12226,0.0095230
3894.15788,0.0095464
3893.19350,0.0095359
3892.22912,0.0095322
3891.26475,0.0095432
3890.30037,0.0095365
3889.33599,0.0095068
3888.37161,0.0094758
3887.40724,0.0094179
3886.44286,0.0093334
3885.47848,0.0092102
3884.51410,0.0091011
3883.54972,0.0090602
3882.58535,0.0090155
3881.62097,0.0089508
3880.65659,0.0089150
3879.69221,0.0089390
3878.72783,0.0090115
3877.76346,0.0090692
3876.79908,0.0090922
3875.83470,0.0091059
3874.87032,0.0090851
3873.90594,0.0090143
3872.94157,0.0089735
3871.97719,0.0090172
3871.01281,0.0090786
3870.04843,0.0090996
3869.08406,0.0091154
3868.11968,0.0091383
3867.15530,0.0091315
3866.19092,0.0090871
3865.22654,0.0090570
3864.26217,0.0090627
3863.29779,0.0090513
3862.33341,0.0090108
3861.36903,0.0089683
3860.40465,0.0089686
3859.44028,0.0090215
3858.47590,0.0090449
3857.51152,0.0090072
3856.54714,0.0089187
3855.58276,0.0088166
3854.61839,0.0087750
3853.65401,0.0087964
3852.68963,0.0088339
3851.72525,0.0088857
3850.76088,0.0089440
3849.79650,0.0089809
3848.83212,0.0090196
3847.86774,0.0090551
3846.90336,0.0090165
3845.93899,0.0089190
3844.97461,0.0088142
3844.01023,0.0087551
3843.04585,0.0087935
3842.08147,0.0088591
3841.11710,0.0089359
3840.15272,0.0090475
3839.18834,0.0091261
3838.22396,0.0091679
3837.25959,0.0091364
3836.29521,0.0090304
3835.33083,0.0089272
3834.36645,0.0088345
3833.40207,0.0087571
3832.43770,0.0087098
3831.47332,0.0087186
3830.50894,0.0087152
3829.54456,0.0086937
3828.58018,0.0087556
3827.61581,0.0088491
3826.65143,0.0088941
3825.68705,0.0088631
3824.72267,0.0088146
3823.75829,0.0087937
3822.79392,0.0087639
3821.82954,0.0087510
3820.86516,0.0087457
3819.90078,0.0087236
3818.93641,0.0086750
3817.97203,0.0086384
3817.00765,0.0086639
3816.04327,0.0086927
3815.07889,0.0086786
3814.11452,0.0086707
3813.15014,0.0086988
3812.18576,0.0086976
3811.22138,0.0087081
3810.25700,0.0087711
3809.29263,0.0088118
3808.32825,0.0088596
3807.36387,0.0089525
3806.39949,0.0090365
3805.43512,0.0090530
3804.47074,0.0090566
3803.50636,0.0090999
3802.54198,0.0091523
3801.57760,0.0091695
3800.61323,0.0090719
3799.64885,0.0089242
3798.68447,0.0087967
3797.72009,0.0086843
3796.75571,0.0086375
3795.79134,0.0086676
3794.82696,0.0087283
3793.86258,0.0087287
3792.89820,0.0086796
3791.93382,0.0086614
3790.96945,0.0086544
3790.00507,0.0086000
3789.04069,0.0084907
3788.07631,0.0083833
3787.11194,0.0082877
3786.14756,0.0082525
3785.18318,0.0083531
3784.21880,0.0085410
3783.25442,0.0087269
3782.29005,0.0088215
3781.32567,0.0088293
3780.36129,0.0088472
3779.39691,0.0088555
3778.43253,0.0088011
3777.46816,0.0087549
3776.50378,0.0087100
3775.53940,0.0086277
3774.57502,0.0086069
3773.61065,0.0086568
3772.64627,0.0086879
3771.68189,0.0086803
3770.71751,0.0086528
3769.75313,0.0086094
3768.78876,0.0085516
3767.82438,0.0084735
3766.86000,0.0084036
3765.89562,0.0084008
3764.93124,0.0083834
3763.96687,0.0082967
3763.00249,0.0082273
3762.03811,0.0082009
3761.07373,0.0082019
3760.10935,0.0082439
3759.14498,0.0083339
3758.18060,0.0084102
3757.21622,0.0084384
3756.25184,0.0084510
3755.28747,0.0084549
3754.32309,0.0084359
3753.35871,0.0083480
3752.39433,0.0082263
3751.42995,0.0081810
3750.46558,0.0082594
3749.50120,0.0083945
3748.53682,0.0084802
3747.57244,0.0085187
3746.60806,0.0085387
3745.64369,0.0085573
3744.67931,0.0086077
3743.71493,0.0086590
3742.75055,0.0086691
3741.78618,0.0086389
3740.82180,0.0085620
3739.85742,0.0084853
3738.89304,0.0084767
3737.92866,0.0084418
3736.96429,0.0083229
3735.99991,0.0082326
3735.03553,0.0081862
3734.07115,0.0081767
3733.10677,0.0082613
3732.14240,0.0083724
3731.17802,0.0084662
3730.21364,0.0085663
3729.24926,0.0085914
3728.28488,0.0085790
3727.32051,0.0086098
3726.35613,0.0086064
3725.39175,0.0085577
3724.42737,0.0084980
3723.46300,0.0084423
3722.49862,0.0084473
3721.53424,0.0084789
3720.56986,0.0084503
3719.60548,0.0084041
3718.64111,0.0083768
3717.67673,0.0083323
3716.71235,0.0082902
3715.74797,0.0082931
3714.78359,0.0083207
3713.81922,0.0082796
3712.85484,0.0082146
3711.89046,0.0082470
3710.92608,0.0083278
3709.96171,0.0083844
3708.99733,0.0083709
3708.03295,0.0082786
3707.06857,0.0081741
3706.10419,0.0081239
3705.13982,0.0081350
3704.17544,0.0082049
3703.21106,0.0083059
3702.24668,0.0083152
3701.28230,0.0083055
3700.31793,0.0083605
3699.35355,0.0083923
3698.38917,0.0084302
3697.42479,0.0084372
3696.46041,0.0083514
3695.49604,0.0082478
3694.53166,0.0082225
3693.56728,0.0082614
3692.60290,0.0082794
3691.63853,0.0083127
3690.67415,0.0083546
3689.70977,0.0084002
3688.74539,0.0084617
3687.78101,0.0084962
3686.81664,0.0085452
3685.85226,0.0085996
3684.88788,0.0086182
3683.92350,0.0086138
3682.95912,0.0086169
3681.99475,0.0086158
3681.03037,0.0086222
3680.06599,0.0086774
3679.10161,0.0086926
3678.13724,0.0086965
3677.17286,0.0087785
3676.20848,0.0088730
3675.24410,0.0089467
3674.27972,0.0089954
3673.31535,0.0090137
3672.35097,0.0090177
3671.38659,0.0090159
3670.42221,0.0090101
3669.45783,0.0090001
3668.49346,0.0089730
3667.52908,0.0089631
3666.56470,0.0090366
3665.60032,0.0091279
3664.63594,0.0091530
3663.67157,0.0091173
3662.70719,0.0090405
3661.74281,0.0089864
3660.77843,0.0090236
3659.81406,0.0091019
3658.84968,0.0091532
3657.88530,0.0092335
3656.92092,0.0093981
3655.95654,0.0096255
3654.99217,0.0098130
3654.02779,0.0098943
3653.06341,0.0099389
3652.09903,0.0099618
3651.13465,0.0099629
3650.17028,0.0099803
3649.20590,0.0100416
3648.24152,0.0101192
3647.27714,0.0101294
3646.31276,0.0101227
3645.34839,0.0101622
3644.38401,0.0102353
3643.41963,0.0103202
3642.45525,0.0103986
3641.49088,0.0105234
3640.52650,0.0106482
3639.56212,0.0107053
3638.59774,0.0107376
3637.63336,0.0107963
3636.66899,0.0109140
3635.70461,0.0110045
3634.74023,0.0110354
3633.77585,0.0111386
3632.81147,0.0113326
3631.84710,0.0115118
3630.88272,0.0116411
3629.91834,0.0118152
3628.95396,0.0119909
3627.98959,0.0120392
3627.02521,0.0120534
3626.06083,0.0121193
3625.09645,0.0121918
3624.13207,0.0122009
3623.16770,0.0121415
3622.20332,0.0121528
3621.23894,0.0122360
3620.27456,0.0122597
3619.31018,0.0122434
3618.34581,0.0123015
3617.38143,0.0123879
3616.41705,0.0123780
3615.45267,0.0123494
3614.48829,0.0123776
3613.52392,0.0124170
3612.55954,0.0124453
3611.59516,0.0124655
3610.63078,0.0125638
3609.66641,0.0126862
3608.70203,0.0126843
3607.73765,0.0126223
3606.77327,0.0125943
3605.80889,0.0126281
3604.84452,0.0126841
3603.88014,0.0127342
3602.91576,0.0128364
3601.95138,0.0129564
3600.98700,0.0130680
3600.02263,0.0132099
3599.05825,0.0133434
3598.09387,0.0133596
3597.12949,0.0132386
3596.16512,0.0131154
3595.20074,0.0130823
3594.23636,0.0131379
3593.27198,0.0132215
3592.30760,0.0132652
3591.34323,0.0132493
3590.37885,0.0132042
3589.41447,0.0132303
3588.45009,0.0133101
3587.48571,0.0133626
3586.52134,0.0133891
3585.55696,0.0133973
3584.59258,0.0134405
3583.62820,0.0135262
3582.66382,0.0136030
3581.69945,0.0136711
3580.73507,0.0137075
3579.77069,0.0136574
3578.80631,0.0136344
3577.84194,0.0137542
3576.87756,0.0139103
3575.91318,0.0140217
3574.94880,0.0140269
3573.98442,0.0139433
3573.02005,0.0138950
3572.05567,0.0138554
3571.09129,0.0137895
3570.12691,0.0137330
3569.16253,0.0137150
3568.19816,0.0136945
3567.23378,0.0137197
3566.26940,0.0138349
3565.30502,0.0138739
3564.34065,0.0138425
3563.37627,0.0138146
3562.41189,0.0138415
3561.44751,0.0139587
3560.48313,0.0140193
3559.51876,0.0140182
3558.55438,0.0140711
3557.59000,0.0142184
3556.62562,0.0143775
3555.66124,0.0144828
3554.69687,0.0145492
3553.73249,0.0145656
3552.76811,0.0146164
3551.80373,0.0146893
3550.83935,0.0147033
3549.87498,0.0146422
3548.91060,0.0145128
3547.94622,0.0144453
3546.98184,0.0144920
3546.01747,0.0145783
3545.05309,0.0146357
3544.08871,0.0146469
3543.12433,0.0146395
3542.15995,0.0146676
3541.19558,0.0147766
3540.23120,0.0148829
3539.26682,0.0149209
3538.30244,0.0149356
3537.33806,0.0149900
3536.37369,0.0151114
3535.40931,0.0152271
3534.44493,0.0152610
3533.48055,0.0152562
3532.51618,0.0152490
3531.55180,0.0152137
3530.58742,0.0152151
3529.62304,0.0152737
3528.65866,0.0153099
3527.69429,0.0153085
3526.72991,0.0153018
3525.76553,0.0153296
3524.80115,0.0153940
3523.83677,0.0154744
3522.87240,0.0155382
3521.90802,0.0155742
3520.94364,0.0156022
3519.97926,0.0156528
3519.01488,0.0157579
3518.05051,0.0158495
3517.08613,0.0158884
3516.12175,0.0158877
3515.15737,0.0158498
3514.19300,0.0158381
3513.22862,0.0158474
3512.26424,0.0158213
3511.29986,0.0157996
3510.33548,0.0158460
3509.37111,0.0159330
3508.40673,0.0160221
3507.44235,0.0160861
3506.47797,0.0161080
3505.51359,0.0161246
3504.54922,0.0161237
3503.58484,0.0160970
3502.62046,0.0160750
3501.65608,0.0160503
3500.69171,0.0160381
3499.72733,0.0161383
3498.76295,0.0163500
3497.79857,0.0164964
3496.83419,0.0165537
3495.86982,0.0165957
3494.90544,0.0166492
3493.94106,0.0167217
3492.97668,0.0167439
3492.01230,0.0167276
3491.04793,0.0167288
3490.08355,0.0167727
3489.11917,0.0168726
3488.15479,0.0170115
3487.19041,0.0171718
3486.22604,0.0172912
3485.26166,0.0173456
3484.29728,0.0173580
3483.33290,0.0173451
3482.36853,0.0173024
3481.40415,0.0172080
3480.43977,0.0171237
3479.47539,0.0170902
3478.51101,0.0170983
3477.54664,0.0171630
3476.58226,0.0172535
3475.61788,0.0173487
3474.65350,0.0174355
3473.68912,0.0174933
3472.72475,0.0175691
3471.76037,0.0176736
3470.79599,0.0177567
3469.83161,0.0177897
3468.86724,0.0177772
3467.90286,0.0177722
3466.93848,0.0178139
3465.97410,0.0178674
3465.00972,0.0178755
3464.04535,0.0178709
3463.08097,0.0179098
3462.11659,0.0180081
3461.15221,0.0181647
3460.18783,0.0182958
3459.22346,0.0183560
3458.25908,0.0183455
3457.29470,0.0182811
3456.33032,0.0182302
3455.36594,0.0181659
3454.40157,0.0180644
3453.43719,0.0179919
3452.47281,0.0179991
3451.50843,0.0180593
3450.54406,0.0181649
3449.57968,0.0182789
3448.61530,0.0183108
3447.65092,0.0183514
3446.68654,0.0184125
3445.72217,0.0184251
3444.75779,0.0184312
3443.79341,0.0184251
3442.82903,0.0184589
3441.86465,0.0185576
3440.90028,0.0186738
3439.93590,0.0187818
3438.97152,0.0188689
3438.00714,0.0188993
3437.04276,0.0188737
3436.07839,0.0188898
3435.11401,0.0188874
3434.14963,0.0188605
3433.18525,0.0188896
3432.22088,0.0189102
3431.25650,0.0189105
3430.29212,0.0188898
3429.32774,0.0188680
3428.36336,0.0188404
3427.39899,0.0187944
3426.43461,0.0187622
3425.47023,0.0187169
3424.50585,0.0186929
3423.54147,0.0187339
3422.57710,0.0188577
3421.61272,0.0189937
3420.64834,0.0190640
3419.68396,0.0191192
3418.71959,0.0191647
3417.75521,0.0191993
3416.79083,0.0192107
3415.82645,0.0192116
3414.86207,0.0192311
3413.89770,0.0192460
3412.93332,0.0192783
3411.96894,0.0193244
3411.00456,0.0193707
3410.04018,0.0193892
3409.07581,0.0193670
3408.11143,0.0193421
3407.14705,0.0193216
3406.18267,0.0193054
3405.21829,0.0192829
3404.25392,0.0192622
3403.28954,0.0192593
3402.32516,0.0192854
3401.36078,0.0192861
3400.39641,0.0192226
3399.43203,0.0191941
3398.46765,0.0191832
3397.50327,0.0191141
3396.53889,0.0190674
3395.57452,0.0191111
3394.61014,0.0191763
3393.64576,0.0192146
3392.68138,0.0192529
3391.71700,0.0192878
3390.75263,0.0193286
3389.78825,0.0193311
3388.82387,0.0192928
3387.85949,0.0192972
3386.89512,0.0192991
3385.93074,0.0192735
3384.96636,0.0192789
3384.00198,0.0193003
3383.03760,0.0192901
3382.07323,0.0192743
3381.10885,0.0192856
3380.14447,0.0193086
3379.18009,0.0193308
3378.21571,0.0193284
3377.25134,0.0193240
3376.28696,0.0193239
3375.32258,0.0193049
3374.35820,0.0192818
3373.39382,0.0192282
3372.42945,0.0191441
3371.46507,0.0190733
3370.50069,0.0190355
3369.53631,0.0190344
3368.57194,0.0190542
3367.60756,0.0190529
3366.64318,0.0190322
3365.67880,0.0190417
3364.71442,0.0190712
3363.75005,0.0191238
3362.78567,0.0191912
3361.82129,0.0192225
3360.85691,0.0192328
3359.89253,0.0192420
3358.92816,0.0192370
3357.96378,0.0192197
3356.99940,0.0192030
3356.03502,0.0191750
3355.07065,0.0191487
3354.10627,0.0191495
3353.14189,0.0191794
3352.17751,0.0192451
3351.21313,0.0192890
3350.24876,0.0192700
3349.28438,0.0192289
3348.32000,0.0192044
3347.35562,0.0191984
3346.39124,0.0191913
3345.42687,0.0191543
3344.46249,0.0190690
3343.49811,0.0189697
3342.53373,0.0188834
3341.56935,0.0188308
3340.60498,0.0187847
3339.64060,0.0186994
3338.67622,0.0186215
3337.71184,0.0185707
3336.74747,0.0185793
3335.78309,0.0186541
3334.81871,0.0187122
3333.85433,0.0187205
3332.88995,0.0187207
3331.92558,0.0187495
3330.96120,0.0187541
3329.99682,0.0187184
3329.03244,0.0186793
3328.06806,0.0186584
3327.10369,0.0186486
3326.13931,0.0186074
3325.17493,0.0185768
3324.21055,0.0185726
3323.24618,0.0185704
3322.28180,0.0185765
3321.31742,0.0185788
3320.35304,0.0185544
3319.38866,0.0184871
3318.42429,0.0184403
3317.45991,0.0184094
3316.49553,0.0183478
3315.53115,0.0182950
3314.56677,0.0182681
3313.60240,0.0182513
3312.63802,0.0182256
3311.67364,0.0182332
3310.70926,0.0182645
3309.74488,0.0182605
3308.78051,0.0182425
3307.81613,0.0182417
3306.85175,0.0182622
3305.88737,0.0182402
3304.92300,0.0181968
3303.95862,0.0182054
3302.99424,0.0182353
3302.02986,0.0182587
3301.06548,0.0182647
3300.10111,0.0182815
3299.13673,0.0182816
3298.17235,0.0182327
3297.20797,0.0182118
3296.24359,0.0182316
3295.27922,0.0182458
3294.31484,0.0182164
3293.35046,0.0181602
3292.38608,0.0181050
3291.42171,0.0180329
3290.45733,0.0179393
3289.49295,0.0178278
3288.52857,0.0177224
3287.56419,0.0176150
3286.59982,0.0175390
3285.63544,0.0175461
3284.67106,0.0176064
3283.70668,0.0177131
3282.74230,0.0178057
3281.77793,0.0178532
3280.81355,0.0178911
3279.84917,0.0178861
3278.88479,0.0178371
3277.92041,0.0177808
3276.95604,0.0177321
3275.99166,0.0176613
3275.02728,0.0175940
3274.06290,0.0175682
3273.09853,0.0175579
3272.13415,0.0175978
3271.16977,0.0176294
3270.20539,0.0176212
3269.24101,0.0176578
3268.27664,0.0176830
3267.31226,0.0176528
3266.34788,0.0176218
3265.38350,0.0176024
3264.41912,0.0175589
3263.45475,0.0175154
3262.49037,0.0174899
3261.52599,0.0174412
3260.56161,0.0174195
3259.59724,0.0174129
3258.63286,0.0173769
3257.66848,0.0173558
3256.70410,0.0173155
3255.73972,0.0172438
3254.77535,0.0171828
3253.81097,0.0171106
3252.84659,0.0170205
3251.88221,0.0169621
3250.91783,0.0169487
3249.95346,0.0169478
3248.98908,0.0169551
3248.02470,0.0169674
3247.06032,0.0169827
3246.09594,0.0170285
3245.13157,0.0171220
3244.16719,0.0172121
3243.20281,0.0172285
3242.23843,0.0171760
3241.27406,0.0170917
3240.30968,0.0170185
3239.34530,0.0169687
3238.38092,0.0168963
3237.41654,0.0167966
3236.45217,0.0167166
3235.48779,0.0166717
3234.52341,0.0166678
3233.55903,0.0167171
3232.59465,0.0167710
3231.63028,0.0168074
3230.66590,0.0168611
3229.70152,0.0168960
3228.73714,0.0168898
3227.77276,0.0168624
3226.80839,0.0167932
3225.84401,0.0167114
3224.87963,0.0166773
3223.91525,0.0166678
3222.95088,0.0166435
3221.98650,0.0166183
3221.02212,0.0166025
3220.05774,0.0165938
3219.09336,0.0165814
3218.12899,0.0165145
3217.16461,0.0164043
3216.20023,0.0163169
3215.23585,0.0162567
3214.27147,0.0162437
3213.30710,0.0162813
3212.34272,0.0163057
3211.37834,0.0163021
3210.41396,0.0162896
3209.44959,0.0162564
3208.48521,0.0161869
3207.52083,0.0161203
3206.55645,0.0160923
3205.59207,0.0160883
3204.62770,0.0161053
3203.66332,0.0161450
3202.69894,0.0161931
3201.73456,0.0161994
3200.77018,0.0161618
3199.80581,0.0161282
3198.84143,0.0160755
3197.87705,0.0159879
3196.91267,0.0158919
3195.94829,0.0158274
3194.98392,0.0158138
3194.01954,0.0158267
3193.05516,0.0158651
3192.09078,0.0159257
3191.12641,0.0159766
3190.16203,0.0159731
3189.19765,0.0159258
3188.23327,0.0158773
3187.26889,0.0157970
3186.30452,0.0156907
3185.34014,0.0156051
3184.37576,0.0155166
3183.41138,0.0154226
3182.44700,0.0153941
3181.48263,0.0154416
3180.51825,0.0154851
3179.55387,0.0155086
3178.58949,0.0155449
3177.62512,0.0155663
3176.66074,0.0155303
3175.69636,0.0154460
3174.73198,0.0153698
3173.76760,0.0153187
3172.80323,0.0152434
3171.83885,0.0151615
3170.87447,0.0151449
3169.91009,0.0151636
3168.94571,0.0151565
3167.98134,0.0151495
3167.01696,0.0151481
3166.05258,0.0150869
3165.08820,0.0149798
3164.12382,0.0149026
3163.15945,0.0148527
3162.19507,0.0148174
3161.23069,0.0147886
3160.26631,0.0147400
3159.30194,0.0147092
3158.33756,0.0147290
3157.37318,0.0147554
3156.40880,0.0147633
3155.44442,0.0147778
3154.48005,0.0147882
3153.51567,0.0147734
3152.55129,0.0147377
3151.58691,0.0146824
3150.62253,0.0146275
3149.65816,0.0145506
3148.69378,0.0144484
3147.72940,0.0144007
3146.76502,0.0144006
3145.80065,0.0143646
3144.83627,0.0143091
3143.87189,0.0142909
3142.90751,0.0142559
3141.94313,0.0141724
3140.97876,0.0140948
3140.01438,0.0140395
3139.05000,0.0140006
3138.08562,0.0139674
3137.12124,0.0139787
3136.15687,0.0140471
3135.19249,0.0140757
3134.22811,0.0140333
3133.26373,0.0139735
3132.29935,0.0139222
3131.33498,0.0138714
3130.37060,0.0138442
3129.40622,0.0138454
3128.44184,0.0138329
3127.47747,0.0138205
3126.51309,0.0138350
3125.54871,0.0139043
3124.58433,0.0140069
3123.61995,0.0140523
3122.65558,0.0140443
3121.69120,0.0140300
3120.72682,0.0140120
3119.76244,0.0139870
3118.79806,0.0139598
3117.83369,0.0139058
3116.86931,0.0137983
3115.90493,0.0136845
3114.94055,0.0136017
3113.97618,0.0135600
3113.01180,0.0135604
3112.04742,0.0135531
3111.08304,0.0135330
3110.11866,0.0135289
3109.15429,0.0135104
3108.18991,0.0134542
3107.22553,0.0133933
3106.26115,0.0133472
3105.29677,0.0133107
3104.33240,0.0132803
3103.36802,0.0132388
3102.40364,0.0132047
3101.43926,0.0132077
3100.47488,0.0132183
3099.51051,0.0132102
3098.54613,0.0131894
3097.58175,0.0131566
3096.61737,0.0130965
3095.65300,0.0130148
3094.68862,0.0129658
3093.72424,0.0129655
3092.75986,0.0129629
3091.79548,0.0129335
3090.83111,0.0129052
3089.86673,0.0128888
3088.90235,0.0128624
3087.93797,0.0128288
3086.97359,0.0127935
3086.00922,0.0127315
3085.04484,0.0126336
3084.08046,0.0125304
3083.11608,0.0124634
3082.15171,0.0124501
3081.18733,0.0124641
3080.22295,0.0124627
3079.25857,0.0124489
3078.29419,0.0124518
3077.32982,0.0124807
3076.36544,0.0125269
3075.40106,0.0125707
3074.43668,0.0125932
3073.47230,0.0125922
3072.50793,0.0125879
3071.54355,0.0125836
3070.57917,0.0125834
3069.61479,0.0125764
3068.65041,0.0125048
3067.68604,0.0124006
3066.72166,0.0123292
3065.75728,0.0122838
3064.79290,0.0122607
3063.82853,0.0122530
3062.86415,0.0122251
3061.89977,0.0121557
3060.93539,0.0121020
3059.97101,0.0120912
3059.00664,0.0120775
3058.04226,0.0120608
3057.07788,0.0120366
3056.11350,0.0120238
3055.14912,0.0120494
3054.18475,0.0120732
3053.22037,0.0120712
3052.25599,0.0120336
3051.29161,0.0119594
3050.32724,0.0118719
3049.36286,0.0117908
3048.39848,0.0117296
3047.43410,0.0116828
3046.46972,0.0116507
3045.50535,0.0116444
3044.54097,0.0116523
3043.57659,0.0116493
3042.61221,0.0115976
3041.64783,0.0115008
3040.68346,0.0114230
3039.71908,0.0113822
3038.75470,0.0113651
3037.79032,0.0113773
3036.82594,0.0114291
3035.86157,0.0115098
3034.89719,0.0115647
3033.93281,0.0115836
3032.96843,0.0115763
3032.00406,0.0115054
3031.03968,0.0113798
3030.07530,0.0112662
3029.11092,0.0111874
3028.14654,0.0111234
3027.18217,0.0110864
3026.21779,0.0110763
3025.25341,0.0110936
3024.28903,0.0111439
3023.32465,0.0111768
3022.36028,0.0111981
3021.39590,0.0112339
3020.43152,0.0112356
3019.46714,0.0111996
3018.50276,0.0111745
3017.53839,0.0111478
3016.57401,0.0111073
3015.60963,0.0110928
3014.64525,0.0110783
3013.68088,0.0110514
3012.71650,0.0110468
3011.75212,0.0110313
3010.78774,0.0110067
3009.82336,0.0109943
3008.85899,0.0109615
3007.89461,0.0109128
3006.93023,0.0108667
3005.96585,0.0108114
3005.00147,0.0107535
3004.03710,0.0107081
3003.07272,0.0106473
3002.10834,0.0105631
3001.14396,0.0105013
3000.17959,0.0104622
2999.21521,0.0104345
2998.25083,0.0104325
2997.28645,0.0104553
2996.32207,0.0105008
2995.35770,0.0105303
2994.39332,0.0105326
2993.42894,0.0105316
2992.46456,0.0105031
2991.50018,0.0104588
2990.53581,0.0104282
2989.57143,0.0104178
2988.60705,0.0104237
2987.64267,0.0104290
2986.67829,0.0104400
2985.71392,0.0104523
2984.74954,0.0104634
2983.78516,0.0104708
2982.82078,0.0104750
2981.85641,0.0104755
2980.89203,0.0104546
2979.92765,0.0104253
2978.96327,0.0103938
2977.99889,0.0103788
2977.03452,0.0103722
2976.07014,0.0103424
2975.10576,0.0103137
2974.14138,0.0103019
2973.17700,0.0103326
2972.21263,0.0103923
2971.24825,0.0104414
2970.28387,0.0104861
2969.31949,0.0105178
2968.35512,0.0105297
2967.39074,0.0105324
2966.42636,0.0105510
2965.46198,0.0105781
2964.49760,0.0106029
2963.53323,0.0106393
2962.56885,0.0106834
2961.60447,0.0107189
2960.64009,0.0106986
2959.67571,0.0106467
2958.71134,0.0106133
2957.74696,0.0105793
2956.78258,0.0105338
2955.81820,0.0104882
2954.85382,0.0104702
2953.88945,0.0104563
2952.92507,0.0104201
2951.96069,0.0103902
2950.99631,0.0103726
2950.03194,0.0103524
2949.06756,0.0103323
2948.10318,0.0103476
2947.13880,0.0103971
2946.17442,0.0104476
2945.21005,0.0104947
2944.24567,0.0105594
2943.28129,0.0106086
2942.31691,0.0105879
2941.35253,0.0105693
2940.38816,0.0105893
2939.42378,0.0106082
2938.45940,0.0106283
2937.49502,0.0106446
2936.53065,0.0106460
2935.56627,0.0106363
2934.60189,0.0106397
2933.63751,0.0106573
2932.67313,0.0106787
2931.70876,0.0106738
2930.74438,0.0106429
2929.78000,0.0106468
2928.81562,0.0106605
2927.85124,0.0106902
2926.88687,0.0107680
2925.92249,0.0108509
2924.95811,0.0109137
2923.99373,0.0109590
2923.02935,0.0110105
2922.06498,0.0110382
2921.10060,0.0110100
2920.13622,0.0109404
2919.17184,0.0108431
2918.20747,0.0107394
2917.24309,0.0106413
2916.27871,0.0105879
2915.31433,0.0105751
2914.34995,0.0105669
2913.38558,0.0105622
2912.42120,0.0105557
2911.45682,0.0105493
2910.49244,0.0105177
2909.52806,0.0104494
2908.56369,0.0103707
2907.59931,0.0103089
2906.63493,0.0102438
2905.67055,0.0101491
2904.70618,0.0100666
2903.74180,0.0100119
2902.77742,0.0099962
2901.81304,0.0100121
2900.84866,0.0100187
2899.88429,0.0100141
2898.91991,0.0099913
2897.95553,0.0099500
2896.99115,0.0099047
2896.02677,0.0098743
2895.06240,0.0098353
2894.09802,0.0097644
2893.13364,0.0097209
2892.16926,0.0097302
2891.20488,0.0097560
2890.24051,0.0097507
2889.27613,0.0097167
2888.31175,0.0096896
2887.34737,0.0096669
2886.38300,0.0096644
2885.41862,0.0096792
2884.45424,0.0096851
2883.48986,0.0096909
2882.52548,0.0097027
2881.56111,0.0097224
2880.59673,0.0097453
2879.63235,0.0097429
2878.66797,0.0097062
2877.70359,0.0096732
2876.73922,0.0096743
2875.77484,0.0097079
2874.81046,0.0097397
2873.84608,0.0097144
2872.88171,0.0096540
2871.91733,0.0096225
2870.95295,0.0095979
2869.98857,0.0095559
2869.02419,0.0095147
2868.05982,0.0094766
2867.09544,0.0094629
2866.13106,0.0094849
2865.16668,0.0095301
2864.20230,0.0095816
2863.23793,0.0095980
2862.27355,0.0095825
2861.30917,0.0095797
2860.34479,0.0095985
2859.38041,0.0096169
2858.41604,0.0096259
2857.45166,0.0096238
2856.48728,0.0096173
2855.52290,0.0096304
2854.55853,0.0096493
2853.59415,0.0096594
2852.62977,0.0096511
2851.66539,0.0096161
2850.70101,0.0095732
2849.73664,0.0095141
2848.77226,0.0094497
2847.80788,0.0093876
2846.84350,0.0093200
2845.87912,0.0092756
2844.91475,0.0092442
2843.95037,0.0092044
2842.98599,0.0091684
2842.02161,0.0091390
2841.05724,0.0090828
2840.09286,0.0090039
2839.12848,0.0089453
2838.16410,0.0088886
2837.19972,0.0088278
2836.23535,0.0087737
2835.27097,0.0087293
2834.30659,0.0087089
2833.34221,0.0086925
2832.37783,0.0086743
2831.41346,0.0086660
2830.44908,0.0086722
2829.48470,0.0086726
2828.52032,0.0086629
2827.55594,0.0086822
2826.59157,0.0087101
2825.62719,0.0087253
2824.66281,0.0087334
2823.69843,0.0087197
2822.73406,0.0086955
2821.76968,0.0086665
2820.80530,0.0086229
2819.84092,0.0085679
2818.87654,0.0085175
2817.91217,0.0084705
2816.94779,0.0084196
2815.98341,0.0083948
2815.01903,0.0084066
2814.05465,0.0084400
2813.09028,0.0084892
2812.12590,0.0085382
2811.16152,0.0085669
2810.19714,0.0085709
2809.23276,0.0085572
2808.26839,0.0085243
2807.30401,0.0084742
2806.33963,0.0084007
2805.37525,0.0083036
2804.41088,0.0082303
2803.44650,0.0082177
2802.48212,0.0082553
2801.51774,0.0083167
2800.55336,0.0083664
2799.58899,0.0083928
2798.62461,0.0084176
2797.66023,0.0084318
2796.69585,0.0084174
2795.73147,0.0083799
2794.76710,0.0083213
2793.80272,0.0082550
2792.83834,0.0082113
2791.87396,0.0082134
2790.90959,0.0082396
2789.94521,0.0082520
2788.98083,0.0082477
2788.01645,0.0082354
2787.05207,0.0082206
2786.08770,0.0081928
2785.12332,0.0081647
2784.15894,0.0081618
2783.19456,0.0081731
2782.23018,0.0081825
2781.26581,0.0081843
2780.30143,0.0081975
2779.33705,0.0082132
2778.37267,0.0082058
2777.40829,0.0081867
2776.44392,0.0081591
2775.47954,0.0081377
2774.51516,0.0081342
2773.55078,0.0081549
2772.58641,0.0081958
2771.62203,0.0082280
2770.65765,0.0082461
2769.69327,0.0082407
2768.72889,0.0082134
2767.76452,0.0081783
2766.80014,0.0081259
2765.83576,0.0080592
2764.87138,0.0079952
2763.90700,0.0079525
2762.94263,0.0079338
2761.97825,0.0079240
2761.01387,0.0079192
2760.04949,0.0079337
2759.08512,0.0079641
2758.12074,0.0079778
2757.15636,0.0079714
2756.19198,0.0079624
2755.22760,0.0079487
2754.26323,0.0079259
2753.29885,0.0079125
2752.33447,0.0079116
2751.37009,0.0079090
2750.40571,0.0079062
2749.44134,0.0078971
2748.47696,0.0078890
2747.51258,0.0078789
2746.54820,0.0078540
2745.58382,0.0078298
2744.61945,0.0078097
2743.65507,0.0077958
2742.69069,0.0077864
2741.72631,0.0077723
2740.76194,0.0077497
2739.79756,0.0077257
2738.83318,0.0077037
2737.86880,0.0076656
2736.90442,0.0076181
2735.94005,0.0075676
2734.97567,0.0075302
2734.01129,0.0075209
2733.04691,0.0075185
2732.08253,0.0075229
2731.11816,0.0075280
2730.15378,0.0075339
2729.18940,0.0075472
2728.22502,0.0075670
2727.26065,0.0075952
2726.29627,0.0076120
2725.33189,0.0076097
2724.36751,0.0075894
2723.40313,0.0075779
2722.43876,0.0075747
2721.47438,0.0075444
2720.51000,0.0075087
2719.54562,0.0074729
2718.58124,0.0074401
2717.61687,0.0074194
2716.65249,0.0074131
2715.68811,0.0074308
2714.72373,0.0074410
2713.75935,0.0074447
2712.79498,0.0074631
2711.83060,0.0074963
2710.86622,0.0075268
2709.90184,0.0075283
2708.93747,0.0075210
2707.97309,0.0075019
2707.00871,0.0074634
2706.04433,0.0074288
2705.07995,0.0074063
2704.11558,0.0073939
2703.15120,0.0073703
2702.18682,0.0073432
2701.22244,0.0073267
2700.25806,0.0073047
2699.29369,0.0072903
2698.32931,0.0072879
2697.36493,0.0072877
2696.40055,0.0072851
2695.43618,0.0072659
2694.47180,0.0072478
2693.50742,0.0072455
2692.54304,0.0072514
2691.57866,0.0072600
2690.61429,0.0072502
2689.64991,0.0072163
2688.68553,0.0071764
2687.72115,0.0071588
2686.75677,0.0071600
2685.79240,0.0071467
2684.82802,0.0071211
2683.86364,0.0070937
2682.89926,0.0070804
2681.93488,0.0070772
2680.97051,0.0070746
2680.00613,0.0070823
2679.04175,0.0070719
2678.07737,0.0070453
2677.11300,0.0070294
2676.14862,0.0070228
2675.18424,0.0070080
2674.21986,0.0069735
2673.25548,0.0069487
2672.29111,0.0069345
2671.32673,0.0069138
2670.36235,0.0068904
2669.39797,0.0068710
2668.43359,0.0068650
2667.46922,0.0068646
2666.50484,0.0068616
2665.54046,0.0068560
2664.57608,0.0068583
2663.61171,0.0068622
2662.64733,0.0068724
2661.68295,0.0068986
2660.71857,0.0069057
2659.75419,0.0069081
2658.78982,0.0069306
2657.82544,0.0069451
2656.86106,0.0069552
2655.89668,0.0069719
2654.93230,0.0069678
2653.96793,0.0069429
2653.00355,0.0069234
2652.03917,0.0068962
2651.07479,0.0068705
2650.11041,0.0068614
2649.14604,0.0068487
2648.18166,0.0068232
2647.21728,0.0067949
2646.25290,0.0067842
2645.28853,0.0067818
2644.32415,0.0067930
2643.35977,0.0068184
2642.39539,0.0068241
2641.43101,0.0068074
2640.46664,0.0067843
2639.50226,0.0067927
2638.53788,0.0068204
2637.57350,0.0068145
2636.60912,0.0067683
2635.64475,0.0067111
2634.68037,0.0066648
2633.71599,0.0066056
2632.75161,0.0065646
2631.78724,0.0065480
2630.82286,0.0065118
2629.85848,0.0064949
2628.89410,0.0065050
2627.92972,0.0065318
2626.96535,0.0065594
2626.00097,0.0065502
2625.03659,0.0065212
2624.07221,0.0064729
2623.10783,0.0064170
2622.14346,0.0063654
2621.17908,0.0062983
2620.21470,0.0062580
2619.25032,0.0062757
2618.28594,0.0063187
2617.32157,0.0063594
2616.35719,0.0063871
2615.39281,0.0063918
2614.42843,0.0063707
2613.46406,0.0063446
2612.49968,0.0063091
2611.53530,0.0062521
2610.57092,0.0061923
2609.60654,0.0061399
2608.64217,0.0061342
2607.67779,0.0061595
2606.71341,0.0061629
2605.74903,0.0061958
2604.78465,0.0062587
2603.82028,0.0062972
2602.85590,0.0062959
2601.89152,0.0062493
2600.92714,0.0061963
2599.96276,0.0061519
2598.99839,0.0061258
2598.03401,0.0061222
2597.06963,0.0061024
2596.10525,0.0060701
2595.14088,0.0060323
2594.17650,0.0060193
2593.21212,0.0060533
2592.24774,0.0060684
2591.28336,0.0060322
2590.31899,0.0059893
2589.35461,0.0059967
2588.39023,0.0060543
2587.42585,0.0061249
2586.46147,0.0061714
2585.49710,0.0061876
2584.53272,0.0061851
2583.56834,0.0061163
2582.60396,0.0060183
2581.63959,0.0059666
2580.67521,0.0059386
2579.71083,0.0059126
2578.74645,0.0058816
2577.78207,0.0058607
2576.81770,0.0058508
2575.85332,0.0058620
2574.88894,0.0059018
2573.92456,0.0059244
2572.96018,0.0058838
2571.99581,0.0057809
2571.03143,0.0057318
2570.06705,0.0057512
2569.10267,0.0057863
2568.13829,0.0058328
2567.17392,0.0058059
2566.20954,0.0057287
2565.24516,0.0056797
2564.28078,0.0057071
2563.31641,0.0057774
2562.35203,0.0057770
2561.38765,0.0057385
2560.42327,0.0057098
2559.45889,0.0057197
2558.49452,0.0057690
2557.53014,0.0058321
2556.56576,0.0058888
2555.60138,0.0058693
2554.63700,0.0058205
2553.67263,0.0057898
2552.70825,0.0057899
2551.74387,0.0058170
2550.77949,0.0057877
2549.81512,0.0057372
2548.85074,0.0057112
2547.88636,0.0056937
2546.92198,0.0056991
2545.95760,0.0057127
2544.99323,0.0057171
2544.02885,0.0057283
2543.06447,0.0057467
2542.10009,0.0057606
2541.13571,0.0057830
2540.17134,0.0057677
2539.20696,0.0056962
2538.24258,0.0056453
2537.27820,0.0056143
2536.31382,0.0055484
2535.34945,0.0054680
2534.38507,0.0054324
2533.42069,0.0054409
2532.45631,0.0054760
2531.49194,0.0055449
2530.52756,0.0056113
2529.56318,0.0056343
2528.59880,0.0056506
2527.63442,0.0057102
2526.67005,0.0057671
2525.70567,0.0057595
2524.74129,0.0056911
2523.77691,0.0055995
2522.81253,0.0055402
2521.84816,0.0055204
2520.88378,0.0054974
2519.91940,0.0054743
2518.95502,0.0054840
2517.99065,0.0055283
2517.02627,0.0056102
2516.06189,0.0056803
2515.09751,0.0056652
2514.13313,0.0056290
2513.16876,0.0056256
2512.20438,0.0056149
2511.24000,0.0056199
2510.27562,0.0056466
2509.31124,0.0056141
2508.34687,0.0055217
2507.38249,0.0054459
2506.41811,0.0053654
2505.45373,0.0052537
2504.48935,0.0051367
2503.52498,0.0050316
2502.56060,0.0050084
2501.59622,0.0050394
2500.63184,0.0050422
2499.66747,0.0050685
2498.70309,0.0051421
2497.73871,0.0052075
2496.77433,0.0052054
2495.80995,0.0051639
2494.84558,0.0051563
2493.88120,0.0051702
2492.91682,0.0051962
2491.95244,0.0052286
2490.98806,0.0052655
2490.02369,0.0053231
2489.05931,0.0054123
2488.09493,0.0055266
2487.13055,0.0056041
2486.16618,0.0056321
2485.20180,0.0056347
2484.23742,0.0056326
2483.27304,0.0056260
2482.30866,0.0055901
2481.34429,0.0055378
2480.37991,0.0054604
2479.41553,0.0053983
2478.45115,0.0053815
2477.48677,0.0053595
2476.52240,0.0053072
2475.55802,0.0052249
2474.59364,0.0051910
2473.62926,0.0052162
2472.66488,0.0052107
2471.70051,0.0051878
2470.73613,0.0052063
2469.77175,0.0052399
2468.80737,0.0052402
2467.84300,0.0052178
2466.87862,0.0051844
2465.91424,0.0051838
2464.94986,0.0052157
2463.98548,0.0052338
2463.02111,0.0052474
2462.05673,0.0052231
2461.09235,0.0051950
2460.12797,0.0052173
2459.16359,0.0052527
2458.19922,0.0052636
2457.23484,0.0052139
2456.27046,0.0051383
2455.30608,0.0051086
2454.34171,0.0051246
2453.37733,0.0051030
2452.41295,0.0050495
2451.44857,0.0050328
2450.48419,0.0050299
2449.51982,0.0050753
2448.55544,0.0051430
2447.59106,0.0051708
2446.62668,0.0051837
2445.66230,0.0051771
2444.69793,0.0051699
2443.73355,0.0051211
2442.76917,0.0050068
2441.80479,0.0048765
2440.84041,0.0047521
2439.87604,0.0046826
2438.91166,0.0046761
2437.94728,0.0047247
2436.98290,0.0047916
2436.01853,0.0048678
2435.05415,0.0049824
2434.08977,0.0050859
2433.12539,0.0051801
2432.16101,0.0052257
2431.19664,0.0051883
2430.23226,0.0051007
2429.26788,0.0049616
2428.30350,0.0048494
2427.33912,0.0047870
2426.37475,0.0047517
2425.41037,0.0047483
2424.44599,0.0047716
2423.48161,0.0048193
2422.51724,0.0048622
2421.55286,0.0049564
2420.58848,0.0050494
2419.62410,0.0050695
2418.65972,0.0050847
2417.69535,0.0050667
2416.73097,0.0050430
2415.76659,0.0050239
2414.80221,0.0049824
2413.83783,0.0049514
2412.87346,0.0049059
2411.90908,0.0048658
2410.94470,0.0048438
2409.98032,0.0048630
2409.01594,0.0049013
2408.05157,0.0049006
2407.08719,0.0049066
2406.12281,0.0049020
2405.15843,0.0048922
2404.19406,0.0048881
2403.22968,0.0048711
2402.26530,0.0048837
2401.30092,0.0049211
2400.33654,0.0049853
2399.37217,0.0050495
2398.40779,0.0050973
2397.44341,0.0051193
2396.47903,0.0050717
2395.51465,0.0050220
2394.55028,0.0049761
2393.58590,0.0048967
2392.62152,0.0048127
2391.65714,0.0047076
2390.69276,0.0046269
2389.72839,0.0046196
2388.76401,0.0046503
2387.79963,0.0047086
2386.83525,0.0047936
2385.87088,0.0048681
2384.90650,0.0049229
2383.94212,0.0049935
2382.97774,0.0050764
2382.01336,0.0051627
2381.04899,0.0052369
2380.08461,0.0052771
2379.12023,0.0053497
2378.15585,0.0054691
2377.19147,0.0056060
2376.22710,0.0057867
2375.26272,0.0059780
2374.29834,0.0061486
2373.33396,0.0063057
2372.36959,0.0064667
2371.40521,0.0066589
2370.44083,0.0068609
2369.47645,0.0070553
2368.51207,0.0072452
2367.54770,0.0074131
2366.58332,0.0075329
2365.61894,0.0076229
2364.65456,0.0077082
2363.69018,0.0077609
2362.72581,0.0077832
2361.76143,0.0077898
2360.79705,0.0077925
2359.83267,0.0077982
2358.86829,0.0077815
2357.90392,0.0077418
2356.93954,0.0076461
2355.97516,0.0074612
2355.01078,0.0072085
2354.04641,0.0068877
2353.08203,0.0065069
2352.11765,0.0061281
2351.15327,0.0058393
2350.18889,0.0056927
2349.22452,0.0056774
2348.26014,0.0057606
2347.29576,0.0059260
2346.33138,0.0061419
2345.36700,0.0063655
2344.40263,0.0065958
2343.43825,0.0068002
2342.47387,0.0069226
2341.50949,0.0069667
2340.54512,0.0069608
2339.58074,0.0069320
2338.61636,0.0069081
2337.65198,0.0068988
2336.68760,0.0068942
2335.72323,0.0068832
2334.75885,0.0068475
2333.79447,0.0068085
2332.83009,0.0068067
2331.86571,0.0067989
2330.90134,0.0067649
2329.93696,0.0067392
2328.97258,0.0066972
2328.00820,0.0066181
2327.04382,0.0065481
2326.07945,0.0065006
2325.11507,0.0064347
2324.15069,0.0063294
2323.18631,0.0061906
2322.22194,0.0060759
2321.25756,0.0060050
2320.29318,0.0059096
2319.32880,0.0057951
2318.36442,0.0057060
2317.40005,0.0056335
2316.43567,0.0055695
2315.47129,0.0055184
2314.50691,0.0054358
2313.54253,0.0053201
2312.57816,0.0052289
2311.61378,0.0051316
2310.64940,0.0050527
2309.68502,0.0050331
2308.72065,0.0049924
2307.75627,0.0049360
2306.79189,0.0048914
2305.82751,0.0048796
2304.86313,0.0048882
2303.89876,0.0048797
2302.93438,0.0048450
2301.97000,0.0048193
2301.00562,0.0048202
2300.04124,0.0048020
2299.07687,0.0047843
2298.11249,0.0047954
2297.14811,0.0047910
2296.18373,0.0047866
2295.21935,0.0047821
2294.25498,0.0047777
2293.29060,0.0047733
2292.32622,0.0047689
2291.36184,0.0047644
2290.39747,0.0047600
2289.43309,0.0047556
2288.46871,0.0047512
2287.50433,0.0047468
2286.53995,0.0047423
2285.57558,0.0047379
2284.61120,0.0047335
2283.64682,0.0047291
2282.68244,0.0047246
2281.71806,0.0047202
2280.75369,0.0047158
2279.78931,0.0047114
2278.82493,0.0047069
2277.86055,0.0047025
2276.89618,0.0046981
2275.93180,0.0046937
2274.96742,0.0046892
2274.00304,0.0046848
2273.03866,0.0046804
2272.07429,0.0046760
2271.10991,0.0046715
2270.14553,0.0046671
2269.18115,0.0046627
2268.21677,0.0046583
2267.25240,0.0046538
2266.28802,0.0046494
2265.32364,0.0046450
2264.35926,0.0046406
2263.39488,0.0046361
2262.43051,0.0046317
2261.46613,0.0046273
2260.50175,0.0046229
2259.53737,0.0046184
2258.57300,0.0046140
2257.60862,0.0046096
2256.64424,0.0046052
2255.67986,0.0046007
2254.71548,0.0045963
2253.75111,0.0045919
2252.78673,0.0045875
2251.82235,0.0045830
2250.85797,0.0045786
2249.89359,0.0045742
2248.92922,0.0045698
2247.96484,0.0045653
2247.00046,0.0045609
2246.03608,0.0045565
2245.07171,0.0045521
2244.10733,0.0045476
2243.14295,0.0045432
2242.17857,0.0045388
2241.21419,0.0045344
2240.24982,0.0045299
2239.28544,0.0045255
2238.32106,0.0045211
2237.35668,0.0045167
2236.39230,0.0045122
2235.42793,0.0045078
2234.46355,0.0045034
2233.49917,0.0044990
2232.53479,0.0044946
2231.57041,0.0044901
2230.60604,0.0044857
2229.64166,0.0044813
2228.67728,0.0044769
2227.71290,0.0044724
2226.74853,0.0044680
2225.78415,0.0044636
2224.81977,0.0044592
2223.85539,0.0044547
2222.89101,0.0044503
2221.92664,0.0044459
2220.96226,0.0044415
2219.99788,0.0044370
2219.03350,0.0044326
2218.06912,0.0044282
2217.10475,0.0044238
2216.14037,0.0044193
2215.17599,0.0044149
2214.21161,0.0044105
2213.24724,0.0044061
2212.28286,0.0044016
2211.31848,0.0043972
2210.35410,0.0043928
2209.38972,0.0043884
2208.42535,0.0043839
2207.46097,0.0043795
2206.49659,0.0043751
2205.53221,0.0043707
2204.56783,0.0043662
2203.60346,0.0043618
2202.63908,0.0043574
2201.67470,0.0043530
2200.71032,0.0043485
2199.74594,0.0043441
2198.78157,0.0043397
2197.81719,0.0043353
2196.85281,0.0043308
2195.88843,0.0043264
2194.92406,0.0043220
2193.95968,0.0043176
2192.99530,0.0043131
2192.03092,0.0043087
2191.06654,0.0043043
2190.10217,0.0042999
2189.13779,0.0042954
2188.17341,0.0042910
2187.20903,0.0042866
2186.24465,0.0042822
2185.28028,0.0042777
2184.31590,0.0042733
2183.35152,0.0042689
2182.38714,0.0042645
2181.42276,0.0042600
2180.45839,0.0042556
2179.49401,0.0042512
2178.52963,0.0042468
2177.56525,0.0042424
2176.60088,0.0042379
2175.63650,0.0042335
2174.67212,0.0042291
2173.70774,0.0042247
2172.74336,0.0042202
2171.77899,0.0042158
2170.81461,0.0042114
2169.85023,0.0042070
2168.88585,0.0042025
2167.92147,0.0041981
2166.95710,0.0041937
2165.99272,0.0041893
2165.02834,0.0041848
2164.06396,0.0041804
2163.09959,0.0041760
2162.13521,0.0041716
2161.17083,0.0041671
2160.20645,0.0041627
2159.24207,0.0041583
2158.27770,0.0041539
2157.31332,0.0041494
2156.34894,0.0041450
2155.38456,0.0041406
2154.42018,0.0041362
2153.45581,0.0041317
2152.49143,0.0041273
2151.52705,0.0041229
2150.56267,0.0041185
2149.59829,0.0041140
2148.63392,0.0041096
2147.66954,0.0041052
2146.70516,0.0041008
2145.74078,0.0040963
2144.77641,0.0040919
2143.81203,0.0040875
2142.84765,0.0040831
2141.88327,0.0040786
2140.91889,0.0040742
2139.95452,0.0040698
2138.99014,0.0040654
2138.02576,0.0040609
2137.06138,0.0040565
2136.09700,0.0040521
2135.13263,0.0040477
2134.16825,0.0040432
2133.20387,0.0040388
2132.23949,0.0040344
2131.27512,0.0040300
2130.31074,0.0040255
2129.34636,0.0040211
2128.38198,0.0040167
2127.41760,0.0040123
2126.45323,0.0040078
2125.48885,0.0040034
2124.52447,0.0039990
2123.56009,0.0039946
2122.59571,0.0039902
2121.63134,0.0039857
2120.66696,0.0039813
2119.70258,0.0039769
2118.73820,0.0039725
2117.77382,0.0039680
2116.80945,0.0039636
2115.84507,0.0039592
2114.88069,0.0039548
2113.91631,0.0039503
2112.95194,0.0039459
2111.98756,0.0039415
2111.02318,0.0039371
2110.05880,0.0039326
2109.09442,0.0039282
2108.13005,0.0039238
2107.16567,0.0039194
2106.20129,0.0039149
2105.23691,0.0039105
2104.27253,0.0039061
2103.30816,0.0039017
2102.34378,0.0038972
2101.37940,0.0038928
2100.41502,0.0038884
2099.45065,0.0038840
2098.48627,0.0038795
2097.52189,0.0038751
2096.55751,0.0038707
2095.59313,0.0038663
2094.62876,0.0038618
2093.66438,0.0038574
2092.70000,0.0038530
2091.73562,0.0038486
2090.77124,0.0038441
2089.80687,0.0038397
2088.84249,0.0038353
2087.87811,0.0038309
2086.91373,0.0038264
2085.94935,0.0038220
2084.98498,0.0038176
2084.02060,0.0038132
2083.05622,0.0038087
2082.09184,0.0038043
2081.12747,0.0037999
2080.16309,0.0037955
2079.19871,0.0037910
2078.23433,0.0037866
2077.26995,0.0037822
2076.30558,0.0037778
2075.34120,0.0037733
2074.37682,0.0037689
2073.41244,0.0037645
2072.44806,0.0037601
2071.48369,0.0037556
2070.51931,0.0037512
2069.55493,0.0037468
2068.59055,0.0037424
2067.62618,0.0037380
2066.66180,0.0037335
2065.69742,0.0037291
2064.73304,0.0037247
2063.76866,0.0037203
2062.80429,0.0037158
2061.83991,0.0037114
2060.87553,0.0037070
2059.91115,0.0037026
2058.94677,0.0036981
2057.98240,0.0036937
2057.01802,0.0036893
2056.05364,0.0036849
2055.08926,0.0036804
2054.12488,0.0036760
2053.16051,0.0036716
2052.19613,0.0036672
2051.23175,0.0036627
2050.26737,0.0036583
2049.30300,0.0036539
2048.33862,0.0036495
2047.37424,0.0036450
2046.40986,0.0036406
2045.44548,0.0036362
2044.48111,0.0036318
2043.51673,0.0036273
2042.55235,0.0036229
2041.58797,0.0036185
2040.62359,0.0036141
2039.65922,0.0036096
2038.69484,0.0036052
2037.73046,0.0036008
2036.76608,0.0035964
2035.80171,0.0035919
2034.83733,0.0035875
2033.87295,0.0035831
2032.90857,0.0035787
2031.94419,0.0035742
2030.97982,0.0035698
2030.01544,0.0035654
2029.05106,0.0035610
2028.08668,0.0035565
2027.12230,0.0035521
2026.15793,0.0035477
2025.19355,0.0035433
2024.22917,0.0035388
2023.26479,0.0035344
2022.30041,0.0035300
2021.33604,0.0035256
2020.37166,0.0035211
2019.40728,0.0035167
2018.44290,0.0035123
2017.47853,0.0035079
2016.51415,0.0035034
2015.54977,0.0034990
2014.58539,0.0034946
2013.62101,0.0034902
2012.65664,0.0034858
2011.69226,0.0034813
2010.72788,0.0034769
2009.76350,0.0034725
2008.79912,0.0034681
2007.83475,0.0034636
2006.87037,0.0034592
2005.90599,0.0034548
2004.94161,0.0034504
2003.97724,0.0034459
2003.01286,0.0034415
2002.04848,0.0034371
2001.08410,0.0034327
2000.11972,0.0034282
1999.15535,0.0034238
1998.19097,0.0034194
1997.22659,0.0034150
1996.26221,0.0034105
1995.29783,0.0034061
1994.33346,0.0034017
1993.36908,0.0033973
1992.40470,0.0033928
1991.44032,0.0033884
1990.47594,0.0033840
1989.51157,0.0033796
1988.54719,0.0033751
1987.58281,0.0033707
1986.61843,0.0033663
1985.65406,0.0033619
1984.68968,0.0033574
1983.72530,0.0033530
1982.76092,0.0033486
1981.79654,0.0033442
1980.83217,0.0033397
1979.86779,0.0033353
1978.90341,0.0033309
1977.93903,0.0033265
1976.97465,0.0033220
1976.01028,0.0033176
1975.04590,0.0033132
1974.08152,0.0033088
1973.11714,0.0033043
1972.15276,0.0032999
1971.18839,0.0032955
1970.22401,0.0032911
1969.25963,0.0032866
1968.29525,0.0032822
1967.33088,0.0032778
1966.36650,0.0032734
1965.40212,0.0032689
1964.43774,0.0032645
1963.47336,0.0032601
1962.50899,0.0032557
1961.54461,0.0032512
1960.58023,0.0032468
1959.61585,0.0032424
1958.65147,0.0032380
1957.68710,0.0032336
1956.72272,0.0032291
1955.75834,0.0032247
1954.79396,0.0032203
1953.82959,0.0032159
1952.86521,0.0032114
1951.90083,0.0032070
1950.93645,0.0032026
1949.97207,0.0031982
1949.00770,0.0031937
1948.04332,0.0031893
1947.07894,0.0031849
1946.11456,0.0031805
1945.15018,0.0031760
1944.18581,0.0031716
1943.22143,0.0031672
1942.25705,0.0031628
1941.29267,0.0031583
1940.32829,0.0031539
1939.36392,0.0031495
1938.39954,0.0031451
1937.43516,0.0031406
1936.47078,0.0031362
1935.50641,0.0031318
1934.54203,0.0031274
1933.57765,0.0031229
1932.61327,0.0031185
1931.64889,0.0031141
1930.68452,0.0031097
1929.72014,0.0031052
1928.75576,0.0031008
1927.79138,0.0030964
1926.82700,0.0030920
1925.86263,0.0030875
1924.89825,0.0030831
1923.93387,0.0030787
1922.96949,0.0030743
1922.00512,0.0030698
1921.04074,0.0030654
1920.07636,0.0030610
1919.11198,0.0030566
1918.14760,0.0030521
1917.18323,0.0030477
1916.21885,0.0030433
1915.25447,0.0030389
1914.29009,0.0030344
1913.32571,0.0030300
1912.36134,0.0030256
1911.39696,0.0030212
1910.43258,0.0030167
1909.46820,0.0030123
1908.50382,0.0030079
1907.53945,0.0030035
1906.57507,0.0029990
1905.61069,0.0029946
1904.64631,0.0029902
1903.68194,0.0029858
1902.71756,0.0029814
1901.75318,0.0029769
1900.78880,0.0029725
1899.82442,0.0029681
1898.86005,0.0029637
1897.89567,0.0029592
1896.93129,0.0029548
1895.96691,0.0029504
1895.00253,0.0029460
1894.03816,0.0029415
1893.07378,0.0029371
1892.10940,0.0029327
1891.14502,0.0029283
1890.18065,0.0029238
1889.21627,0.0029194
1888.25189,0.0029150
1887.28751,0.0029106
1886.32313,0.0028919
1885.35876,0.0028810
1884.39438,0.0028854
1883.43000,0.0029208
1882.46562,0.0029758
1881.50124,0.0030138
1880.53687,0.0030082
1879.57249,0.0029987
1878.60811,0.0029928
1877.64373,0.0029569
1876.67935,0.0028890
1875.71498,0.0027953
1874.75060,0.0027097
1873.78622,0.0026740
1872.82184,0.0026947
1871.85747,0.0027870
1870.89309,0.0029015
1869.92871,0.0029748
1868.96433,0.0029904
1867.99995,0.0029954
1867.03558,0.0029857
1866.07120,0.0029698
1865.10682,0.0029643
1864.14244,0.0029330
1863.17806,0.0028817
1862.21369,0.0028374
1861.24931,0.0028419
1860.28493,0.0028722
1859.32055,0.0028759
1858.35618,0.0028622
1857.39180,0.0028507
1856.42742,0.0028401
1855.46304,0.0028227
1854.49866,0.0028398
1853.53429,0.0029074
1852.56991,0.0029772
1851.60553,0.0030146
1850.64115,0.0030308
1849.67677,0.0030323
1848.71240,0.0030075
1847.74802,0.0029865
1846.78364,0.0029915
1845.81926,0.0030122
1844.85488,0.0030234
1843.89051,0.0030254
1842.92613,0.0030551
1841.96175,0.0031287
1840.99737,0.0032135
1840.03300,0.0032562
1839.06862,0.0032531
1838.10424,0.0032108
1837.13986,0.0031627
1836.17548,0.0031364
1835.21111,0.0031142
1834.24673,0.0031136
1833.28235,0.0031206
1832.31797,0.0031143
1831.35359,0.0031153
1830.38922,0.0031474
1829.42484,0.0032006
1828.46046,0.0032546
1827.49608,0.0033235
1826.53171,0.0033795
1825.56733,0.0034188
1824.60295,0.0034607
1823.63857,0.0034884
1822.67419,0.0034853
1821.70982,0.0034273
1820.74544,0.0033512
1819.78106,0.0032999
1818.81668,0.0032687
1817.85230,0.0032595
1816.88793,0.0032913
1815.92355,0.0033602
1814.95917,0.0034206
1813.99479,0.0034741
1813.03041,0.0035337
1812.06604,0.0035763
1811.10166,0.0035929
1810.13728,0.0036064
1809.17290,0.0036291
1808.20853,0.0036358
1807.24415,0.0036508
1806.27977,0.0037024
1805.31539,0.0037651
1804.35101,0.0038128
1803.38664,0.0038410
1802.42226,0.0038630
1801.45788,0.0038615
1800.49350,0.0038326
1799.52912,0.0038103
1798.56475,0.0038062
1797.60037,0.0038012
1796.63599,0.0037913
1795.67161,0.0038075
1794.70724,0.0038425
1793.74286,0.0038648
1792.77848,0.0038716
1791.81410,0.0038816
1790.84972,0.0038982
1789.88535,0.0038955
1788.92097,0.0038956
1787.95659,0.0039098
1786.99221,0.0039281
1786.02783,0.0039675
1785.06346,0.0040085
1784.09908,0.0040503
1783.13470,0.0041086
1782.17032,0.0041672
1781.20594,0.0042135
1780.24157,0.0042600
1779.27719,0.0043206
1778.31281,0.0043717
1777.34843,0.0044077
1776.38406,0.0044428
1775.41968,0.0044879
1774.45530,0.0045403
1773.49092,0.0045741
1772.52654,0.0046155
1771.56217,0.0046767
1770.59779,0.0047312
1769.63341,0.0047801
1768.66903,0.0048406
1767.70465,0.0049258
1766.74028,0.0050057
1765.77590,0.0050820
1764.81152,0.0051788
1763.84714,0.0052645
1762.88276,0.0053268
1761.91839,0.0053864
1760.95401,0.0054600
1759.98963,0.0055375
1759.02525,0.0056082
1758.06088,0.0056877
1757.09650,0.0057744
1756.13212,0.0058609
1755.16774,0.0059597
1754.20336,0.0060729
1753.23899,0.0061813
1752.27461,0.0062807
1751.31023,0.0063762
1750.34585,0.0064749
1749.38147,0.0065905
1748.41710,0.0067156
1747.45272,0.0068305
1746.48834,0.0069240
1745.52396,0.0070033
1744.55959,0.0070865
1743.59521,0.0071763
1742.63083,0.0072551
1741.66645,0.0073234
1740.70207,0.0073957
1739.73770,0.0074533
1738.77332,0.0075011
1737.80894,0.0075572
1736.84456,0.0076135
1735.88018,0.0076727
1734.91581,0.0077296
1733.95143,0.0077821
1732.98705,0.0078254
1732.02267,0.0078574
1731.05829,0.0078883
1730.09392,0.0079057
1729.12954,0.0079000
1728.16516,0.0078728
1727.20078,0.0078494
1726.23641,0.0078477
1725.27203,0.0078648
1724.30765,0.0078979
1723.34327,0.0079212
1722.37889,0.0079193
1721.41452,0.0078997
1720.45014,0.0078832
1719.48576,0.0078620
1718.52138,0.0078101
1717.55700,0.0077503
1716.59263,0.0076988
1715.62825,0.0076606
1714.66387,0.0076417
1713.69949,0.0076325
1712.73512,0.0076240
1711.77074,0.0076134
1710.80636,0.0076043
1709.84198,0.0075897
1708.87760,0.0075804
1707.91323,0.0075747
1706.94885,0.0075608
1705.98447,0.0075479
1705.02009,0.0075060
1704.05571,0.0074409
1703.09134,0.0073946
1702.12696,0.0073712
1701.16258,0.0073522
1700.19820,0.0073227
1699.23382,0.0072968
1698.26945,0.0072816
1697.30507,0.0072768
1696.34069,0.0072880
1695.37631,0.0073111
1694.41194,0.0073323
1693.44756,0.0073400
1692.48318,0.0073592
1691.51880,0.0074050
1690.55442,0.0074494
1689.59005,0.0074555
1688.62567,0.0074340
1687.66129,0.0074238
1686.69691,0.0074248
1685.73253,0.0074385
1684.76816,0.0074808
1683.80378,0.0075410
1682.83940,0.0076076
1681.87502,0.0076817
1680.91065,0.0077682
1679.94627,0.0078581
1678.98189,0.0079362
1678.01751,0.0080041
1677.05313,0.0080707
1676.08876,0.0081441
1675.12438,0.0082224
1674.16000,0.0083033
1673.19562,0.0083872
1672.23124,0.0084694
1671.26687,0.0085544
1670.30249,0.0086384
1669.33811,0.0087309
1668.37373,0.0088387
1667.40935,0.0089527
1666.44498,0.0090699
1665.48060,0.0091690
1664.51622,0.0092619
1663.55184,0.0093629
1662.58747,0.0094601
1661.62309,0.0095627
1660.65871,0.0096644
1659.69433,0.0097654
1658.72995,0.0098585
1657.76558,0.0099349
1656.80120,0.0100137
1655.83682,0.0100865
1654.87244,0.0101588
1653.90806,0.0102347
1652.94369,0.0103090
1651.97931,0.0103879
1651.01493,0.0104695
1650.05055,0.0105578
1649.08618,0.0106533
1648.12180,0.0107630
1647.15742,0.0108703
1646.19304,0.0109573
1645.22866,0.0110552
1644.26429,0.0111668
1643.29991,0.0112868
1642.33553,0.0114050
1641.37115,0.0114965
1640.40677,0.0115695
1639.44240,0.0116385
1638.47802,0.0117033
1637.51364,0.0117611
1636.54926,0.0118231
1635.58488,0.0118934
1634.62051,0.0119671
1633.65613,0.0120538
1632.69175,0.0121502
1631.72737,0.0122556
1630.76300,0.0123657
1629.79862,0.0124596
1628.83424,0.0125300
1627.86986,0.0125772
1626.90548,0.0126045
1625.94111,0.0126140
1624.97673,0.0126114
1624.01235,0.0126090
1623.04797,0.0126105
1622.08359,0.0126133
1621.11922,0.0126212
1620.15484,0.0126402
1619.19046,0.0126605
1618.22608,0.0126727
1617.26171,0.0126729
1616.29733,0.0126638
1615.33295,0.0126527
1614.36857,0.0126385
1613.40419,0.0126260
1612.43982,0.0126205
1611.47544,0.0126210
1610.51106,0.0126220
1609.54668,0.0126294
1608.58230,0.0126431
1607.61793,0.0126483
1606.65355,0.0126554
1605.68917,0.0126628
1604.72479,0.0126644
1603.76041,0.0126694
1602.79604,0.0126795
1601.83166,0.0126931
1600.86728,0.0126969
1599.90290,0.0126849
1598.93853,0.0126657
1597.97415,0.0126477
1597.00977,0.0126251
1596.04539,0.0125934
1595.08101,0.0125631
1594.11664,0.0125283
1593.15226,0.0124916
1592.18788,0.0124680
1591.22350,0.0124545
1590.25912,0.0124381
1589.29475,0.0124024
1588.33037,0.0123417
1587.36599,0.0122655
1586.40161,0.0121797
1585.43724,0.0120844
1584.47286,0.0119903
1583.50848,0.0118980
1582.54410,0.0118040
1581.57972,0.0117085
1580.61535,0.0116089
1579.65097,0.0115153
1578.68659,0.0114235
1577.72221,0.0113169
1576.75783,0.0111967
1575.79346,0.0110742
1574.82908,0.0109440
1573.86470,0.0108060
1572.90032,0.0106742
1571.93594,0.0105427
1570.97157,0.0104104
1570.00719,0.0102746
1569.04281,0.0101437
1568.07843,0.0100379
1567.11406,0.0099460
1566.14968,0.0098569
1565.18530,0.0097621
1564.22092,0.0096504
1563.25654,0.0095128
1562.29217,0.0093588
1561.32779,0.0092135
1560.36341,0.0090782
1559.39903,0.0089453
1558.43465,0.0088233
1557.47028,0.0087394
1556.50590,0.0086910
1555.54152,0.0086489
1554.57714,0.0086051
1553.61276,0.0085473
1552.64839,0.0084730
1551.68401,0.0083899
1550.71963,0.0083001
1549.75525,0.0082113
1548.79088,0.0081200
1547.82650,0.0080163
1546.86212,0.0079181
1545.89774,0.0078464
1544.93336,0.0077834
1543.96899,0.0077111
1543.00461,0.0076401
1542.04023,0.0075865
1541.07585,0.0075541
1540.11147,0.0075284
1539.14710,0.0074950
1538.18272,0.0074512
1537.21834,0.0074032
1536.25396,0.0073512
1535.28959,0.0072970
1534.32521,0.0072482
1533.36083,0.0071958
1532.39645,0.0071294
1531.43207,0.0070651
1530.46770,0.0070299
1529.50332,0.0070154
1528.53894,0.0069973
1527.57456,0.0069746
1526.61018,0.0069517
1525.64581,0.0069265
1524.68143,0.0068965
1523.71705,0.0068639
1522.75267,0.0068285
1521.78829,0.0067845
1520.82392,0.0067366
1519.85954,0.0066996
1518.89516,0.0066824
1517.93078,0.0066768
1516.96641,0.0066758
1516.00203,0.0066831
1515.03765,0.0066985
1514.07327,0.0067139
1513.10889,0.0067232
1512.14452,0.0067223
1511.18014,0.0067073
1510.21576,0.0066800
1509.25138,0.0066502
1508.28700,0.0066240
1507.32263,0.0066015
1506.35825,0.0065867
1505.39387,0.0065769
1504.42949,0.0065721
1503.46512,0.0065861
1502.50074,0.0066178
1501.53636,0.0066463
1500.57198,0.0066632
1499.60760,0.0066817
1498.64323,0.0067013
1497.67885,0.0067196
1496.71447,0.0067505
1495.75009,0.0067885
1494.78571,0.0068243
1493.82134,0.0068590
1492.85696,0.0068892
1491.89258,0.0069172
1490.92820,0.0069449
1489.96382,0.0069652
1488.99945,0.0069821
1488.03507,0.0070076
1487.07069,0.0070342
1486.10631,0.0070644
1485.14194,0.0071136
1484.17756,0.0071686
1483.21318,0.0072249
1482.24880,0.0072887
1481.28442,0.0073442
1480.32005,0.0074012
1479.35567,0.0074806
1478.39129,0.0075586
1477.42691,0.0076177
1476.46253,0.0076739
1475.49816,0.0077266
1474.53378,0.0077761
1473.56940,0.0078421
1472.60502,0.0079188
1471.64065,0.0079888
1470.67627,0.0080605
1469.71189,0.0081398
1468.74751,0.0082312
1467.78313,0.0083281
1466.81876,0.0083965
1465.85438,0.0084424
1464.89000,0.0084906
1463.92562,0.0085454
1462.96124,0.0086182
1461.99687,0.0086951
1461.03249,0.0087551
1460.06811,0.0088023
1459.10373,0.0088615
1458.13935,0.0089426
1457.17498,0.0090280
1456.21060,0.0091136
1455.24622,0.0091906
1454.28184,0.0092587
1453.31747,0.0093297
1452.35309,0.0093996
1451.38871,0.0094641
1450.42433,0.0095058
1449.45995,0.0095319
1448.49558,0.0095666
1447.53120,0.0096153
1446.56682,0.0096858
1445.60244,0.0097709
1444.63806,0.0098633
1443.67369,0.0099571
1442.70931,0.0100425
1441.74493,0.0101117
1440.78055,0.0101488
1439.81618,0.0101724
1438.85180,0.0102053
1437.88742,0.0102464
1436.92304,0.0102950
1435.95866,0.0103483
1434.99429,0.0104204
1434.02991,0.0105069
1433.06553,0.0105922
1432.10115,0.0106756
1431.13677,0.0107492
1430.17240,0.0108065
1429.20802,0.0108457
1428.24364,0.0108808
1427.27926,0.0109233
1426.31488,0.0109728
1425.35051,0.0110272
1424.38613,0.0110821
1423.42175,0.0111556
1422.45737,0.0112433
1421.49300,0.0113215
1420.52862,0.0113962
1419.56424,0.0114746
1418.59986,0.0115496
1417.63548,0.0116144
1416.67111,0.0116698
1415.70673,0.0117158
1414.74235,0.0117568
1413.77797,0.0117951
1412.81359,0.0118298
1411.84922,0.0118708
1410.88484,0.0119135
1409.92046,0.0119535
1408.95608,0.0119978
1407.99171,0.0120442
1407.02733,0.0120831
1406.06295,0.0121177
1405.09857,0.0121543
1404.13419,0.0121943
1403.16982,0.0122434
1402.20544,0.0122859
1401.24106,0.0123074
1400.27668,0.0123150
1399.31230,0.0123227
1398.34793,0.0123429
1397.38355,0.0123651
1396.41917,0.0123738
1395.45479,0.0123726
1394.49041,0.0123786
1393.52604,0.0123938
1392.56166,0.0124167
1391.59728,0.0124513
1390.63290,0.0124708
1389.66853,0.0124684
1388.70415,0.0124658
1387.73977,0.0124706
1386.77539,0.0124812
1385.81101,0.0124878
1384.84664,0.0124851
1383.88226,0.0124852
1382.91788,0.0124906
1381.95350,0.0124808
1380.98912,0.0124694
1380.02475,0.0124759
1379.06037,0.0124812
1378.09599,0.0124776
1377.13161,0.0124658
1376.16724,0.0124541
1375.20286,0.0124484
1374.23848,0.0124413
1373.27410,0.0124300
1372.30972,0.0124110
1371.34535,0.0123888
1370.38097,0.0123650
1369.41659,0.0123445
1368.45221,0.0123273
1367.48783,0.0123004
1366.52346,0.0122681
1365.55908,0.0122393
1364.59470,0.0122168
1363.63032,0.0122015
1362.66594,0.0121895
1361.70157,0.0121674
1360.73719,0.0121344
1359.77281,0.0120996
1358.80843,0.0120574
1357.84406,0.0120117
1356.87968,0.0119664
1355.91530,0.0119208
1354.95092,0.0118850
1353.98654,0.0118574
1353.02217,0.0118292
1352.05779,0.0118029
1351.09341,0.0117795
1350.12903,0.0117495
1349.16465,0.0117100
1348.20028,0.0116605
1347.23590,0.0116093
1346.27152,0.0115687
1345.30714,0.0115266
1344.34276,0.0114828
1343.37839,0.0114515
1342.41401,0.0114255
1341.44963,0.0113915
1340.48525,0.0113522
1339.52088,0.0113176
1338.55650,0.0112882
1337.59212,0.0112575
1336.62774,0.0112189
1335.66336,0.0111758
1334.69899,0.0111344
1333.73461,0.0110961
1332.77023,0.0110644
1331.80585,0.0110411
1330.84147,0.0110235
1329.87710,0.0110105
1328.91272,0.0110042
1327.94834,0.0109975
1326.98396,0.0109891
1326.01959,0.0109825
1325.05521,0.0109681
1324.09083,0.0109459
1323.12645,0.0109193
1322.16207,0.0108912
1321.19770,0.0108717
1320.23332,0.0108576
1319.26894,0.0108479
1318.30456,0.0108495
1317.34018,0.0108522
1316.37581,0.0108440
1315.41143,0.0108298
1314.44705,0.0108138
1313.48267,0.0107967
1312.51829,0.0107793
1311.55392,0.0107592
1310.58954,0.0107394
1309.62516,0.0107273
1308.66078,0.0107170
1307.69641,0.0106987
1306.73203,0.0106763
1305.76765,0.0106537
1304.80327,0.0106277
1303.83889,0.0105948
1302.87452,0.0105618
1301.91014,0.0105446
1300.94576,0.0105505
1299.98138,0.0105676
1299.01700,0.0105841
1298.05263,0.0106054
1297.08825,0.0106276
1296.12387,0.0106363
1295.15949,0.0106392
1294.19512,0.0106459
1293.23074,0.0106465
1292.26636,0.0106399
1291.30198,0.0106388
1290.33760,0.0106418
1289.37323,0.0106425
1288.40885,0.0106423
1287.44447,0.0106522
1286.48009,0.0106763
1285.51571,0.0106928
1284.55134,0.0106958
1283.58696,0.0107002
1282.62258,0.0107102
1281.65820,0.0107214
1280.69382,0.0107352
1279.72945,0.0107496
1278.76507,0.0107486
1277.80069,0.0107462
1276.83631,0.0107613
1275.87194,0.0107841
1274.90756,0.0108071
1273.94318,0.0108213
1272.97880,0.0108283
1272.01442,0.0108447
1271.05005,0.0108765
1270.08567,0.0109101
1269.12129,0.0109420
1268.15691,0.0109804
1267.19253,0.0110162
1266.22816,0.0110501
1265.26378,0.0110782
1264.29940,0.0110949
1263.33502,0.0111110
1262.37065,0.0111186
1261.40627,0.0111174
1260.44189,0.0111168
1259.47751,0.0111059
1258.51313,0.0110849
1257.54876,0.0110746
1256.58438,0.0110806
1255.62000,0.0110911
1254.65562,0.0110964
1253.69124,0.0110997
1252.72687,0.0111130
1251.76249,0.0111345
1250.79811,0.0111571
1249.83373,0.0111764
1248.86935,0.0111853
1247.90498,0.0111876
1246.94060,0.0111949
1245.97622,0.0112062
1245.01184,0.0112114
1244.04747,0.0112151
1243.08309,0.0112167
1242.11871,0.0112140
1241.15433,0.0112211
1240.18995,0.0112349
1239.22558,0.0112403
1238.26120,0.0112339
1237.29682,0.0112259
1236.33244,0.0112183
1235.36806,0.0112060
1234.40369,0.0111908
1233.43931,0.0111757
1232.47493,0.0111723
1231.51055,0.0111725
1230.54618,0.0111702
1229.58180,0.0111761
1228.61742,0.0111763
1227.65304,0.0111612
1226.68866,0.0111428
1225.72429,0.0111311
1224.75991,0.0111227
1223.79553,0.0111164
1222.83115,0.0111152
1221.86677,0.0111165
1220.90240,0.0111202
1219.93802,0.0111132
1218.97364,0.0110930
1218.00926,0.0110654
1217.04488,0.0110238
1216.08051,0.0109706
1215.11613,0.0109175
1214.15175,0.0108765
1213.18737,0.0108414
1212.22300,0.0108075
1211.25862,0.0107846
1210.29424,0.0107718
1209.32986,0.0107590
1208.36548,0.0107383
1207.40111,0.0107164
1206.43673,0.0107032
1205.47235,0.0106951
1204.50797,0.0106853
1203.54359,0.0106792
1202.57922,0.0106796
1201.61484,0.0106726
1200.65046,0.0106607
1199.68608,0.0106537
1198.72171,0.0106432
1197.75733,0.0106264
1196.79295,0.0106114
1195.82857,0.0106033
1194.86419,0.0106113
1193.89982,0.0106292
1192.93544,0.0106327
1191.97106,0.0106279
1191.00668,0.0106187
1190.04230,0.0105976
1189.07793,0.0105798
1188.11355,0.0105654
1187.14917,0.0105528
1186.18479,0.0105532
1185.22041,0.0105627
1184.25604,0.0105721
1183.29166,0.0105904
1182.32728,0.0106165
1181.36290,0.0106306
1180.39853,0.0106463
1179.43415,0.0106671
1178.46977,0.0106782
1177.50539,0.0106865
1176.54101,0.0106839
1175.57664,0.0106683
1174.61226,0.0106474
1173.64788,0.0106275
1172.68350,0.0106236
1171.71912,0.0106432
1170.75475,0.0106786
1169.79037,0.0107075
1168.82599,0.0107336
1167.86161,0.0107702
1166.89724,0.0108057
1165.93286,0.0108419
1164.96848,0.0108734
1164.00410,0.0108860
1163.03972,0.0108912
1162.07535,0.0109128
1161.11097,0.0109568
1160.14659,0.0109974
1159.18221,0.0110079
1158.21783,0.0109819
1157.25346,0.0109503
1156.28908,0.0109389
1155.32470,0.0109350
1154.36032,0.0109536
1153.39594,0.0109917
1152.43157,0.0110144
1151.46719,0.0110247
1150.50281,0.0110406
1149.53843,0.0110791
1148.57406,0.0111267
1147.60968,0.0111598
1146.64530,0.0111883
1145.68092,0.0112244
1144.71654,0.0112585
1143.75217,0.0112891
1142.78779,0.0113438
1141.82341,0.0114037
1140.85903,0.0114344
1139.89465,0.0114484
1138.93028,0.0114659
1137.96590,0.0115003
1137.00152,0.0115399
1136.03714,0.0115871
1135.07276,0.0116459
1134.10839,0.0117024
1133.14401,0.0117600
1132.17963,0.0118200
1131.21525,0.0118890
1130.25088,0.0119532
1129.28650,0.0120049
1128.32212,0.0120589
1127.35774,0.0121142
1126.39336,0.0121696
1125.42899,0.0122248
1124.46461,0.0122826
1123.50023,0.0123173
1122.53585,0.0123318
1121.57147,0.0123612
1120.60710,0.0123926
1119.64272,0.0124287
1118.67834,0.0124689
1117.71396,0.0125060
1116.74959,0.0125500
1115.78521,0.0125918
1114.82083,0.0126275
1113.85645,0.0126605
1112.89207,0.0126923
1111.92770,0.0127174
1110.96332,0.0127454
1109.99894,0.0127911
1109.03456,0.0128574
1108.07018,0.0129511
1107.10581,0.0130443
1106.14143,0.0131059
1105.17705,0.0131502
1104.21267,0.0131896
1103.24829,0.0132071
1102.28392,0.0132142
1101.31954,0.0132350
1100.35516,0.0132506
1099.39078,0.0132588
1098.42641,0.0132741
1097.46203,0.0133003
1096.49765,0.0133342
1095.53327,0.0133627
1094.56889,0.0133841
1093.60452,0.0134038
1092.64014,0.0134267
1091.67576,0.0134430
1090.71138,0.0134598
1089.74700,0.0134944
1088.78263,0.0135321
1087.81825,0.0135645
1086.85387,0.0135947
1085.88949,0.0136349
1084.92512,0.0136783
1083.96074,0.0137069
1082.99636,0.0137336
1082.03198,0.0137588
1081.06760,0.0137804
1080.10323,0.0138040
1079.13885,0.0138309
1078.17447,0.0138628
1077.21009,0.0138919
1076.24571,0.0139278
1075.28134,0.0139883
1074.31696,0.0140624
1073.35258,0.0141116
1072.38820,0.0141318
1071.42382,0.0141637
1070.45945,0.0142004
1069.49507,0.0142206
1068.53069,0.0142358
1067.56631,0.0142463
1066.60194,0.0142533
1065.63756,0.0142693
1064.67318,0.0143008
1063.70880,0.0143211
1062.74442,0.0143082
1061.78005,0.0142865
1060.81567,0.0142671
1059.85129,0.0142452
1058.88691,0.0142133
1057.92253,0.0141695
1056.95816,0.0141272
1055.99378,0.0140701
1055.02940,0.0139991
1054.06502,0.0139349
1053.10065,0.0138599
1052.13627,0.0137713
1051.17189,0.0136839
1050.20751,0.0135997
1049.24313,0.0135188
1048.27876,0.0134325
1047.31438,0.0133342
1046.35000,0.0132337
1045.38562,0.0131344
1044.42124,0.0130206
1043.45687,0.0128992
1042.49249,0.0127838
1041.52811,0.0126698
1040.56373,0.0125646
1039.59935,0.0124590
1038.63498,0.0123450
1037.67060,0.0122425
1036.70622,0.0121441
1035.74184,0.0120351
1034.77747,0.0119355
1033.81309,0.0118517
1032.84871,0.0117691
1031.88433,0.0116882
1030.91995,0.0116136
1029.95558,0.0115596
1028.99120,0.0115205
1028.02682,0.0114636
1027.06244,0.0113939
1026.09806,0.0113152
1025.13369,0.0112148
1024.16931,0.0111027
1023.20493,0.0109971
1022.24055,0.0109005
1021.27618,0.0108013
1020.31180,0.0107077
1019.34742,0.0106273
1018.38304,0.0105753
1017.41866,0.0105446
1016.45429,0.0104985
1015.48991,0.0104630
1014.52553,0.0104319
1013.56115,0.0103654
1012.59677,0.0102869
1011.63240,0.0102177
1010.66802,0.0101507
1009.70364,0.0100736
1008.73926,0.0099939
1007.77488,0.0099154
1006.81051,0.0098409
1005.84613,0.0097784
1004.88175,0.0097157
1003.91737,0.0096778
1002.95300,0.0096631
1001.98862,0.0096282
1001.02424,0.0095896
1000.05986,0.0095659
999.09548,0.0095422
998.13111,0.0095170
997.16673,0.0094946
996.20235,0.0094622
995.23797,0.0094228
994.27359,0.0093947
993.30922,0.0093688
992.34484,0.0093512
991.38046,0.0093462
990.41608,0.0093188
989.45171,0.0092680
988.48733,0.0092117
987.52295,0.0091635
986.55857,0.0091441
985.59419,0.0091372
984.62982,0.0091306
983.66544,0.0091275
982.70106,0.0091277
981.73668,0.0091308
980.77230,0.0091256
979.80793,0.0091129
978.84355,0.0090815
977.87917,0.0090311
976.91479,0.0089754
975.95041,0.0089277
974.98604,0.0089106
974.02166,0.0089050
973.05728,0.0088859
972.09290,0.0088450
971.12853,0.0088056
970.16415,0.0087840
969.19977,0.0087657
968.23539,0.0087589
967.27101,0.0087504
966.30664,0.0087466
965.34226,0.0087416
964.37788,0.0087197
963.41350,0.0087000
962.44912,0.0086660
961.48475,0.0086144
960.52037,0.0085447
959.55599,0.0084723
958.59161,0.0084089
957.62724,0.0083522
956.66286,0.0083212
955.69848,0.0083019
954.73410,0.0082986
953.76972,0.0082836
952.80535,0.0082414
951.84097,0.0081984
950.87659,0.0081524
949.91221,0.0081343
948.94783,0.0081298
947.98346,0.0081169
947.01908,0.0081109
946.05470,0.0081179
945.09032,0.0081322
944.12594,0.0081487
943.16157,0.0081847
942.19719,0.0081964
941.23281,0.0081701
940.26843,0.0081370
939.30406,0.0081035
938.33968,0.0081005
937.37530,0.0081107
936.41092,0.0081129
935.44654,0.0081226
934.48217,0.0081320
933.51779,0.0081300
932.55341,0.0081343
931.58903,0.0081490
930.62465,0.0081419
929.66028,0.0081150
928.69590,0.0080769
927.73152,0.0080375
926.76714,0.0080146
925.80276,0.0079858
924.83839,0.0079340
923.87401,0.0078757
922.90963,0.0078254
921.94525,0.0077763
920.98088,0.0077352
920.01650,0.0077080
919.05212,0.0076851
918.08774,0.0076490
917.12336,0.0075944
916.15899,0.0075634
915.19461,0.0075566
914.23023,0.0075361
913.26585,0.0075157
912.30147,0.0075291
911.33710,0.0075606
910.37272,0.0075790
909.40834,0.0075857
908.44396,0.0075859
907.47959,0.0075845
906.51521,0.0075666
905.55083,0.0075551
904.58645,0.0075814
903.62207,0.0075987
902.65770,0.0076022
901.69332,0.0076058
900.72894,0.0075784
899.76456,0.0075128
898.80018,0.0074341
897.83581,0.0073614
896.87143,0.0073234
895.90705,0.0073441
894.94267,0.0073778
893.97829,0.0074098
893.01392,0.0074567
892.04954,0.0075076
891.08516,0.0075597
890.12078,0.0075778
889.15641,0.0075471
888.19203,0.0074940
887.22765,0.0074452
886.26327,0.0074139
885.29889,0.0074011
884.33452,0.0074025
883.37014,0.0073841
882.40576,0.0073498
881.44138,0.0073260
880.47700,0.0073045
879.51263,0.0072790
878.54825,0.0072617
877.58387,0.0072743
876.61949,0.0072930
875.65512,0.0072886
874.69074,0.0072717
873.72636,0.0072652
872.76198,0.0072727
871.79760,0.0072515
870.83323,0.0071842
869.86885,0.0071039
868.90447,0.0070417
867.94009,0.0069958
866.97571,0.0069797
866.01134,0.0070125
865.04696,0.0070464
864.08258,0.0070525
863.11820,0.0070567
862.15382,0.0070859
861.18945,0.0071188
860.22507,0.0071113
859.26069,0.0070737
858.29631,0.0070405
857.33194,0.0070325
856.36756,0.0070243
855.40318,0.0070197
854.43880,0.0070480
853.47442,0.0070794
852.51005,0.0071164
851.54567,0.0071463
850.58129,0.0071609
849.61691,0.0071824
848.65253,0.0071897
847.68816,0.0071740
846.72378,0.0071401
845.75940,0.0071144
844.79502,0.0070875
843.83065,0.0070458
842.86627,0.0070176
841.90189,0.0070053
840.93751,0.0070124
839.97313,0.0070071
839.00876,0.0069969
838.04438,0.0070193
837.08000,0.0070629
836.11562,0.0071083
835.15124,0.0071219
834.18687,0.0071048
833.22249,0.0070517
832.25811,0.0069944
831.29373,0.0069803
830.32935,0.0069848
829.36498,0.0069874
828.40060,0.0069777
827.43622,0.0069885
826.47184,0.0070267
825.50747,0.0070727
824.54309,0.0071155
823.57871,0.0071280
822.61433,0.0071042
821.64995,0.0070515
820.68558,0.0070345
819.72120,0.0070421
818.75682,0.0070150
817.79244,0.0069573
816.82806,0.0068832
815.86369,0.0068474
814.89931,0.0068528
813.93493,0.0068722
812.97055,0.0068881
812.00618,0.0068918
811.04180,0.0068851
810.07742,0.0068723
809.11304,0.0068723
808.14866,0.0068611
807.18429,0.0068443
806.21991,0.0068098
805.25553,0.0067637
804.29115,0.0067532
803.32677,0.0067554
802.36240,0.0067528
801.39802,0.0067554
800.43364,0.0068025
799.46926,0.0068442
798.50488,0.0068491
797.54051,0.0068871
796.57613,0.0069353
795.61175,0.0069737
794.64737,0.0070022
793.68300,0.0070220
792.71862,0.0070222
791.75424,0.0069911
790.78986,0.0069581
789.82548,0.0069449
788.86111,0.0069517
787.89673,0.0069216
786.93235,0.0069044
785.96797,0.0069407
785.00359,0.0069477
784.03922,0.0069354
783.07484,0.0069351
782.11046,0.0069457
781.14608,0.0069226
780.18171,0.0068650
779.21733,0.0068228
778.25295,0.0067782
777.28857,0.0067361
776.32419,0.0067312
775.35982,0.0067686
774.39544,0.0068245
773.43106,0.0068865
772.46668,0.0069197
771.50230,0.0069207
770.53793,0.0069157
769.57355,0.0068788
768.60917,0.0068547
767.64479,0.0068494
766.68041,0.0068206
765.71604,0.0068226
764.75166,0.0068634
763.78728,0.0068862
762.82290,0.0069102
761.85853,0.0069478
760.89415,0.0069629
759.92977,0.0069679
758.96539,0.0069484
758.00101,0.0069346
757.03664,0.0069644
756.07226,0.0069830
755.10788,0.0070036
754.14350,0.0070446
753.17912,0.0070742
752.21475,0.0070692
751.25037,0.0070522
750.28599,0.0070280
749.32161,0.0069897
748.35724,0.0069569
747.39286,0.0069165
746.42848,0.0069304
745.46410,0.0069743
744.49972,0.0070019
743.53535,0.0070577
742.57097,0.0071056
741.60659,0.0071586
740.64221,0.0072090
739.67783,0.0072273
738.71346,0.0071747
737.74908,0.0070660
736.78470,0.0069963
735.82032,0.0069355
734.85594,0.0069044
733.89157,0.0069121
732.92719,0.0069360
731.96281,0.0070013
730.99843,0.0070718
730.03406,0.0071763
729.06968,0.0073219
728.10530,0.0074556
727.14092,0.0075320
726.17654,0.0075716
725.21217,0.0076072
724.24779,0.0075811
723.28341,0.0075395
722.31903,0.0075432
721.35465,0.0075517
720.39028,0.0075543
719.42590,0.0075525
718.46152,0.0075519
717.49714,0.0075580
716.53276,0.0075690
715.56839,0.0075753
714.60401,0.0075587
713.63963,0.0075320
712.67525,0.0075221
711.71088,0.0075472
710.74650,0.0075967
709.78212,0.0076374
708.81774,0.0076593
707.85336,0.0076489
706.88899,0.0075952
705.92461,0.0075455
704.96023,0.0075520
703.99585,0.0076038
703.03147,0.0076661
702.06710,0.0077456
701.10272,0.0078434
700.13834,0.0079166
699.17396,0.0079509
698.20959,0.0079602
697.24521,0.0079254
696.28083,0.0078417
695.31645,0.0077587
694.35207,0.0077057
693.38770,0.0076805
692.42332,0.0077021
691.45894,0.0077748
690.49456,0.0078517
689.53018,0.0078939
688.56581,0.0079211
687.60143,0.0079721
686.63705,0.0080395
685.67267,0.0080751
684.70829,0.0080858
683.74392,0.0081023
682.77954,0.0081052
681.81516,0.0080907
680.85078,0.0080796
679.88641,0.0080818
678.92203,0.0080758
677.95765,0.0080546
676.99327,0.0080549
676.02889,0.0080778
675.06452,0.0080407
674.10014,0.0079303
673.13576,0.0080515
672.17138,0.0084624
671.20700,0.0088687
670.24263,0.0091428
669.27825,0.0092612
668.31387,0.0092684
667.34949,0.0092027
666.38512,0.0090438
665.42074,0.0088219
664.45636,0.0085187
663.49198,0.0081489
662.52760,0.0079066
661.56323,0.0079939
660.59885,0.0082097
659.63447,0.0083125
658.67009,0.0083509
657.70571,0.0083659
656.74134,0.0083694
655.77696,0.0083309
654.81258,0.0082515
653.84820,0.0082164
652.88382,0.0082123
651.91945,0.0082052
650.95507,0.0082140
649.99069,0.0082476
649.02631,0.0083014
648.06194,0.0083895
647.09756,0.0085052
646.13318,0.0085998
645.16880,0.0086385
644.20442,0.0085873
643.24005,0.0084967
642.27567,0.0084495
641.31129,0.0084260
640.34691,0.0083979
639.38253,0.0084049
638.41816,0.0084642
637.45378,0.0085198
636.48940,0.0085799
635.52502,0.0086552
634.56065,0.0086815
633.59627,0.0086304
632.63189,0.0085020
631.66751,0.0083795
630.70313,0.0083263
629.73876,0.0082869
628.77438,0.0083929
627.81000,0.0086560
626.84562,0.0085511
625.88124,0.0081146
624.91687,0.0079017
623.95249,0.0077566
622.98811,0.0075574
622.02373,0.0077767
621.05935,0.0080883
620.09498,0.0080543
619.13060,0.0080323
618.16622,0.0080270
617.20184,0.0078690
616.23747,0.0073689
615.27309,0.0064304
614.30871,0.0057035
613.34433,0.0053376
612.37995,0.0048761
611.41558,0.0046306
610.45120,0.0051216
609.48682,0.0055792
608.52244,0.0057408
607.55806,0.0062618
606.59369,0.0067640
605.62931,0.0069444
604.66493,0.0070757
603.70055,0.0074525
602.73618,0.0079904
601.77180,0.0083190
600.80742,0.0085377
599.84304,0.0087961
598.87866,0.0091915
597.91429,0.0094990
596.94991,0.0095782
595.98553,0.0096200
595.02115,0.0094684
594.05677,0.0092021
593.09240,0.0089972
592.12802,0.0088299
591.16364,0.0086220
590.19926,0.0083951
589.23488,0.0082585
588.27051,0.0081693
587.30613,0.0081955
586.34175,0.0082444
585.37737,0.0082324
584.41300,0.0083284
583.44862,0.0084481
582.48424,0.0085648
581.51986,0.0086775
580.55548,0.0087266
579.59111,0.0087294
578.62673,0.0086844
577.66235,0.0086932
576.69797,0.0087087
575.73359,0.0086817
574.76922,0.0087219
573.80484,0.0088873
572.84046,0.0090624
571.87608,0.0090677
570.91171,0.0090586
569.94733,0.0091597
568.98295,0.0092980
568.01857,0.0093665
567.05419,0.0093116
566.08982,0.0092617
565.12544,0.0091713
564.16106,0.0090833
563.19668,0.0091244
562.23230,0.0091707
561.26793,0.0091906
560.30355,0.0091893
559.33917,0.0091875
558.37479,0.0092518
557.41041,0.0093016
556.44604,0.0092095
555.48166,0.0090101
554.51728,0.0088241
553.55290,0.0086791
552.58853,0.0086139
551.62415,0.0086486
550.65977,0.0087460
549.69539,0.0088774
548.73101,0.0089689
547.76664,0.0089844
546.80226,0.0089727
545.83788,0.0089395
544.87350,0.0088383
543.90912,0.0087132
542.94475,0.0086101
541.98037,0.0085345
541.01599,0.0085547
540.05161,0.0086409
539.08724,0.0087091
538.12286,0.0087820
537.15848,0.0088560
536.19410,0.0088520
535.22972,0.0088088
534.26535,0.0088341
533.30097,0.0089032
532.33659,0.0090243
531.37221,0.0091929
530.40783,0.0093142
529.44346,0.0093973
528.47908,0.0094301
527.51470,0.0093951
526.55032,0.0092912
525.58594,0.0090715
524.62157,0.0088398
523.65719,0.0087375
522.69281,0.0087115
521.72843,0.0086644
520.76406,0.0086657
519.79968,0.0087571
518.83530,0.0088672
517.87092,0.0089916
516.90654,0.0090729
515.94217,0.0090707
514.97779,0.0090379
514.01341,0.0089874
513.04903,0.0089182
512.08465,0.0088253
511.12028,0.0087311
510.15590,0.0086739
509.19152,0.0086867
508.22714,0.0087256
507.26276,0.0087001
506.29839,0.0086369
505.33401,0.0085650
504.36963,0.0085056
503.40525,0.0084561
502.44088,0.0083505
501.47650,0.0082010
500.51212,0.0080518
499.54774,0.0079836
498.58336,0.0080253
497.61899,0.0080762
496.65461,0.0080860
495.69023,0.0080474
494.72585,0.0080146
493.76147,0.0080493
492.79710,0.0080841
491.83272,0.0081014
490.86834,0.0081542
489.90396,0.0082184
488.93959,0.0082715
487.97521,0.0083323
487.01083,0.0083641
486.04645,0.0083672
485.08207,0.0084367
484.11770,0.0085147
483.15332,0.0084899
482.18894,0.0084490
481.22456,0.0084873
480.26018,0.0085628
479.29581,0.0086041
478.33143,0.0086417
477.36705,0.0087367
476.40267,0.0088255
475.43829,0.0088101
474.47392,0.0087102
473.50954,0.0086090
472.54516,0.0084888
471.58078,0.0083216
470.61641,0.0082056
469.65203,0.0081772
468.68765,0.0081371
467.72327,0.0080927
466.75889,0.0081584
465.79452,0.0083345
464.83014,0.0084868
463.86576,0.0084874
462.90138,0.0083818
461.93700,0.0082805
460.97263,0.0082483
460.00825,0.0083283
459.04387,0.0084418
458.07949,0.0084979
457.11512,0.0085048
456.15074,0.0085339
455.18636,0.0086327
454.22198,0.0087347
453.25760,0.0087144
452.29323,0.0085526
451.32885,0.0083836
450.36447,0.0082582
449.40009,0.0082353
448.43571,0.0083378
447.47134,0.0083770
446.50696,0.0083266
445.54258,0.0083185
444.57820,0.0084070
443.61382,0.0085293
442.64945,0.0085988
441.68507,0.0085892
440.72069,0.0084993
439.75631,0.0084174
438.79194,0.0083543
437.82756,0.0082932
436.86318,0.0082707
435.89880,0.0082718
434.93442,0.0083051
433.97005,0.0083372
433.00567,0.0083734
432.04129,0.0084058
431.07691,0.0083981
430.11253,0.0083816
429.14816,0.0082977
428.18378,0.0081619
427.21940,0.0080215
426.25502,0.0078641
425.29065,0.0077679
424.32627,0.0077325
423.36189,0.0076723
422.39751,0.0075966
421.43313,0.0075811
420.46876,0.0075792
419.50438,0.0075386
418.54000,0.0075314
417.57562,0.0075048
416.61124,0.0074701
415.64687,0.0075105
414.68249,0.0075455
413.71811,0.0075701
412.75373,0.0075942
411.78935,0.0076182
410.82498,0.0076828
409.86060,0.0077388
408.89622,0.0077640
407.93184,0.0077748
406.96747,0.0078089
406.00309,0.0078410
405.03871,0.0078071
404.07433,0.0078071
403.10995,0.0078071
402.14558,0.0078071
401.18120,0.0078071
400.21682,0.0078071
399.25244,0.0078071
