3998.31069,0.0055767
3997.34631,0.0055767
3996.38194,0.0055767
3995.41756,0.0055767
3994.45318,0.0055767
3993.48880,0.0055767
3992.52442,0.0055767
3991.56005,0.0055984
3990.59567,0.0056510
3989.63129,0.0056714
3988.66691,0.0056490
3987.70253,0.0055969
3986.73816,0.0055318
3985.77378,0.0054794
3984.80940,0.0054996
3983.84502,0.0055894
3982.88065,0.0056320
3981.91627,0.0055928
3980.95189,0.0055725
3979.98751,0.0056283
3979.02313,0.0056282
3978.05876,0.0055616
3977.09438,0.0055583
3976.13000,0.0055837
3975.16562,0.0056029
3974.20124,0.0056104
3973.23687,0.0056182
3972.27249,0.0056163
3971.30811,0.0055751
3970.34373,0.0055714
3969.37935,0.0056221
3968.41498,0.0056476
3967.45060,0.0055909
3966.48622,0.0055379
3965.52184,0.0055404
3964.55747,0.0055271
3963.59309,0.0055088
3962.62871,0.0054710
3961.66433,0.0054117
3960.69995,0.0053628
3959.73558,0.0053522
3958.77120,0.0053836
3957.80682,0.0054107
3956.84244,0.0054407
3955.87806,0.0054493
3954.91369,0.0054574
3953.94931,0.0054837
3952.98493,0.0054981
3952.02055,0.0054984
3951.05618,0.0054500
3950.09180,0.0054069
3949.12742,0.0053883
3948.16304,0.0054086
3947.19866,0.0054947
3946.23429,0.0055889
3945.26991,0.0056806
3944.30553,0.0057238
3943.34115,0.0057177
3942.37677,0.0056766
3941.41240,0.0055964
3940.44802,0.0055102
3939.48364,0.0053768
3938.51926,0.0052305
3937.55488,0.0051338
3936.59051,0.0050906
3935.62613,0.0051170
3934.66175,0.0052105
3933.69737,0.0053333
3932.73300,0.0054212
3931.76862,0.0054700
3930.80424,0.0055395
3929.83986,0.0056434
3928.87548,0.0056887
3927.91111,0.0056060
3926.94673,0.0054300
3925.98235,0.0052463
3925.01797,0.0051269
3924.05359,0.0050898
3923.08922,0.0051477
3922.12484,0.0052333
3921.16046,0.0053032
3920.19608,0.0054229
3919.23171,0.0055756
3918.26733,0.0056262
3917.30295,0.0055355
3916.33857,0.0054138
3915.37419,0.0052682
3914.40982,0.0051377
3913.44544,0.0050932
3912.48106,0.0050799
3911.51668,0.0051065
3910.55230,0.0051672
3909.58793,0.0052653
3908.62355,0.0054106
3907.65917,0.0055529
3906.69479,0.0056491
3905.73041,0.0056999
3904.76604,0.0057624
3903.80166,0.0057922
3902.83728,0.0057617
3901.87290,0.0057050
3900.90853,0.0056390
3899.94415,0.0055696
3898.97977,0.0054847
3898.01539,0.0054301
3897.05101,0.0054199
3896.08664,0.0054925
3895.12226,0.0055840
3894.15788,0.0056161
3893.19350,0.0056635
3892.22912,0.0056672
3891.26475,0.0056706
3890.30037,0.0057427
3889.33599,0.0057850
3888.37161,0.0057811
3887.40724,0.0057131
3886.44286,0.0055994
3885.47848,0.0055326
3884.51410,0.0055194
3883.54972,0.0054839
3882.58535,0.0054331
3881.62097,0.0053922
3880.65659,0.0053487
3879.69221,0.0053880
3878.72783,0.0054707
3877.76346,0.0054694
3876.79908,0.0053915
3875.83470,0.0052974
3874.87032,0.0052753
3873.90594,0.0053279
3872.94157,0.0053506
3871.97719,0.0053461
3871.01281,0.0053919
3870.04843,0.0054855
3869.08406,0.0055970
3868.11968,0.0057100
3867.15530,0.0057846
3866.19092,0.0057431
3865.22654,0.0056502
3864.26217,0.0056445
3863.29779,0.0056705
3862.33341,0.0056274
3861.36903,0.0054456
3860.40465,0.0052923
3859.44028,0.0054165
3858.47590,0.0056289
3857.51152,0.0058198
3856.54714,0.0059682
3855.58276,0.0059871
3854.61839,0.0059391
3853.65401,0.0058957
3852.68963,0.0058275
3851.72525,0.0056867
3850.76088,0.0054701
3849.79650,0.0051933
3848.83212,0.0050398
3847.86774,0.0050561
3846.90336,0.0050262
3845.93899,0.0050280
3844.97461,0.0050095
3844.01023,0.0049451
3843.04585,0.0050715
3842.08147,0.0053031
3841.11710,0.0055024
3840.15272,0.0056827
3839.18834,0.0058020
3838.22396,0.0058353
3837.25959,0.0058090
3836.29521,0.0056946
3835.33083,0.0055037
3834.36645,0.0053231
3833.40207,0.0051255
3832.43770,0.0050088
3831.47332,0.0050902
3830.50894,0.0051682
3829.54456,0.0051783
3828.58018,0.0051909
3827.61581,0.0051882
3826.65143,0.0052347
3825.68705,0.0053449
3824.72267,0.0054188
3823.75829,0.0054060
3822.79392,0.0053369
3821.82954,0.0053062
3820.86516,0.0053834
3819.90078,0.0054782
3818.93641,0.0054623
3817.97203,0.0053592
3817.00765,0.0052118
3816.04327,0.0050693
3815.07889,0.0050216
3814.11452,0.0049857
3813.15014,0.0049116
3812.18576,0.0048780
3811.22138,0.0048954
3810.25700,0.0049880
3809.29263,0.0051217
3808.32825,0.0052015
3807.36387,0.0052709
3806.39949,0.0053993
3805.43512,0.0055162
3804.47074,0.0055994
3803.50636,0.0056560
3802.54198,0.0056298
3801.57760,0.0055962
3800.61323,0.0055749
3799.64885,0.0054464
3798.68447,0.0052423
3797.72009,0.0050159
3796.75571,0.0048067
3795.79134,0.0047401
3794.82696,0.0048108
3793.86258,0.0048511
3792.89820,0.0048471
3791.93382,0.0048532
3790.96945,0.0048339
3790.00507,0.0048021
3789.04069,0.0047618
3788.07631,0.0047045
3787.11194,0.0046371
3786.14756,0.0045534
3785.18318,0.0045262
3784.21880,0.0045727
3783.25442,0.0046362
3782.29005,0.0046939
3781.32567,0.0047444
3780.36129,0.0047970
3779.39691,0.0048293
3778.43253,0.0048758
3777.46816,0.0049293
3776.50378,0.0048791
3775.53940,0.0047752
3774.57502,0.0047386
3773.61065,0.0047455
3772.64627,0.0047291
3771.68189,0.0047276
3770.71751,0.0047881
3769.75313,0.0048721
3768.78876,0.0049341
3767.82438,0.0049554
3766.86000,0.0049632
3765.89562,0.0049437
3764.93124,0.0048882
3763.96687,0.0048276
3763.00249,0.0047653
3762.03811,0.0047320
3761.07373,0.0047194
3760.10935,0.0047364
3759.14498,0.0047788
3758.18060,0.0048516
3757.21622,0.0049852
3756.25184,0.0050658
3755.28747,0.0051609
3754.32309,0.0053647
3753.35871,0.0055092
3752.39433,0.0054379
3751.42995,0.0052060
3750.46558,0.0051187
3749.50120,0.0052729
3748.53682,0.0054186
3747.57244,0.0054432
3746.60806,0.0054588
3745.64369,0.0055062
3744.67931,0.0054606
3743.71493,0.0054067
3742.75055,0.0053755
3741.78618,0.0052362
3740.82180,0.0049857
3739.85742,0.0047845
3738.89304,0.0048419
3737.92866,0.0050596
3736.96429,0.0052177
3735.99991,0.0053000
3735.03553,0.0053070
3734.07115,0.0052358
3733.10677,0.0051078
3732.14240,0.0049826
3731.17802,0.0049031
3730.21364,0.0048631
3729.24926,0.0048066
3728.28488,0.0047828
3727.32051,0.0048204
3726.35613,0.0048391
3725.39175,0.0048643
3724.42737,0.0048488
3723.46300,0.0047557
3722.49862,0.0046896
3721.53424,0.0046777
3720.56986,0.0046716
3719.60548,0.0046123
3718.64111,0.0044862
3717.67673,0.0044140
3716.71235,0.0044832
3715.74797,0.0046340
3714.78359,0.0047586
3713.81922,0.0047861
3712.85484,0.0047936
3711.89046,0.0048557
3710.92608,0.0049555
3709.96171,0.0050430
3708.99733,0.0049639
3708.03295,0.0047120
3707.06857,0.0045044
3706.10419,0.0044633
3705.13982,0.0044813
3704.17544,0.0044987
3703.21106,0.0045291
3702.24668,0.0044992
3701.28230,0.0045104
3700.31793,0.0045776
3699.35355,0.0045903
3698.38917,0.0045486
3697.42479,0.0044326
3696.46041,0.0043503
3695.49604,0.0043713
3694.53166,0.0044658
3693.56728,0.0046232
3692.60290,0.0047833
3691.63853,0.0048954
3690.67415,0.0049447
3689.70977,0.0049905
3688.74539,0.0049778
3687.78101,0.0048570
3686.81664,0.0046866
3685.85226,0.0045455
3684.88788,0.0045041
3683.92350,0.0044689
3682.95912,0.0044226
3681.99475,0.0044316
3681.03037,0.0045344
3680.06599,0.0047138
3679.10161,0.0048665
3678.13724,0.0049744
3677.17286,0.0050557
3676.20848,0.0051227
3675.24410,0.0051407
3674.27972,0.0051694
3673.31535,0.0052272
3672.35097,0.0051359
3671.38659,0.0049297
3670.42221,0.0047700
3669.45783,0.0047144
3668.49346,0.0046837
3667.52908,0.0045982
3666.56470,0.0045066
3665.60032,0.0044513
3664.63594,0.0044164
3663.67157,0.0043379
3662.70719,0.0042761
3661.74281,0.0043004
3660.77843,0.0043824
3659.81406,0.0044872
3658.84968,0.0045177
3657.88530,0.0045283
3656.92092,0.0045975
3655.95654,0.0046822
3654.99217,0.0047722
3654.02779,0.0048246
3653.06341,0.0048414
3652.09903,0.0048451
3651.13465,0.0048429
3650.17028,0.0048671
3649.20590,0.0049171
3648.24152,0.0049203
3647.27714,0.0048050
3646.31276,0.0046460
3645.34839,0.0044899
3644.38401,0.0043517
3643.41963,0.0043017
3642.45525,0.0042971
3641.49088,0.0043040
3640.52650,0.0043123
3639.56212,0.0042642
3638.59774,0.0042027
3637.63336,0.0041962
3636.66899,0.0041875
3635.70461,0.0041318
3634.74023,0.0041396
3633.77585,0.0042953
3632.81147,0.0045738
3631.84710,0.0049187
3630.88272,0.0051832
3629.91834,0.0052860
3628.95396,0.0052990
3627.98959,0.0052290
3627.02521,0.0050840
3626.06083,0.0049023
3625.09645,0.0046825
3624.13207,0.0045175
3623.16770,0.0044995
3622.20332,0.0045951
3621.23894,0.0047346
3620.27456,0.0048697
3619.31018,0.0049470
3618.34581,0.0049553
3617.38143,0.0049576
3616.41705,0.0049204
3615.45267,0.0048248
3614.48829,0.0047538
3613.52392,0.0047110
3612.55954,0.0046691
3611.59516,0.0046248
3610.63078,0.0046242
3609.66641,0.0046398
3608.70203,0.0046107
3607.73765,0.0045909
3606.77327,0.0045667
3605.80889,0.0045494
3604.84452,0.0045584
3603.88014,0.0045551
3602.91576,0.0045814
3601.95138,0.0046372
3600.98700,0.0046996
3600.02263,0.0047792
3599.05825,0.0048812
3598.09387,0.0049237
3597.12949,0.0048379
3596.16512,0.0047188
3595.20074,0.0046203
3594.23636,0.0045682
3593.27198,0.0045757
3592.30760,0.0046080
3591.34323,0.0046434
3590.37885,0.0046569
3589.41447,0.0046806
3588.45009,0.0047228
3587.48571,0.0047703
3586.52134,0.0047731
3585.55696,0.0046754
3584.59258,0.0045742
3583.62820,0.0045338
3582.66382,0.0045166
3581.69945,0.0045016
3580.73507,0.0044770
3579.77069,0.0043905
3578.80631,0.0042849
3577.84194,0.0042813
3576.87756,0.0043612
3575.91318,0.0044491
3574.94880,0.0044569
3573.98442,0.0044310
3573.02005,0.0044917
3572.05567,0.0045737
3571.09129,0.0046214
3570.12691,0.0046458
3569.16253,0.0046531
3568.19816,0.0046039
3567.23378,0.0045554
3566.26940,0.0045979
3565.30502,0.0046152
3564.34065,0.0045692
3563.37627,0.0045141
3562.41189,0.0045116
3561.44751,0.0045718
3560.48313,0.0045939
3559.51876,0.0045691
3558.55438,0.0045468
3557.59000,0.0045919
3556.62562,0.0046503
3555.66124,0.0046693
3554.69687,0.0047012
3553.73249,0.0047179
3552.76811,0.0047591
3551.80373,0.0048263
3550.83935,0.0048527
3549.87498,0.0048324
3548.91060,0.0047788
3547.94622,0.0047358
3546.98184,0.0047249
3546.01747,0.0047686
3545.05309,0.0047872
3544.08871,0.0047203
3543.12433,0.0046617
3542.15995,0.0046467
3541.19558,0.0046866
3540.23120,0.0047480
3539.26682,0.0047530
3538.30244,0.0047319
3537.33806,0.0047387
3536.37369,0.0047646
3535.40931,0.0047792
3534.44493,0.0047559
3533.48055,0.0046970
3532.51618,0.0046176
3531.55180,0.0045438
3530.58742,0.0045317
3529.62304,0.0045864
3528.65866,0.0046651
3527.69429,0.0047207
3526.72991,0.0047523
3525.76553,0.0047925
3524.80115,0.0048174
3523.83677,0.0048272
3522.87240,0.0048096
3521.90802,0.0047447
3520.94364,0.0046748
3519.97926,0.0046509
3519.01488,0.0046991
3518.05051,0.0047586
3517.08613,0.0047963
3516.12175,0.0048065
3515.15737,0.0047733
3514.19300,0.0047409
3513.22862,0.0046840
3512.26424,0.0045897
3511.29986,0.0045411
3510.33548,0.0045742
3509.37111,0.0046803
3508.40673,0.0048190
3507.44235,0.0049070
3506.47797,0.0049274
3505.51359,0.0049102
3504.54922,0.0048643
3503.58484,0.0048097
3502.62046,0.0047398
3501.65608,0.0046728
3500.69171,0.0046488
3499.72733,0.0046890
3498.76295,0.0047828
3497.79857,0.0048603
3496.83419,0.0048736
3495.86982,0.0048191
3494.90544,0.0047683
3493.94106,0.0047358
3492.97668,0.0046763
3492.01230,0.0046370
3491.04793,0.0046490
3490.08355,0.0047238
3489.11917,0.0048050
3488.15479,0.0048372
3487.19041,0.0048319
3486.22604,0.0047709
3485.26166,0.0046859
3484.29728,0.0046220
3483.33290,0.0045814
3482.36853,0.0045193
3481.40415,0.0044566
3480.43977,0.0044704
3479.47539,0.0045401
3478.51101,0.0046067
3477.54664,0.0046340
3476.58226,0.0046570
3475.61788,0.0046617
3474.65350,0.0046279
3473.68912,0.0046172
3472.72475,0.0046327
3471.76037,0.0046632
3470.79599,0.0046971
3469.83161,0.0047500
3468.86724,0.0048299
3467.90286,0.0049092
3466.93848,0.0049842
3465.97410,0.0050382
3465.00972,0.0050603
3464.04535,0.0050364
3463.08097,0.0050009
3462.11659,0.0049767
3461.15221,0.0049498
3460.18783,0.0049209
3459.22346,0.0048646
3458.25908,0.0048136
3457.29470,0.0047715
3456.33032,0.0047163
3455.36594,0.0046790
3454.40157,0.0046453
3453.43719,0.0046150
3452.47281,0.0046277
3451.50843,0.0046799
3450.54406,0.0047430
3449.57968,0.0047957
3448.61530,0.0048078
3447.65092,0.0048153
3446.68654,0.0048479
3445.72217,0.0048390
3444.75779,0.0047827
3443.79341,0.0047332
3442.82903,0.0047139
3441.86465,0.0047155
3440.90028,0.0047355
3439.93590,0.0047694
3438.97152,0.0047948
3438.00714,0.0048075
3437.04276,0.0048365
3436.07839,0.0049034
3435.11401,0.0049623
3434.14963,0.0049983
3433.18525,0.0050133
3432.22088,0.0049989
3431.25650,0.0049709
3430.29212,0.0049145
3429.32774,0.0048485
3428.36336,0.0047642
3427.39899,0.0046783
3426.43461,0.0046579
3425.47023,0.0046799
3424.50585,0.0047239
3423.54147,0.0048153
3422.57710,0.0049586
3421.61272,0.0050649
3420.64834,0.0050969
3419.68396,0.0050924
3418.71959,0.0050409
3417.75521,0.0049789
3416.79083,0.0049196
3415.82645,0.0048745
3414.86207,0.0048549
3413.89770,0.0048341
3412.93332,0.0048489
3411.96894,0.0049144
3411.00456,0.0049956
3410.04018,0.0050381
3409.07581,0.0050270
3408.11143,0.0050106
3407.14705,0.0050221
3406.18267,0.0050535
3405.21829,0.0050514
3404.25392,0.0049878
3403.28954,0.0049139
3402.32516,0.0048904
3401.36078,0.0048837
3400.39641,0.0048349
3399.43203,0.0047722
3398.46765,0.0047296
3397.50327,0.0046822
3396.53889,0.0046548
3395.57452,0.0046867
3394.61014,0.0047268
3393.64576,0.0047652
3392.68138,0.0048079
3391.71700,0.0048689
3390.75263,0.0049843
3389.78825,0.0050748
3388.82387,0.0051045
3387.85949,0.0051203
3386.89512,0.0051144
3385.93074,0.0050694
3384.96636,0.0050273
3384.00198,0.0050044
3383.03760,0.0049701
3382.07323,0.0049687
3381.10885,0.0050168
3380.14447,0.0050773
3379.18009,0.0051156
3378.21571,0.0051406
3377.25134,0.0051638
3376.28696,0.0051182
3375.32258,0.0050519
3374.35820,0.0050258
3373.39382,0.0050024
3372.42945,0.0049593
3371.46507,0.0049245
3370.50069,0.0049587
3369.53631,0.0050145
3368.57194,0.0050288
3367.60756,0.0050103
3366.64318,0.0049911
3365.67880,0.0049641
3364.71442,0.0049403
3363.75005,0.0050005
3362.78567,0.0050686
3361.82129,0.0050686
3360.85691,0.0050650
3359.89253,0.0050905
3358.92816,0.0051090
3357.96378,0.0050880
3356.99940,0.0050775
3356.03502,0.0050559
3355.07065,0.0049906
3354.10627,0.0049491
3353.14189,0.0049702
3352.17751,0.0050207
3351.21313,0.0050307
3350.24876,0.0050004
3349.28438,0.0049657
3348.32000,0.0049248
3347.35562,0.0048646
3346.39124,0.0048308
3345.42687,0.0048580
3344.46249,0.0048806
3343.49811,0.0048887
3342.53373,0.0049123
3341.56935,0.0049661
3340.60498,0.0050290
3339.64060,0.0050455
3338.67622,0.0050183
3337.71184,0.0049636
3336.74747,0.0049166
3335.78309,0.0049036
3334.81871,0.0049249
3333.85433,0.0049768
3332.88995,0.0050206
3331.92558,0.0050292
3330.96120,0.0050124
3329.99682,0.0049967
3329.03244,0.0049749
3328.06806,0.0049447
3327.10369,0.0049216
3326.13931,0.0049161
3325.17493,0.0049457
3324.21055,0.0049667
3323.24618,0.0049739
3322.28180,0.0050176
3321.31742,0.0050643
3320.35304,0.0050900
3319.38866,0.0051183
3318.42429,0.0051307
3317.45991,0.0051215
3316.49553,0.0051027
3315.53115,0.0050697
3314.56677,0.0050465
3313.60240,0.0050048
3312.63802,0.0049101
3311.67364,0.0048504
3310.70926,0.0048651
3309.74488,0.0048816
3308.78051,0.0048872
3307.81613,0.0049110
3306.85175,0.0049426
3305.88737,0.0049915
3304.92300,0.0050612
3303.95862,0.0051400
3302.99424,0.0052112
3302.02986,0.0052277
3301.06548,0.0052057
3300.10111,0.0051994
3299.13673,0.0052108
3298.17235,0.0051952
3297.20797,0.0051397
3296.24359,0.0050923
3295.27922,0.0050711
3294.31484,0.0050901
3293.35046,0.0051467
3292.38608,0.0051865
3291.42171,0.0051680
3290.45733,0.0051051
3289.49295,0.0050343
3288.52857,0.0049652
3287.56419,0.0049184
3286.59982,0.0048910
3285.63544,0.0048825
3284.67106,0.0049303
3283.70668,0.0050054
3282.74230,0.0050670
3281.77793,0.0051298
3280.81355,0.0051734
3279.84917,0.0051541
3278.88479,0.0051114
3277.92041,0.0050716
3276.95604,0.0050088
3275.99166,0.0049407
3275.02728,0.0049072
3274.06290,0.0049330
3273.09853,0.0049712
3272.13415,0.0049673
3271.16977,0.0049091
3270.20539,0.0048452
3269.24101,0.0048457
3268.27664,0.0048553
3267.31226,0.0048542
3266.34788,0.0048773
3265.38350,0.0049037
3264.41912,0.0049100
3263.45475,0.0048933
3262.49037,0.0048713
3261.52599,0.0048082
3260.56161,0.0047161
3259.59724,0.0046129
3258.63286,0.0045097
3257.66848,0.0044895
3256.70410,0.0044975
3255.73972,0.0044999
3254.77535,0.0045485
3253.81097,0.0045944
3252.84659,0.0045983
3251.88221,0.0045943
3250.91783,0.0046168
3249.95346,0.0046181
3248.98908,0.0045752
3248.02470,0.0045337
3247.06032,0.0045154
3246.09594,0.0045269
3245.13157,0.0045467
3244.16719,0.0045489
3243.20281,0.0045295
3242.23843,0.0045016
3241.27406,0.0044791
3240.30968,0.0044837
3239.34530,0.0045092
3238.38092,0.0045007
3237.41654,0.0044643
3236.45217,0.0044408
3235.48779,0.0044314
3234.52341,0.0044267
3233.55903,0.0044301
3232.59465,0.0044262
3231.63028,0.0044385
3230.66590,0.0045055
3229.70152,0.0045475
3228.73714,0.0045533
3227.77276,0.0045856
3226.80839,0.0046191
3225.84401,0.0046262
3224.87963,0.0045869
3223.91525,0.0045094
3222.95088,0.0044396
3221.98650,0.0043963
3221.02212,0.0043659
3220.05774,0.0043508
3219.09336,0.0043553
3218.12899,0.0043327
3217.16461,0.0042981
3216.20023,0.0043032
3215.23585,0.0043300
3214.27147,0.0043510
3213.30710,0.0043388
3212.34272,0.0043006
3211.37834,0.0042855
3210.41396,0.0042782
3209.44959,0.0042370
3208.48521,0.0041798
3207.52083,0.0041532
3206.55645,0.0041699
3205.59207,0.0041836
3204.62770,0.0041781
3203.66332,0.0041976
3202.69894,0.0042407
3201.73456,0.0042595
3200.77018,0.0042731
3199.80581,0.0043123
3198.84143,0.0043089
3197.87705,0.0042568
3196.91267,0.0042213
3195.94829,0.0042211
3194.98392,0.0042446
3194.01954,0.0042351
3193.05516,0.0042090
3192.09078,0.0042211
3191.12641,0.0042552
3190.16203,0.0042869
3189.19765,0.0043151
3188.23327,0.0043205
3187.26889,0.0042459
3186.30452,0.0041528
3185.34014,0.0041159
3184.37576,0.0040981
3183.41138,0.0040762
3182.44700,0.0040663
3181.48263,0.0041213
3180.51825,0.0041980
3179.55387,0.0042531
3178.58949,0.0043171
3177.62512,0.0043574
3176.66074,0.0043544
3175.69636,0.0043216
3174.73198,0.0043041
3173.76760,0.0042953
3172.80323,0.0042528
3171.83885,0.0042041
3170.87447,0.0041885
3169.91009,0.0042021
3168.94571,0.0041653
3167.98134,0.0040784
3167.01696,0.0040088
3166.05258,0.0039574
3165.08820,0.0038935
3164.12382,0.0038188
3163.15945,0.0037804
3162.19507,0.0037596
3161.23069,0.0037639
3160.26631,0.0037908
3159.30194,0.0037959
3158.33756,0.0038185
3157.37318,0.0038421
3156.40880,0.0038545
3155.44442,0.0038910
3154.48005,0.0039479
3153.51567,0.0039852
3152.55129,0.0039714
3151.58691,0.0039482
3150.62253,0.0039388
3149.65816,0.0039435
3148.69378,0.0039268
3147.72940,0.0038922
3146.76502,0.0038902
3145.80065,0.0038605
3144.83627,0.0037936
3143.87189,0.0037346
3142.90751,0.0036839
3141.94313,0.0036187
3140.97876,0.0035242
3140.01438,0.0034759
3139.05000,0.0035108
3138.08562,0.0035876
3137.12124,0.0036757
3136.15687,0.0037659
3135.19249,0.0038425
3134.22811,0.0038699
3133.26373,0.0038584
3132.29935,0.0038283
3131.33498,0.0037886
3130.37060,0.0037511
3129.40622,0.0037346
3128.44184,0.0037715
3127.47747,0.0038488
3126.51309,0.0039131
3125.54871,0.0039291
3124.58433,0.0039385
3123.61995,0.0039691
3122.65558,0.0039839
3121.69120,0.0039815
3120.72682,0.0039582
3119.76244,0.0039185
3118.79806,0.0038885
3117.83369,0.0038580
3116.86931,0.0038203
3115.90493,0.0037862
3114.94055,0.0037381
3113.97618,0.0036743
3113.01180,0.0036529
3112.04742,0.0036479
3111.08304,0.0036200
3110.11866,0.0036157
3109.15429,0.0036108
3108.18991,0.0036087
3107.22553,0.0036414
3106.26115,0.0036468
3105.29677,0.0036190
3104.33240,0.0035993
3103.36802,0.0035936
3102.40364,0.0036100
3101.43926,0.0036360
3100.47488,0.0036403
3099.51051,0.0036299
3098.54613,0.0036311
3097.58175,0.0036471
3096.61737,0.0036819
3095.65300,0.0037072
3094.68862,0.0036869
3093.72424,0.0036675
3092.75986,0.0036746
3091.79548,0.0036771
3090.83111,0.0036734
3089.86673,0.0036588
3088.90235,0.0036313
3087.93797,0.0036004
3086.97359,0.0035723
3086.00922,0.0035423
3085.04484,0.0034871
3084.08046,0.0034094
3083.11608,0.0033302
3082.15171,0.0032940
3081.18733,0.0033086
3080.22295,0.0033271
3079.25857,0.0033468
3078.29419,0.0033717
3077.32982,0.0034083
3076.36544,0.0034638
3075.40106,0.0035314
3074.43668,0.0035929
3073.47230,0.0036192
3072.50793,0.0036280
3071.54355,0.0036279
3070.57917,0.0036346
3069.61479,0.0036391
3068.65041,0.0035923
3067.68604,0.0035324
3066.72166,0.0034992
3065.75728,0.0034979
3064.79290,0.0035276
3063.82853,0.0035775
3062.86415,0.0036195
3061.89977,0.0036217
3060.93539,0.0036200
3059.97101,0.0036202
3059.00664,0.0035985
3058.04226,0.0035634
3057.07788,0.0035371
3056.11350,0.0035481
3055.14912,0.0035692
3054.18475,0.0035806
3053.22037,0.0035864
3052.25599,0.0035708
3051.29161,0.0035334
3050.32724,0.0034939
3049.36286,0.0034695
3048.39848,0.0034352
3047.43410,0.0033992
3046.46972,0.0034178
3045.50535,0.0034689
3044.54097,0.0034787
3043.57659,0.0034421
3042.61221,0.0033986
3041.64783,0.0033591
3040.68346,0.0033264
3039.71908,0.0033107
3038.75470,0.0033148
3037.79032,0.0033197
3036.82594,0.0033254
3035.86157,0.0033615
3034.89719,0.0034164
3033.93281,0.0034531
3032.96843,0.0034605
3032.00406,0.0034474
3031.03968,0.0034157
3030.07530,0.0033827
3029.11092,0.0033623
3028.14654,0.0033403
3027.18217,0.0033205
3026.21779,0.0032974
3025.25341,0.0032894
3024.28903,0.0033219
3023.32465,0.0033735
3022.36028,0.0034488
3021.39590,0.0035378
3020.43152,0.0035849
3019.46714,0.0035682
3018.50276,0.0035406
3017.53839,0.0035247
3016.57401,0.0034915
3015.60963,0.0034670
3014.64525,0.0034496
3013.68088,0.0034525
3012.71650,0.0035024
3011.75212,0.0035359
3010.78774,0.0035458
3009.82336,0.0035573
3008.85899,0.0035488
3007.89461,0.0035193
3006.93023,0.0035056
3005.96585,0.0035058
3005.00147,0.0034648
3004.03710,0.0034123
3003.07272,0.0033793
3002.10834,0.0033469
3001.14396,0.0033192
3000.17959,0.0032769
2999.21521,0.0032428
2998.25083,0.0032513
2997.28645,0.0032995
2996.32207,0.0033731
2995.35770,0.0034397
2994.39332,0.0034883
2993.42894,0.0034987
2992.46456,0.0034841
2991.50018,0.0034643
2990.53581,0.0034226
2989.57143,0.0033973
2988.60705,0.0033998
2987.64267,0.0034019
2986.67829,0.0034213
2985.71392,0.0034729
2984.74954,0.0035226
2983.78516,0.0035566
2982.82078,0.0036191
2981.85641,0.0036890
2980.89203,0.0037206
2979.92765,0.0037453
2978.96327,0.0037829
2977.99889,0.0038262
2977.03452,0.0038614
2976.07014,0.0038643
2975.10576,0.0038531
2974.14138,0.0038512
2973.17700,0.0038424
2972.21263,0.0038322
2971.24825,0.0038418
2970.28387,0.0038708
2969.31949,0.0039113
2968.35512,0.0039613
2967.39074,0.0040303
2966.42636,0.0041091
2965.46198,0.0041868
2964.49760,0.0042746
2963.53323,0.0043723
2962.56885,0.0044664
2961.60447,0.0045341
2960.64009,0.0045644
2959.67571,0.0045961
2958.71134,0.0046513
2957.74696,0.0046721
2956.78258,0.0046409
2955.81820,0.0046080
2954.85382,0.0045746
2953.88945,0.0045384
2952.92507,0.0045125
2951.96069,0.0044873
2950.99631,0.0044688
2950.03194,0.0044544
2949.06756,0.0044519
2948.10318,0.0044981
2947.13880,0.0045650
2946.17442,0.0046018
2945.21005,0.0046481
2944.24567,0.0047414
2943.28129,0.0048322
2942.31691,0.0048964
2941.35253,0.0049727
2940.38816,0.0050817
2939.42378,0.0052052
2938.45940,0.0053082
2937.49502,0.0053893
2936.53065,0.0054784
2935.56627,0.0055728
2934.60189,0.0056652
2933.63751,0.0057930
2932.67313,0.0059723
2931.70876,0.0061502
2930.74438,0.0063075
2929.78000,0.0064737
2928.81562,0.0066352
2927.85124,0.0067714
2926.88687,0.0068777
2925.92249,0.0069568
2924.95811,0.0070281
2923.99373,0.0070798
2923.02935,0.0070871
2922.06498,0.0070642
2921.10060,0.0070211
2920.13622,0.0069326
2919.17184,0.0067923
2918.20747,0.0066135
2917.24309,0.0064213
2916.27871,0.0062414
2915.31433,0.0060592
2914.34995,0.0058879
2913.38558,0.0057504
2912.42120,0.0056274
2911.45682,0.0055077
2910.49244,0.0053944
2909.52806,0.0052980
2908.56369,0.0052120
2907.59931,0.0051283
2906.63493,0.0050367
2905.67055,0.0049198
2904.70618,0.0047951
2903.74180,0.0046705
2902.77742,0.0045620
2901.81304,0.0044889
2900.84866,0.0044239
2899.88429,0.0043498
2898.91991,0.0042857
2897.95553,0.0042517
2896.99115,0.0042210
2896.02677,0.0041757
2895.06240,0.0041216
2894.09802,0.0040475
2893.13364,0.0039938
2892.16926,0.0039868
2891.20488,0.0039940
2890.24051,0.0039964
2889.27613,0.0039731
2888.31175,0.0039319
2887.34737,0.0039087
2886.38300,0.0039123
2885.41862,0.0039109
2884.45424,0.0038686
2883.48986,0.0038159
2882.52548,0.0037780
2881.56111,0.0037686
2880.59673,0.0038152
2879.63235,0.0038657
2878.66797,0.0038769
2877.70359,0.0038726
2876.73922,0.0038798
2875.77484,0.0039205
2874.81046,0.0039739
2873.84608,0.0039828
2872.88171,0.0039304
2871.91733,0.0038790
2870.95295,0.0038598
2869.98857,0.0038595
2869.02419,0.0038769
2868.05982,0.0038721
2867.09544,0.0038556
2866.13106,0.0038705
2865.16668,0.0039200
2864.20230,0.0040036
2863.23793,0.0040755
2862.27355,0.0041125
2861.30917,0.0041685
2860.34479,0.0042922
2859.38041,0.0044615
2858.41604,0.0046115
2857.45166,0.0047237
2856.48728,0.0048246
2855.52290,0.0049316
2854.55853,0.0050171
2853.59415,0.0050502
2852.62977,0.0050261
2851.66539,0.0049444
2850.70101,0.0048301
2849.73664,0.0047132
2848.77226,0.0045975
2847.80788,0.0044523
2846.84350,0.0042648
2845.87912,0.0040771
2844.91475,0.0039178
2843.95037,0.0037819
2842.98599,0.0036550
2842.02161,0.0035323
2841.05724,0.0034232
2840.09286,0.0033421
2839.12848,0.0032893
2838.16410,0.0032349
2837.19972,0.0031662
2836.23535,0.0030986
2835.27097,0.0030531
2834.30659,0.0030393
2833.34221,0.0030458
2832.37783,0.0030619
2831.41346,0.0030714
2830.44908,0.0030696
2829.48470,0.0030538
2828.52032,0.0030241
2827.55594,0.0030086
2826.59157,0.0029972
2825.62719,0.0029778
2824.66281,0.0029707
2823.69843,0.0029805
2822.73406,0.0030015
2821.76968,0.0030114
2820.80530,0.0030002
2819.84092,0.0029707
2818.87654,0.0029297
2817.91217,0.0028816
2816.94779,0.0028295
2815.98341,0.0028041
2815.01903,0.0027979
2814.05465,0.0027960
2813.09028,0.0028026
2812.12590,0.0027940
2811.16152,0.0027679
2810.19714,0.0027455
2809.23276,0.0027444
2808.26839,0.0027490
2807.30401,0.0027397
2806.33963,0.0027129
2805.37525,0.0026726
2804.41088,0.0026554
2803.44650,0.0026575
2802.48212,0.0026672
2801.51774,0.0026762
2800.55336,0.0026516
2799.58899,0.0026269
2798.62461,0.0026352
2797.66023,0.0026467
2796.69585,0.0026441
2795.73147,0.0026345
2794.76710,0.0026068
2793.80272,0.0025866
2792.83834,0.0026095
2791.87396,0.0026358
2790.90959,0.0026557
2789.94521,0.0026760
2788.98083,0.0026777
2788.01645,0.0026690
2787.05207,0.0026515
2786.08770,0.0026288
2785.12332,0.0026210
2784.15894,0.0026205
2783.19456,0.0025962
2782.23018,0.0025699
2781.26581,0.0025676
2780.30143,0.0025609
2779.33705,0.0025489
2778.37267,0.0025420
2777.40829,0.0025365
2776.44392,0.0025323
2775.47954,0.0025374
2774.51516,0.0025559
2773.55078,0.0025727
2772.58641,0.0025751
2771.62203,0.0025585
2770.65765,0.0025440
2769.69327,0.0025382
2768.72889,0.0025308
2767.76452,0.0025355
2766.80014,0.0025576
2765.83576,0.0025911
2764.87138,0.0026160
2763.90700,0.0026187
2762.94263,0.0026090
2761.97825,0.0025948
2761.01387,0.0025735
2760.04949,0.0025418
2759.08512,0.0025000
2758.12074,0.0024487
2757.15636,0.0024192
2756.19198,0.0024203
2755.22760,0.0024242
2754.26323,0.0024208
2753.29885,0.0024008
2752.33447,0.0023717
2751.37009,0.0023619
2750.40571,0.0023804
2749.44134,0.0024000
2748.47696,0.0024145
2747.51258,0.0024302
2746.54820,0.0024379
2745.58382,0.0024555
2744.61945,0.0024696
2743.65507,0.0024672
2742.69069,0.0024435
2741.72631,0.0023884
2740.76194,0.0023442
2739.79756,0.0023193
2738.83318,0.0023001
2737.86880,0.0022872
2736.90442,0.0022769
2735.94005,0.0022662
2734.97567,0.0022629
2734.01129,0.0022885
2733.04691,0.0023135
2732.08253,0.0023298
2731.11816,0.0023387
2730.15378,0.0023299
2729.18940,0.0023317
2728.22502,0.0023254
2727.26065,0.0023145
2726.29627,0.0023117
2725.33189,0.0022990
2724.36751,0.0022972
2723.40313,0.0023170
2722.43876,0.0023467
2721.47438,0.0023581
2720.51000,0.0023583
2719.54562,0.0023588
2718.58124,0.0023363
2717.61687,0.0022971
2716.65249,0.0022516
2715.68811,0.0022173
2714.72373,0.0021886
2713.75935,0.0021720
2712.79498,0.0021995
2711.83060,0.0022404
2710.86622,0.0022704
2709.90184,0.0022937
2708.93747,0.0023156
2707.97309,0.0023311
2707.00871,0.0023195
2706.04433,0.0022849
2705.07995,0.0022461
2704.11558,0.0022290
2703.15120,0.0022349
2702.18682,0.0022585
2701.22244,0.0022955
2700.25806,0.0023080
2699.29369,0.0022894
2698.32931,0.0022682
2697.36493,0.0022492
2696.40055,0.0022168
2695.43618,0.0021731
2694.47180,0.0021424
2693.50742,0.0021418
2692.54304,0.0021766
2691.57866,0.0022259
2690.61429,0.0022634
2689.64991,0.0022888
2688.68553,0.0022989
2687.72115,0.0022912
2686.75677,0.0022792
2685.79240,0.0022608
2684.82802,0.0022226
2683.86364,0.0021836
2682.89926,0.0021674
2681.93488,0.0021600
2680.97051,0.0021515
2680.00613,0.0021449
2679.04175,0.0021317
2678.07737,0.0021294
2677.11300,0.0021522
2676.14862,0.0021699
2675.18424,0.0021675
2674.21986,0.0021518
2673.25548,0.0021308
2672.29111,0.0021159
2671.32673,0.0021104
2670.36235,0.0021136
2669.39797,0.0021231
2668.43359,0.0021337
2667.46922,0.0021476
2666.50484,0.0021729
2665.54046,0.0021960
2664.57608,0.0021897
2663.61171,0.0021558
2662.64733,0.0021266
2661.68295,0.0021178
2660.71857,0.0021128
2659.75419,0.0021148
2658.78982,0.0021326
2657.82544,0.0021514
2656.86106,0.0021722
2655.89668,0.0022012
2654.93230,0.0022196
2653.96793,0.0022191
2653.00355,0.0022167
2652.03917,0.0022068
2651.07479,0.0021811
2650.11041,0.0021589
2649.14604,0.0021552
2648.18166,0.0021494
2647.21728,0.0021240
2646.25290,0.0021205
2645.28853,0.0021368
2644.32415,0.0021414
2643.35977,0.0021497
2642.39539,0.0021533
2641.43101,0.0021587
2640.46664,0.0021584
2639.50226,0.0021348
2638.53788,0.0021224
2637.57350,0.0021265
2636.60912,0.0021051
2635.64475,0.0020547
2634.68037,0.0020311
2633.71599,0.0020152
2632.75161,0.0019944
2631.78724,0.0020066
2630.82286,0.0020096
2629.85848,0.0020266
2628.89410,0.0020634
2627.92972,0.0020712
2626.96535,0.0020678
2626.00097,0.0020307
2625.03659,0.0019700
2624.07221,0.0019071
2623.10783,0.0018405
2622.14346,0.0017923
2621.17908,0.0017623
2620.21470,0.0017658
2619.25032,0.0017952
2618.28594,0.0018512
2617.32157,0.0019207
2616.35719,0.0019613
2615.39281,0.0019948
2614.42843,0.0020235
2613.46406,0.0020485
2612.49968,0.0020637
2611.53530,0.0020538
2610.57092,0.0020497
2609.60654,0.0020279
2608.64217,0.0019842
2607.67779,0.0019311
2606.71341,0.0018701
2605.74903,0.0018516
2604.78465,0.0018551
2603.82028,0.0018642
2602.85590,0.0018779
2601.89152,0.0018571
2600.92714,0.0018446
2599.96276,0.0018638
2598.99839,0.0018915
2598.03401,0.0018969
2597.06963,0.0018597
2596.10525,0.0018212
2595.14088,0.0018033
2594.17650,0.0018136
2593.21212,0.0018251
2592.24774,0.0018057
2591.28336,0.0017623
2590.31899,0.0017056
2589.35461,0.0016903
2588.39023,0.0017118
2587.42585,0.0017408
2586.46147,0.0017761
2585.49710,0.0018039
2584.53272,0.0018386
2583.56834,0.0018564
2582.60396,0.0018591
2581.63959,0.0018598
2580.67521,0.0018362
2579.71083,0.0017995
2578.74645,0.0017671
2577.78207,0.0017436
2576.81770,0.0017007
2575.85332,0.0016713
2574.88894,0.0017055
2573.92456,0.0017666
2572.96018,0.0018082
2571.99581,0.0018404
2571.03143,0.0019056
2570.06705,0.0019502
2569.10267,0.0019489
2568.13829,0.0019301
2567.17392,0.0018626
2566.20954,0.0017502
2565.24516,0.0016453
2564.28078,0.0016103
2563.31641,0.0016083
2562.35203,0.0015898
2561.38765,0.0015800
2560.42327,0.0015949
2559.45889,0.0016594
2558.49452,0.0017318
2557.53014,0.0017853
2556.56576,0.0018264
2555.60138,0.0018229
2554.63700,0.0018171
2553.67263,0.0018536
2552.70825,0.0018945
2551.74387,0.0018934
2550.77949,0.0018716
2549.81512,0.0018690
2548.85074,0.0018710
2547.88636,0.0018655
2546.92198,0.0018514
2545.95760,0.0018177
2544.99323,0.0017892
2544.02885,0.0017796
2543.06447,0.0017766
2542.10009,0.0017822
2541.13571,0.0017512
2540.17134,0.0016917
2539.20696,0.0016565
2538.24258,0.0016361
2537.27820,0.0016103
2536.31382,0.0015412
2535.34945,0.0014593
2534.38507,0.0014169
2533.42069,0.0014343
2532.45631,0.0015010
2531.49194,0.0015571
2530.52756,0.0015908
2529.56318,0.0015998
2528.59880,0.0016599
2527.63442,0.0017721
2526.67005,0.0018284
2525.70567,0.0018449
2524.74129,0.0017905
2523.77691,0.0016713
2522.81253,0.0015819
2521.84816,0.0015502
2520.88378,0.0015329
2519.91940,0.0014850
2518.95502,0.0014778
2517.99065,0.0015703
2517.02627,0.0017191
2516.06189,0.0017889
2515.09751,0.0017553
2514.13313,0.0017360
2513.16876,0.0017031
2512.20438,0.0016586
2511.24000,0.0016759
2510.27562,0.0016982
2509.31124,0.0016467
2508.34687,0.0015517
2507.38249,0.0014941
2506.41811,0.0014870
2505.45373,0.0014611
2504.48935,0.0013561
2503.52498,0.0012587
2502.56060,0.0012449
2501.59622,0.0012499
2500.63184,0.0012711
2499.66747,0.0013336
2498.70309,0.0013491
2497.73871,0.0012802
2496.77433,0.0012071
2495.80995,0.0011684
2494.84558,0.0011760
2493.88120,0.0012180
2492.91682,0.0012634
2491.95244,0.0013250
2490.98806,0.0013979
2490.02369,0.0014855
2489.05931,0.0015988
2488.09493,0.0016876
2487.13055,0.0016718
2486.16618,0.0016177
2485.20180,0.0016441
2484.23742,0.0016760
2483.27304,0.0016383
2482.30866,0.0015830
2481.34429,0.0015554
2480.37991,0.0015393
2479.41553,0.0015621
2478.45115,0.0016392
2477.48677,0.0016828
2476.52240,0.0016709
2475.55802,0.0016365
2474.59364,0.0016538
2473.62926,0.0017018
2472.66488,0.0016578
2471.70051,0.0015679
2470.73613,0.0015298
2469.77175,0.0015577
2468.80737,0.0015894
2467.84300,0.0016181
2466.87862,0.0016550
2465.91424,0.0016596
2464.94986,0.0016669
2463.98548,0.0016697
2463.02111,0.0016466
2462.05673,0.0015794
2461.09235,0.0014871
2460.12797,0.0014411
2459.16359,0.0014485
2458.19922,0.0014913
2457.23484,0.0014855
2456.27046,0.0014640
2455.30608,0.0014939
2454.34171,0.0014955
2453.37733,0.0014547
2452.41295,0.0014208
2451.44857,0.0014218
2450.48419,0.0013946
2449.51982,0.0013439
2448.55544,0.0013396
2447.59106,0.0013800
2446.62668,0.0014347
2445.66230,0.0014402
2444.69793,0.0014683
2443.73355,0.0015114
2442.76917,0.0014697
2441.80479,0.0014088
2440.84041,0.0013819
2439.87604,0.0014060
2438.91166,0.0014647
2437.94728,0.0015447
2436.98290,0.0016089
2436.01853,0.0016328
2435.05415,0.0016704
2434.08977,0.0016889
2433.12539,0.0016824
2432.16101,0.0016416
2431.19664,0.0015482
2430.23226,0.0014482
2429.26788,0.0013585
2428.30350,0.0013270
2427.33912,0.0013353
2426.37475,0.0013325
2425.41037,0.0013165
2424.44599,0.0012945
2423.48161,0.0013108
2422.51724,0.0013623
2421.55286,0.0014132
2420.58848,0.0014259
2419.62410,0.0014058
2418.65972,0.0013786
2417.69535,0.0013385
2416.73097,0.0013198
2415.76659,0.0013069
2414.80221,0.0012977
2413.83783,0.0013334
2412.87346,0.0013557
2411.90908,0.0013570
2410.94470,0.0013822
2409.98032,0.0014008
2409.01594,0.0013834
2408.05157,0.0013479
2407.08719,0.0013131
2406.12281,0.0012793
2405.15843,0.0012740
2404.19406,0.0012892
2403.22968,0.0013036
2402.26530,0.0013539
2401.30092,0.0014045
2400.33654,0.0014077
2399.37217,0.0013861
2398.40779,0.0013726
2397.44341,0.0013635
2396.47903,0.0013289
2395.51465,0.0013026
2394.55028,0.0012849
2393.58590,0.0012535
2392.62152,0.0012305
2391.65714,0.0011896
2390.69276,0.0011466
2389.72839,0.0011358
2388.76401,0.0011361
2387.79963,0.0011454
2386.83525,0.0011765
2385.87088,0.0012241
2384.90650,0.0012965
2383.94212,0.0014273
2382.97774,0.0016002
2382.01336,0.0018117
2381.04899,0.0020673
2380.08461,0.0023220
2379.12023,0.0026095
2378.15585,0.0029544
2377.19147,0.0033175
2376.22710,0.0037067
2375.26272,0.0041081
2374.29834,0.0045109
2373.33396,0.0049613
2372.36959,0.0054670
2371.40521,0.0059884
2370.44083,0.0064934
2369.47645,0.0069524
2368.51207,0.0073524
2367.54770,0.0076900
2366.58332,0.0079428
2365.61894,0.0081287
2364.65456,0.0082917
2363.69018,0.0084132
2362.72581,0.0084841
2361.76143,0.0085460
2360.79705,0.0085900
2359.83267,0.0085717
2358.86829,0.0084827
2357.90392,0.0083351
2356.93954,0.0080976
2355.97516,0.0077100
2355.01078,0.0071564
2354.04641,0.0064511
2353.08203,0.0056512
2352.11765,0.0048737
2351.15327,0.0042336
2350.18889,0.0038228
2349.22452,0.0036769
2348.26014,0.0037834
2347.29576,0.0041285
2346.33138,0.0046464
2345.36700,0.0052184
2344.40263,0.0057758
2343.43825,0.0062360
2342.47387,0.0065090
2341.50949,0.0066367
2340.54512,0.0066770
2339.58074,0.0066532
2338.61636,0.0066152
2337.65198,0.0065958
2336.68760,0.0065905
2335.72323,0.0065702
2334.75885,0.0065291
2333.79447,0.0064729
2332.83009,0.0064352
2331.86571,0.0063936
2330.90134,0.0062757
2329.93696,0.0061267
2328.97258,0.0059677
2328.00820,0.0057859
2327.04382,0.0056307
2326.07945,0.0055045
2325.11507,0.0053658
2324.15069,0.0051913
2323.18631,0.0050185
2322.22194,0.0048760
2321.25756,0.0047374
2320.29318,0.0045543
2319.32880,0.0043153
2318.36442,0.0040692
2317.40005,0.0038200
2316.43567,0.0035715
2315.47129,0.0033532
2314.50691,0.0031523
2313.54253,0.0029633
2312.57816,0.0028169
2311.61378,0.0027328
2310.64940,0.0026732
2309.68502,0.0025947
2308.72065,0.0024909
2307.75627,0.0023778
2306.79189,0.0022660
2305.82751,0.0021680
2304.86313,0.0021024
2303.89876,0.0020586
2302.93438,0.0020295
2301.97000,0.0020207
2301.00562,0.0020402
2300.04124,0.0020662
2299.07687,0.0020629
2298.11249,0.0020504
2297.14811,0.0020460
2296.18373,0.0020415
2295.21935,0.0020371
2294.25498,0.0020326
2293.29060,0.0020282
2292.32622,0.0020237
2291.36184,0.0020193
2290.39747,0.0020148
2289.43309,0.0020104
2288.46871,0.0020059
2287.50433,0.0020014
2286.53995,0.0019970
2285.57558,0.0019925
2284.61120,0.0019881
2283.64682,0.0019836
2282.68244,0.0019792
2281.71806,0.0019747
2280.75369,0.0019703
2279.78931,0.0019658
2278.82493,0.0019614
2277.86055,0.0019569
2276.89618,0.0019525
2275.93180,0.0019480
2274.96742,0.0019436
2274.00304,0.0019391
2273.03866,0.0019347
2272.07429,0.0019302
2271.10991,0.0019258
2270.14553,0.0019213
2269.18115,0.0019169
2268.21677,0.0019124
2267.25240,0.0019080
2266.28802,0.0019035
2265.32364,0.0018991
2264.35926,0.0018946
2263.39488,0.0018901
2262.43051,0.0018857
2261.46613,0.0018812
2260.50175,0.0018768
2259.53737,0.0018723
2258.57300,0.0018679
2257.60862,0.0018634
2256.64424,0.0018590
2255.67986,0.0018545
2254.71548,0.0018501
2253.75111,0.0018456
2252.78673,0.0018412
2251.82235,0.0018367
2250.85797,0.0018323
2249.89359,0.0018278
2248.92922,0.0018234
2247.96484,0.0018189
2247.00046,0.0018145
2246.03608,0.0018100
2245.07171,0.0018056
2244.10733,0.0018011
2243.14295,0.0017967
2242.17857,0.0017922
2241.21419,0.0017878
2240.24982,0.0017833
2239.28544,0.0017788
2238.32106,0.0017744
2237.35668,0.0017699
2236.39230,0.0017655
2235.42793,0.0017610
2234.46355,0.0017566
2233.49917,0.0017521
2232.53479,0.0017477
2231.57041,0.0017432
2230.60604,0.0017388
2229.64166,0.0017343
2228.67728,0.0017299
2227.71290,0.0017254
2226.74853,0.0017210
2225.78415,0.0017165
2224.81977,0.0017121
2223.85539,0.0017076
2222.89101,0.0017032
2221.92664,0.0016987
2220.96226,0.0016943
2219.99788,0.0016898
2219.03350,0.0016854
2218.06912,0.0016809
2217.10475,0.0016765
2216.14037,0.0016720
2215.17599,0.0016676
2214.21161,0.0016631
2213.24724,0.0016586
2212.28286,0.0016542
2211.31848,0.0016497
2210.35410,0.0016453
2209.38972,0.0016408
2208.42535,0.0016364
2207.46097,0.0016319
2206.49659,0.0016275
2205.53221,0.0016230
2204.56783,0.0016186
2203.60346,0.0016141
2202.63908,0.0016097
2201.67470,0.0016052
2200.71032,0.0016008
2199.74594,0.0015963
2198.78157,0.0015919
2197.81719,0.0015874
2196.85281,0.0015830
2195.88843,0.0015785
2194.92406,0.0015741
2193.95968,0.0015696
2192.99530,0.0015652
2192.03092,0.0015607
2191.06654,0.0015563
2190.10217,0.0015518
2189.13779,0.0015473
2188.17341,0.0015429
2187.20903,0.0015384
2186.24465,0.0015340
2185.28028,0.0015295
2184.31590,0.0015251
2183.35152,0.0015206
2182.38714,0.0015162
2181.42276,0.0015117
2180.45839,0.0015073
2179.49401,0.0015028
2178.52963,0.0014984
2177.56525,0.0014939
2176.60088,0.0014895
2175.63650,0.0014850
2174.67212,0.0014806
2173.70774,0.0014761
2172.74336,0.0014717
2171.77899,0.0014672
2170.81461,0.0014628
2169.85023,0.0014583
2168.88585,0.0014539
2167.92147,0.0014494
2166.95710,0.0014450
2165.99272,0.0014405
2165.02834,0.0014360
2164.06396,0.0014316
2163.09959,0.0014271
2162.13521,0.0014227
2161.17083,0.0014182
2160.20645,0.0014138
2159.24207,0.0014093
2158.27770,0.0014049
2157.31332,0.0014004
2156.34894,0.0013960
2155.38456,0.0013915
2154.42018,0.0013871
2153.45581,0.0013826
2152.49143,0.0013782
2151.52705,0.0013737
2150.56267,0.0013693
2149.59829,0.0013648
2148.63392,0.0013604
2147.66954,0.0013559
2146.70516,0.0013515
2145.74078,0.0013470
2144.77641,0.0013426
2143.81203,0.0013381
2142.84765,0.0013337
2141.88327,0.0013292
2140.91889,0.0013247
2139.95452,0.0013203
2138.99014,0.0013158
2138.02576,0.0013114
2137.06138,0.0013069
2136.09700,0.0013025
2135.13263,0.0012980
2134.16825,0.0012936
2133.20387,0.0012891
2132.23949,0.0012847
2131.27512,0.0012802
2130.31074,0.0012758
2129.34636,0.0012713
2128.38198,0.0012669
2127.41760,0.0012624
2126.45323,0.0012580
2125.48885,0.0012535
2124.52447,0.0012491
2123.56009,0.0012446
2122.59571,0.0012402
2121.63134,0.0012357
2120.66696,0.0012313
2119.70258,0.0012268
2118.73820,0.0012224
2117.77382,0.0012179
2116.80945,0.0012135
2115.84507,0.0012090
2114.88069,0.0012045
2113.91631,0.0012001
2112.95194,0.0011956
2111.98756,0.0011912
2111.02318,0.0011867
2110.05880,0.0011823
2109.09442,0.0011778
2108.13005,0.0011734
2107.16567,0.0011689
2106.20129,0.0011645
2105.23691,0.0011600
2104.27253,0.0011556
2103.30816,0.0011511
2102.34378,0.0011467
2101.37940,0.0011422
2100.41502,0.0011378
2099.45065,0.0011333
2098.48627,0.0011289
2097.52189,0.0011244
2096.55751,0.0011200
2095.59313,0.0011155
2094.62876,0.0011111
2093.66438,0.0011066
2092.70000,0.0011022
2091.73562,0.0010977
2090.77124,0.0010932
2089.80687,0.0010888
2088.84249,0.0010843
2087.87811,0.0010799
2086.91373,0.0010754
2085.94935,0.0010710
2084.98498,0.0010665
2084.02060,0.0010621
2083.05622,0.0010576
2082.09184,0.0010532
2081.12747,0.0010487
2080.16309,0.0010443
2079.19871,0.0010398
2078.23433,0.0010354
2077.26995,0.0010309
2076.30558,0.0010265
2075.34120,0.0010220
2074.37682,0.0010176
2073.41244,0.0010131
2072.44806,0.0010087
2071.48369,0.0010042
2070.51931,0.0009998
2069.55493,0.0009953
2068.59055,0.0009909
2067.62618,0.0009864
2066.66180,0.0009819
2065.69742,0.0009775
2064.73304,0.0009730
2063.76866,0.0009686
2062.80429,0.0009641
2061.83991,0.0009597
2060.87553,0.0009552
2059.91115,0.0009508
2058.94677,0.0009463
2057.98240,0.0009419
2057.01802,0.0009374
2056.05364,0.0009330
2055.08926,0.0009285
2054.12488,0.0009241
2053.16051,0.0009196
2052.19613,0.0009152
2051.23175,0.0009107
2050.26737,0.0009063
2049.30300,0.0009018
2048.33862,0.0008974
2047.37424,0.0008929
2046.40986,0.0008885
2045.44548,0.0008840
2044.48111,0.0008796
2043.51673,0.0008751
2042.55235,0.0008706
2041.58797,0.0008662
2040.62359,0.0008617
2039.65922,0.0008573
2038.69484,0.0008528
2037.73046,0.0008484
2036.76608,0.0008439
2035.80171,0.0008395
2034.83733,0.0008350
2033.87295,0.0008306
2032.90857,0.0008261
2031.94419,0.0008217
2030.97982,0.0008172
2030.01544,0.0008128
2029.05106,0.0008083
2028.08668,0.0008039
2027.12230,0.0007994
2026.15793,0.0007950
2025.19355,0.0007905
2024.22917,0.0007861
2023.26479,0.0007816
2022.30041,0.0007772
2021.33604,0.0007727
2020.37166,0.0007683
2019.40728,0.0007638
2018.44290,0.0007593
2017.47853,0.0007549
2016.51415,0.0007504
2015.54977,0.0007460
2014.58539,0.0007415
2013.62101,0.0007371
2012.65664,0.0007326
2011.69226,0.0007282
2010.72788,0.0007237
2009.76350,0.0007193
2008.79912,0.0007148
2007.83475,0.0007104
2006.87037,0.0007059
2005.90599,0.0007015
2004.94161,0.0006970
2003.97724,0.0006926
2003.01286,0.0006881
2002.04848,0.0006837
2001.08410,0.0006792
2000.11972,0.0006748
1999.15535,0.0006703
1998.19097,0.0006659
1997.22659,0.0006614
1996.26221,0.0006570
1995.29783,0.0006525
1994.33346,0.0006481
1993.36908,0.0006436
1992.40470,0.0006391
1991.44032,0.0006347
1990.47594,0.0006302
1989.51157,0.0006258
1988.54719,0.0006213
1987.58281,0.0006169
1986.61843,0.0006124
1985.65406,0.0006080
1984.68968,0.0006035
1983.72530,0.0005991
1982.76092,0.0005946
1981.79654,0.0005902
1980.83217,0.0005857
1979.86779,0.0005813
1978.90341,0.0005768
1977.93903,0.0005724
1976.97465,0.0005679
1976.01028,0.0005635
1975.04590,0.0005590
1974.08152,0.0005546
1973.11714,0.0005501
1972.15276,0.0005457
1971.18839,0.0005412
1970.22401,0.0005368
1969.25963,0.0005323
1968.29525,0.0005278
1967.33088,0.0005234
1966.36650,0.0005189
1965.40212,0.0005145
1964.43774,0.0005100
1963.47336,0.0005056
1962.50899,0.0005011
1961.54461,0.0004967
1960.58023,0.0004922
1959.61585,0.0004878
1958.65147,0.0004833
1957.68710,0.0004789
1956.72272,0.0004744
1955.75834,0.0004700
1954.79396,0.0004655
1953.82959,0.0004611
1952.86521,0.0004566
1951.90083,0.0004522
1950.93645,0.0004477
1949.97207,0.0004433
1949.00770,0.0004388
1948.04332,0.0004344
1947.07894,0.0004299
1946.11456,0.0004255
1945.15018,0.0004210
1944.18581,0.0004165
1943.22143,0.0004121
1942.25705,0.0004076
1941.29267,0.0004032
1940.32829,0.0003987
1939.36392,0.0003943
1938.39954,0.0003898
1937.43516,0.0003854
1936.47078,0.0003809
1935.50641,0.0003765
1934.54203,0.0003720
1933.57765,0.0003676
1932.61327,0.0003631
1931.64889,0.0003587
1930.68452,0.0003542
1929.72014,0.0003498
1928.75576,0.0003453
1927.79138,0.0003409
1926.82700,0.0003364
1925.86263,0.0003320
1924.89825,0.0003275
1923.93387,0.0003231
1922.96949,0.0003186
1922.00512,0.0003142
1921.04074,0.0003097
1920.07636,0.0003052
1919.11198,0.0003008
1918.14760,0.0002963
1917.18323,0.0002919
1916.21885,0.0002874
1915.25447,0.0002830
1914.29009,0.0002785
1913.32571,0.0002741
1912.36134,0.0002696
1911.39696,0.0002652
1910.43258,0.0002607
1909.46820,0.0002563
1908.50382,0.0002518
1907.53945,0.0002474
1906.57507,0.0002429
1905.61069,0.0002385
1904.64631,0.0002340
1903.68194,0.0002296
1902.71756,0.0002251
1901.75318,0.0002207
1900.78880,0.0002162
1899.82442,0.0002118
1898.86005,0.0002073
1897.89567,0.0002029
1896.93129,0.0001984
1895.96691,0.0001940
1895.00253,0.0001895
1894.03816,0.0001850
1893.07378,0.0001806
1892.10940,0.0001761
1891.14502,0.0001717
1890.18065,0.0001672
1889.21627,0.0001628
1888.25189,0.0001583
1887.28751,0.0001539
1886.32313,0.0001295
1885.35876,0.0001139
1884.39438,0.0001297
1883.43000,0.0001595
1882.46562,0.0001981
1881.50124,0.0002818
1880.53687,0.0003671
1879.57249,0.0004252
1878.60811,0.0004507
1877.64373,0.0004314
1876.67935,0.0003694
1875.71498,0.0002449
1874.75060,0.0001212
1873.78622,0.0000943
1872.82184,0.0001425
1871.85747,0.0002319
1870.89309,0.0003722
1869.92871,0.0005687
1868.96433,0.0007121
1867.99995,0.0007691
1867.03558,0.0007652
1866.07120,0.0007212
1865.10682,0.0006401
1864.14244,0.0005021
1863.17806,0.0003895
1862.21369,0.0003410
1861.24931,0.0003296
1860.28493,0.0003463
1859.32055,0.0003875
1858.35618,0.0004296
1857.39180,0.0004389
1856.42742,0.0004418
1855.46304,0.0004429
1854.49866,0.0004513
1853.53429,0.0004880
1852.56991,0.0005304
1851.60553,0.0005534
1850.64115,0.0005467
1849.67677,0.0005569
1848.71240,0.0006264
1847.74802,0.0007194
1846.78364,0.0007780
1845.81926,0.0008056
1844.85488,0.0008169
1843.89051,0.0007718
1842.92613,0.0006970
1841.96175,0.0006563
1840.99737,0.0006249
1840.03300,0.0005427
1839.06862,0.0004256
1838.10424,0.0003778
1837.13986,0.0004057
1836.17548,0.0003957
1835.21111,0.0003625
1834.24673,0.0003739
1833.28235,0.0003971
1832.31797,0.0004030
1831.35359,0.0004081
1830.38922,0.0004609
1829.42484,0.0005427
1828.46046,0.0005877
1827.49608,0.0006210
1826.53171,0.0006623
1825.56733,0.0006681
1824.60295,0.0006190
1823.63857,0.0005707
1822.67419,0.0005451
1821.70982,0.0004963
1820.74544,0.0004273
1819.78106,0.0003540
1818.81668,0.0003052
1817.85230,0.0002878
1816.88793,0.0002637
1815.92355,0.0002525
1814.95917,0.0002720
1813.99479,0.0003018
1813.03041,0.0003355
1812.06604,0.0003778
1811.10166,0.0004358
1810.13728,0.0004881
1809.17290,0.0005065
1808.20853,0.0005063
1807.24415,0.0005267
1806.27977,0.0005754
1805.31539,0.0006126
1804.35101,0.0006243
1803.38664,0.0006360
1802.42226,0.0006390
1801.45788,0.0006363
1800.49350,0.0006330
1799.52912,0.0005851
1798.56475,0.0005062
1797.60037,0.0004659
1796.63599,0.0004737
1795.67161,0.0005134
1794.70724,0.0005716
1793.74286,0.0006135
1792.77848,0.0006336
1791.81410,0.0006486
1790.84972,0.0006512
1789.88535,0.0006483
1788.92097,0.0006267
1787.95659,0.0005623
1786.99221,0.0005136
1786.02783,0.0005339
1785.06346,0.0005598
1784.09908,0.0005696
1783.13470,0.0005977
1782.17032,0.0005991
1781.20594,0.0005789
1780.24157,0.0005603
1779.27719,0.0005205
1778.31281,0.0005099
1777.34843,0.0005623
1776.38406,0.0006574
1775.41968,0.0007543
1774.45530,0.0008228
1773.49092,0.0008910
1772.52654,0.0009700
1771.56217,0.0010266
1770.59779,0.0010280
1769.63341,0.0009926
1768.66903,0.0009234
1767.70465,0.0008254
1766.74028,0.0007822
1765.77590,0.0008074
1764.81152,0.0008412
1763.84714,0.0008386
1762.88276,0.0008178
1761.91839,0.0008628
1760.95401,0.0009502
1759.98963,0.0010122
1759.02525,0.0010583
1758.06088,0.0010684
1757.09650,0.0010597
1756.13212,0.0011359
1755.16774,0.0012933
1754.20336,0.0014681
1753.23899,0.0016522
1752.27461,0.0018227
1751.31023,0.0019694
1750.34585,0.0021182
1749.38147,0.0022565
1748.41710,0.0023591
1747.45272,0.0024025
1746.48834,0.0023600
1745.52396,0.0023256
1744.55959,0.0024042
1743.59521,0.0025030
1742.63083,0.0025586
1741.66645,0.0025791
1740.70207,0.0025401
1739.73770,0.0025092
1738.77332,0.0025804
1737.80894,0.0027172
1736.84456,0.0028186
1735.88018,0.0028361
1734.91581,0.0027970
1733.95143,0.0027532
1732.98705,0.0027074
1732.02267,0.0025933
1731.05829,0.0023995
1730.09392,0.0021512
1729.12954,0.0018960
1728.16516,0.0017379
1727.20078,0.0016901
1726.23641,0.0016502
1725.27203,0.0015532
1724.30765,0.0014343
1723.34327,0.0013891
1722.37889,0.0014514
1721.41452,0.0015456
1720.45014,0.0016372
1719.48576,0.0017430
1718.52138,0.0018166
1717.55700,0.0018396
1716.59263,0.0018211
1715.62825,0.0017465
1714.66387,0.0016228
1713.69949,0.0014456
1712.73512,0.0012595
1711.77074,0.0011735
1710.80636,0.0012012
1709.84198,0.0012488
1708.87760,0.0013246
1707.91323,0.0014162
1706.94885,0.0014144
1705.98447,0.0014322
1705.02009,0.0015987
1704.05571,0.0018136
1703.09134,0.0019643
1702.12696,0.0020145
1701.16258,0.0021094
1700.19820,0.0022937
1699.23382,0.0024394
1698.26945,0.0024957
1697.30507,0.0024578
1696.34069,0.0023116
1695.37631,0.0021071
1694.41194,0.0019974
1693.44756,0.0020153
1692.48318,0.0020061
1691.51880,0.0018807
1690.55442,0.0017834
1689.59005,0.0019582
1688.62567,0.0022866
1687.66129,0.0025637
1686.69691,0.0027628
1685.73253,0.0029038
1684.76816,0.0030036
1683.80378,0.0030511
1682.83940,0.0030298
1681.87502,0.0029373
1680.91065,0.0028275
1679.94627,0.0027605
1678.98189,0.0027830
1678.01751,0.0029093
1677.05313,0.0030411
1676.08876,0.0031263
1675.12438,0.0031839
1674.16000,0.0032959
1673.19562,0.0034301
1672.23124,0.0034971
1671.26687,0.0035115
1670.30249,0.0034881
1669.33811,0.0034958
1668.37373,0.0035714
1667.40935,0.0036519
1666.44498,0.0036949
1665.48060,0.0037058
1664.51622,0.0037063
1663.55184,0.0037305
1662.58747,0.0038128
1661.62309,0.0038636
1660.65871,0.0038269
1659.69433,0.0037371
1658.72995,0.0036994
1657.76558,0.0038785
1656.80120,0.0042143
1655.83682,0.0045507
1654.87244,0.0047692
1653.90806,0.0048697
1652.94369,0.0048859
1651.97931,0.0048257
1651.01493,0.0047425
1650.05055,0.0045921
1649.08618,0.0043385
1648.12180,0.0040713
1647.15742,0.0039368
1646.19304,0.0039710
1645.22866,0.0040120
1644.26429,0.0039762
1643.29991,0.0038779
1642.33553,0.0037472
1641.37115,0.0036363
1640.40677,0.0036772
1639.44240,0.0038593
1638.47802,0.0040265
1637.51364,0.0041200
1636.54926,0.0041559
1635.58488,0.0041437
1634.62051,0.0040743
1633.65613,0.0039809
1632.69175,0.0038660
1631.72737,0.0037240
1630.76300,0.0035704
1629.79862,0.0034550
1628.83424,0.0034859
1627.86986,0.0035593
1626.90548,0.0035868
1625.94111,0.0035801
1624.97673,0.0035333
1624.01235,0.0034607
1623.04797,0.0033397
1622.08359,0.0033035
1621.11922,0.0034022
1620.15484,0.0035114
1619.19046,0.0035776
1618.22608,0.0035978
1617.26171,0.0036297
1616.29733,0.0036377
1615.33295,0.0035893
1614.36857,0.0035088
1613.40419,0.0033971
1612.43982,0.0032578
1611.47544,0.0031243
1610.51106,0.0031117
1609.54668,0.0031705
1608.58230,0.0031900
1607.61793,0.0031870
1606.65355,0.0031788
1605.68917,0.0031764
1604.72479,0.0031614
1603.76041,0.0031428
1602.79604,0.0031388
1601.83166,0.0031355
1600.86728,0.0031177
1599.90290,0.0030861
1598.93853,0.0030536
1597.97415,0.0030229
1597.00977,0.0030011
1596.04539,0.0029796
1595.08101,0.0029570
1594.11664,0.0029359
1593.15226,0.0029132
1592.18788,0.0028873
1591.22350,0.0028608
1590.25912,0.0028274
1589.29475,0.0027719
1588.33037,0.0027184
1587.36599,0.0026692
1586.40161,0.0026240
1585.43724,0.0025809
1584.47286,0.0025437
1583.50848,0.0025079
1582.54410,0.0024445
1581.57972,0.0024639
1580.61535,0.0026001
1579.65097,0.0027422
1578.68659,0.0028410
1577.72221,0.0028924
1576.75783,0.0028941
1575.79346,0.0028318
1574.82908,0.0027605
1573.86470,0.0026913
1572.90032,0.0025926
1571.93594,0.0024454
1570.97157,0.0022791
1570.00719,0.0022387
1569.04281,0.0022839
1568.07843,0.0022866
1567.11406,0.0022214
1566.14968,0.0021135
1565.18530,0.0020642
1564.22092,0.0021305
1563.25654,0.0023729
1562.29217,0.0027071
1561.32779,0.0029490
1560.36341,0.0030779
1559.39903,0.0031675
1558.43465,0.0032269
1557.47028,0.0031960
1556.50590,0.0030545
1555.54152,0.0028145
1554.57714,0.0025705
1553.61276,0.0024269
1552.64839,0.0023613
1551.68401,0.0023631
1550.71963,0.0023896
1549.75525,0.0023894
1548.79088,0.0023742
1547.82650,0.0024137
1546.86212,0.0025143
1545.89774,0.0025951
1544.93336,0.0027292
1543.96899,0.0029932
1543.00461,0.0032840
1542.04023,0.0034815
1541.07585,0.0035313
1540.11147,0.0034658
1539.14710,0.0033756
1538.18272,0.0032804
1537.21834,0.0031036
1536.25396,0.0028944
1535.28959,0.0026930
1534.32521,0.0024784
1533.36083,0.0023698
1532.39645,0.0023566
1531.43207,0.0023286
1530.46770,0.0022941
1529.50332,0.0022447
1528.53894,0.0021757
1527.57456,0.0021471
1526.61018,0.0022199
1525.64581,0.0023654
1524.68143,0.0025020
1523.71705,0.0025564
1522.75267,0.0025556
1521.78829,0.0025532
1520.82392,0.0025239
1519.85954,0.0024838
1518.89516,0.0024160
1517.93078,0.0022892
1516.96641,0.0021319
1516.00203,0.0019931
1515.03765,0.0019409
1514.07327,0.0019258
1513.10889,0.0018677
1512.14452,0.0018306
1511.18014,0.0019304
1510.21576,0.0021328
1509.25138,0.0023082
1508.28700,0.0024015
1507.32263,0.0024026
1506.35825,0.0023479
1505.39387,0.0022246
1504.42949,0.0020379
1503.46512,0.0018372
1502.50074,0.0015961
1501.53636,0.0014206
1500.57198,0.0014157
1499.60760,0.0015106
1498.64323,0.0015983
1497.67885,0.0016077
1496.71447,0.0015621
1495.75009,0.0015209
1494.78571,0.0014983
1493.82134,0.0014561
1492.85696,0.0014140
1491.89258,0.0013924
1490.92820,0.0013566
1489.96382,0.0013646
1488.99945,0.0013942
1488.03507,0.0013686
1487.07069,0.0013151
1486.10631,0.0012497
1485.14194,0.0011899
1484.17756,0.0011643
1483.21318,0.0011521
1482.24880,0.0011337
1481.28442,0.0011481
1480.32005,0.0011875
1479.35567,0.0012149
1478.39129,0.0012606
1477.42691,0.0013593
1476.46253,0.0015080
1475.49816,0.0016537
1474.53378,0.0017616
1473.56940,0.0018336
1472.60502,0.0018681
1471.64065,0.0018597
1470.67627,0.0018445
1469.71189,0.0018816
1468.74751,0.0019051
1467.78313,0.0018902
1466.81876,0.0018930
1465.85438,0.0019082
1464.89000,0.0019193
1463.92562,0.0018764
1462.96124,0.0018214
1461.99687,0.0018803
1461.03249,0.0020306
1460.06811,0.0021814
1459.10373,0.0023109
1458.13935,0.0024319
1457.17498,0.0024990
1456.21060,0.0025020
1455.24622,0.0024384
1454.28184,0.0022910
1453.31747,0.0021179
1452.35309,0.0019488
1451.38871,0.0018339
1450.42433,0.0018377
1449.45995,0.0018825
1448.49558,0.0018902
1447.53120,0.0018765
1446.56682,0.0018662
1445.60244,0.0018594
1444.63806,0.0018489
1443.67369,0.0017950
1442.70931,0.0017338
1441.74493,0.0017774
1440.78055,0.0018859
1439.81618,0.0019758
1438.85180,0.0020460
1437.88742,0.0021004
1436.92304,0.0021259
1435.95866,0.0021187
1434.99429,0.0020973
1434.02991,0.0020588
1433.06553,0.0019832
1432.10115,0.0018819
1431.13677,0.0018103
1430.17240,0.0018200
1429.20802,0.0018510
1428.24364,0.0018496
1427.27926,0.0018418
1426.31488,0.0018160
1425.35051,0.0017902
1424.38613,0.0018454
1423.42175,0.0019849
1422.45737,0.0021426
1421.49300,0.0022668
1420.52862,0.0023603
1419.56424,0.0024222
1418.59986,0.0024489
1417.63548,0.0024466
1416.67111,0.0024027
1415.70673,0.0023239
1414.74235,0.0022195
1413.77797,0.0021411
1412.81359,0.0021419
1411.84922,0.0021634
1410.88484,0.0021665
1409.92046,0.0021723
1408.95608,0.0021887
1407.99171,0.0022043
1407.02733,0.0022177
1406.06295,0.0022265
1405.09857,0.0022375
1404.13419,0.0022841
1403.16982,0.0023477
1402.20544,0.0023871
1401.24106,0.0023954
1400.27668,0.0023981
1399.31230,0.0024386
1398.34793,0.0025037
1397.38355,0.0025444
1396.41917,0.0025462
1395.45479,0.0025281
1394.49041,0.0024835
1393.52604,0.0024390
1392.56166,0.0024530
1391.59728,0.0024828
1390.63290,0.0024806
1389.66853,0.0024602
1388.70415,0.0024606
1387.73977,0.0024961
1386.77539,0.0025165
1385.81101,0.0025015
1384.84664,0.0024651
1383.88226,0.0024166
1382.91788,0.0023578
1381.95350,0.0023045
1380.98912,0.0022819
1380.02475,0.0022712
1379.06037,0.0022664
1378.09599,0.0022696
1377.13161,0.0022647
1376.16724,0.0022472
1375.20286,0.0022189
1374.23848,0.0021888
1373.27410,0.0021599
1372.30972,0.0021323
1371.34535,0.0021035
1370.38097,0.0020617
1369.41659,0.0020057
1368.45221,0.0019672
1367.48783,0.0019678
1366.52346,0.0019847
1365.55908,0.0019944
1364.59470,0.0019817
1363.63032,0.0019618
1362.66594,0.0019503
1361.70157,0.0019259
1360.73719,0.0018894
1359.77281,0.0018455
1358.80843,0.0017826
1357.84406,0.0017159
1356.87968,0.0016813
1355.91530,0.0016764
1354.95092,0.0016748
1353.98654,0.0016751
1353.02217,0.0016713
1352.05779,0.0016683
1351.09341,0.0016681
1350.12903,0.0016535
1349.16465,0.0016325
1348.20028,0.0016106
1347.23590,0.0015839
1346.27152,0.0015601
1345.30714,0.0015431
1344.34276,0.0015346
1343.37839,0.0015392
1342.41401,0.0015588
1341.44963,0.0015820
1340.48525,0.0015949
1339.52088,0.0015940
1338.55650,0.0015762
1337.59212,0.0015469
1336.62774,0.0015168
1335.66336,0.0014792
1334.69899,0.0014398
1333.73461,0.0014131
1332.77023,0.0013947
1331.80585,0.0013894
1330.84147,0.0013988
1329.87710,0.0014123
1328.91272,0.0014201
1327.94834,0.0014142
1326.98396,0.0014053
1326.01959,0.0014059
1325.05521,0.0014094
1324.09083,0.0014143
1323.12645,0.0014287
1322.16207,0.0014407
1321.19770,0.0014447
1320.23332,0.0014600
1319.26894,0.0014876
1318.30456,0.0015111
1317.34018,0.0015254
1316.37581,0.0015351
1315.41143,0.0015416
1314.44705,0.0015439
1313.48267,0.0015444
1312.51829,0.0015544
1311.55392,0.0015743
1310.58954,0.0015935
1309.62516,0.0016168
1308.66078,0.0016384
1307.69641,0.0016459
1306.73203,0.0016385
1305.76765,0.0016268
1304.80327,0.0016209
1303.83889,0.0016036
1302.87452,0.0015778
1301.91014,0.0015629
1300.94576,0.0015610
1299.98138,0.0015627
1299.01700,0.0015577
1298.05263,0.0015612
1297.08825,0.0015671
1296.12387,0.0015551
1295.15949,0.0015372
1294.19512,0.0015247
1293.23074,0.0015140
1292.26636,0.0015008
1291.30198,0.0014935
1290.33760,0.0014883
1289.37323,0.0014724
1288.40885,0.0014484
1287.44447,0.0014370
1286.48009,0.0014546
1285.51571,0.0014706
1284.55134,0.0014673
1283.58696,0.0014611
1282.62258,0.0014534
1281.65820,0.0014481
1280.69382,0.0014533
1279.72945,0.0014581
1278.76507,0.0014482
1277.80069,0.0014410
1276.83631,0.0014552
1275.87194,0.0014837
1274.90756,0.0015133
1273.94318,0.0015331
1272.97880,0.0015452
1272.01442,0.0015605
1271.05005,0.0015868
1270.08567,0.0016123
1269.12129,0.0016317
1268.15691,0.0016590
1267.19253,0.0016891
1266.22816,0.0017147
1265.26378,0.0017299
1264.29940,0.0017308
1263.33502,0.0017291
1262.37065,0.0017277
1261.40627,0.0017243
1260.44189,0.0017234
1259.47751,0.0017210
1258.51313,0.0017097
1257.54876,0.0017045
1256.58438,0.0017108
1255.62000,0.0017064
1254.65562,0.0016862
1253.69124,0.0016606
1252.72687,0.0016388
1251.76249,0.0016276
1250.79811,0.0016281
1249.83373,0.0016363
1248.86935,0.0016482
1247.90498,0.0016674
1246.94060,0.0016954
1245.97622,0.0017212
1245.01184,0.0017330
1244.04747,0.0017391
1243.08309,0.0017506
1242.11871,0.0017635
1241.15433,0.0017745
1240.18995,0.0017841
1239.22558,0.0017921
1238.26120,0.0017988
1237.29682,0.0018035
1236.33244,0.0018033
1235.36806,0.0017992
1234.40369,0.0017940
1233.43931,0.0017902
1232.47493,0.0018007
1231.51055,0.0018256
1230.54618,0.0018523
1229.58180,0.0018721
1228.61742,0.0018766
1227.65304,0.0018793
1226.68866,0.0018933
1225.72429,0.0019058
1224.75991,0.0019113
1223.79553,0.0019234
1222.83115,0.0019454
1221.86677,0.0019677
1220.90240,0.0019903
1219.93802,0.0020121
1218.97364,0.0020198
1218.00926,0.0020092
1217.04488,0.0019932
1216.08051,0.0019800
1215.11613,0.0019739
1214.15175,0.0019741
1213.18737,0.0019750
1212.22300,0.0019865
1211.25862,0.0020066
1210.29424,0.0020247
1209.32986,0.0020511
1208.36548,0.0020857
1207.40111,0.0021107
1206.43673,0.0021315
1205.47235,0.0021612
1204.50797,0.0021821
1203.54359,0.0021969
1202.57922,0.0022279
1201.61484,0.0022612
1200.65046,0.0022929
1199.68608,0.0023228
1198.72171,0.0023475
1197.75733,0.0023818
1196.79295,0.0024147
1195.82857,0.0024356
1194.86419,0.0024619
1193.89982,0.0024965
1192.93544,0.0025232
1191.97106,0.0025432
1191.00668,0.0025629
1190.04230,0.0025705
1189.07793,0.0025679
1188.11355,0.0025614
1187.14917,0.0025570
1186.18479,0.0025613
1185.22041,0.0025660
1184.25604,0.0025747
1183.29166,0.0025969
1182.32728,0.0026338
1181.36290,0.0026753
1180.39853,0.0027092
1179.43415,0.0027320
1178.46977,0.0027457
1177.50539,0.0027552
1176.54101,0.0027507
1175.57664,0.0027324
1174.61226,0.0027124
1173.64788,0.0026947
1172.68350,0.0026859
1171.71912,0.0026835
1170.75475,0.0026913
1169.79037,0.0027066
1168.82599,0.0027156
1167.86161,0.0027220
1166.89724,0.0027348
1165.93286,0.0027535
1164.96848,0.0027641
1164.00410,0.0027664
1163.03972,0.0027708
1162.07535,0.0027761
1161.11097,0.0027798
1160.14659,0.0027776
1159.18221,0.0027616
1158.21783,0.0027297
1157.25346,0.0026987
1156.28908,0.0026851
1155.32470,0.0027030
1154.36032,0.0027474
1153.39594,0.0027958
1152.43157,0.0028437
1151.46719,0.0028848
1150.50281,0.0029252
1149.53843,0.0029617
1148.57406,0.0029747
1147.60968,0.0029735
1146.64530,0.0029724
1145.68092,0.0029768
1144.71654,0.0029834
1143.75217,0.0029977
1142.78779,0.0030136
1141.82341,0.0030200
1140.85903,0.0030343
1139.89465,0.0030496
1138.93028,0.0030521
1137.96590,0.0030325
1137.00152,0.0030078
1136.03714,0.0030211
1135.07276,0.0030442
1134.10839,0.0030453
1133.14401,0.0030545
1132.17963,0.0030725
1131.21525,0.0030743
1130.25088,0.0030825
1129.28650,0.0031124
1128.32212,0.0031378
1127.35774,0.0031511
1126.39336,0.0031587
1125.42899,0.0031796
1124.46461,0.0032097
1123.50023,0.0032085
1122.53585,0.0031859
1121.57147,0.0031851
1120.60710,0.0032004
1119.64272,0.0032024
1118.67834,0.0032029
1117.71396,0.0032159
1116.74959,0.0032320
1115.78521,0.0032448
1114.82083,0.0032536
1113.85645,0.0032642
1112.89207,0.0032667
1111.92770,0.0032682
1110.96332,0.0032867
1109.99894,0.0033219
1109.03456,0.0033760
1108.07018,0.0034276
1107.10581,0.0034720
1106.14143,0.0035211
1105.17705,0.0035630
1104.21267,0.0036032
1103.24829,0.0036453
1102.28392,0.0036658
1101.31954,0.0036565
1100.35516,0.0036444
1099.39078,0.0036354
1098.42641,0.0036158
1097.46203,0.0035958
1096.49765,0.0035733
1095.53327,0.0035530
1094.56889,0.0035560
1093.60452,0.0035737
1092.64014,0.0036001
1091.67576,0.0036311
1090.71138,0.0036445
1089.74700,0.0036489
1088.78263,0.0036634
1087.81825,0.0036731
1086.85387,0.0036809
1085.88949,0.0036912
1084.92512,0.0036837
1083.96074,0.0036750
1082.99636,0.0036824
1082.03198,0.0036829
1081.06760,0.0036816
1080.10323,0.0037027
1079.13885,0.0037269
1078.17447,0.0037384
1077.21009,0.0037462
1076.24571,0.0037516
1075.28134,0.0037712
1074.31696,0.0037975
1073.35258,0.0037981
1072.38820,0.0037800
1071.42382,0.0037612
1070.45945,0.0037470
1069.49507,0.0037462
1068.53069,0.0037591
1067.56631,0.0037653
1066.60194,0.0037690
1065.63756,0.0037973
1064.67318,0.0038330
1063.70880,0.0038542
1062.74442,0.0038684
1061.78005,0.0038771
1060.81567,0.0038840
1059.85129,0.0038998
1058.88691,0.0039216
1057.92253,0.0039342
1056.95816,0.0039223
1055.99378,0.0038830
1055.02940,0.0038415
1054.06502,0.0038073
1053.10065,0.0037538
1052.13627,0.0036796
1051.17189,0.0036079
1050.20751,0.0035443
1049.24313,0.0034875
1048.27876,0.0034360
1047.31438,0.0033735
1046.35000,0.0032981
1045.38562,0.0032220
1044.42124,0.0031518
1043.45687,0.0031046
1042.49249,0.0030741
1041.52811,0.0030407
1040.56373,0.0030034
1039.59935,0.0029629
1038.63498,0.0029248
1037.67060,0.0028937
1036.70622,0.0028554
1035.74184,0.0028009
1034.77747,0.0027575
1033.81309,0.0027334
1032.84871,0.0027102
1031.88433,0.0026901
1030.91995,0.0026705
1029.95558,0.0026490
1028.99120,0.0026245
1028.02682,0.0025951
1027.06244,0.0025602
1026.09806,0.0025070
1025.13369,0.0024321
1024.16931,0.0023532
1023.20493,0.0022835
1022.24055,0.0022098
1021.27618,0.0021391
1020.31180,0.0020879
1019.34742,0.0020586
1018.38304,0.0020588
1017.41866,0.0020571
1016.45429,0.0020387
1015.48991,0.0020256
1014.52553,0.0020121
1013.56115,0.0019843
1012.59677,0.0019452
1011.63240,0.0019092
1010.66802,0.0018740
1009.70364,0.0018378
1008.73926,0.0017992
1007.77488,0.0017643
1006.81051,0.0017390
1005.84613,0.0017001
1004.88175,0.0016655
1003.91737,0.0016560
1002.95300,0.0016423
1001.98862,0.0016027
1001.02424,0.0015521
1000.05986,0.0015130
999.09548,0.0014670
998.13111,0.0014139
997.16673,0.0013737
996.20235,0.0013440
995.23797,0.0013367
994.27359,0.0013662
993.30922,0.0014234
992.34484,0.0014762
991.38046,0.0014991
990.41608,0.0014873
989.45171,0.0014510
988.48733,0.0014083
987.52295,0.0013745
986.55857,0.0013588
985.59419,0.0013503
984.62982,0.0013496
983.66544,0.0013727
982.70106,0.0014159
981.73668,0.0014658
980.77230,0.0015096
979.80793,0.0015326
978.84355,0.0015277
977.87917,0.0014993
976.91479,0.0014625
975.95041,0.0014501
974.98604,0.0014553
974.02166,0.0014554
973.05728,0.0014509
972.09290,0.0014461
971.12853,0.0014662
970.16415,0.0014926
969.19977,0.0015171
968.23539,0.0015543
967.27101,0.0015787
966.30664,0.0015946
965.34226,0.0016092
964.37788,0.0016375
963.41350,0.0016514
962.44912,0.0016241
961.48475,0.0016039
960.52037,0.0015773
959.55599,0.0015232
958.59161,0.0014520
957.62724,0.0014034
956.66286,0.0013916
955.69848,0.0013693
954.73410,0.0013515
953.76972,0.0013400
952.80535,0.0013146
951.84097,0.0012670
950.87659,0.0012255
949.91221,0.0012329
948.94783,0.0012292
947.98346,0.0012001
947.01908,0.0011902
946.05470,0.0011968
945.09032,0.0011890
944.12594,0.0011680
943.16157,0.0011768
942.19719,0.0011894
941.23281,0.0011927
940.26843,0.0012114
939.30406,0.0012380
938.33968,0.0012658
937.37530,0.0012877
936.41092,0.0013037
935.44654,0.0013056
934.48217,0.0012964
933.51779,0.0012883
932.55341,0.0012924
931.58903,0.0013124
930.62465,0.0013256
929.66028,0.0013256
928.69590,0.0013017
927.73152,0.0012684
926.76714,0.0012538
925.80276,0.0012389
924.83839,0.0012212
923.87401,0.0012044
922.90963,0.0011795
921.94525,0.0011583
920.98088,0.0011467
920.01650,0.0011369
919.05212,0.0011300
918.08774,0.0011041
917.12336,0.0010528
916.15899,0.0010175
915.19461,0.0009980
914.23023,0.0009796
913.26585,0.0009760
912.30147,0.0009855
911.33710,0.0009819
910.37272,0.0009728
909.40834,0.0009822
908.44396,0.0009974
907.47959,0.0010314
906.51521,0.0010689
905.55083,0.0010686
904.58645,0.0010429
903.62207,0.0010138
902.65770,0.0009991
901.69332,0.0009750
900.72894,0.0009068
899.76456,0.0008079
898.80018,0.0007183
897.83581,0.0006555
896.87143,0.0006256
895.90705,0.0006623
894.94267,0.0007311
893.97829,0.0007587
893.01392,0.0007540
892.04954,0.0007735
891.08516,0.0008279
890.12078,0.0008497
889.15641,0.0007980
888.19203,0.0007383
887.22765,0.0007233
886.26327,0.0006961
885.29889,0.0006611
884.33452,0.0006733
883.37014,0.0006896
882.40576,0.0006727
881.44138,0.0006302
880.47700,0.0006065
879.51263,0.0006101
878.54825,0.0005898
877.58387,0.0005747
876.61949,0.0006058
875.65512,0.0006450
874.69074,0.0006547
873.72636,0.0006731
872.76198,0.0007095
871.79760,0.0007163
870.83323,0.0006859
869.86885,0.0006161
868.90447,0.0005328
867.94009,0.0004497
866.97571,0.0003889
866.01134,0.0003937
865.04696,0.0004184
864.08258,0.0004345
863.11820,0.0004595
862.15382,0.0005074
861.18945,0.0005566
860.22507,0.0005855
859.26069,0.0006055
858.29631,0.0005790
857.33194,0.0005203
856.36756,0.0004553
855.40318,0.0004040
854.43880,0.0004044
853.47442,0.0004160
852.51005,0.0004407
851.54567,0.0004887
850.58129,0.0005521
849.61691,0.0006228
848.65253,0.0006737
847.68816,0.0007004
846.72378,0.0006805
845.75940,0.0006613
844.79502,0.0006460
843.83065,0.0005968
842.86627,0.0005604
841.90189,0.0005317
840.93751,0.0005166
839.97313,0.0005056
839.00876,0.0004760
838.04438,0.0004602
837.08000,0.0004680
836.11562,0.0004884
835.15124,0.0005062
834.18687,0.0005531
833.22249,0.0006122
832.25811,0.0006517
831.29373,0.0007054
830.32935,0.0007559
829.36498,0.0007855
828.40060,0.0007878
827.43622,0.0007713
826.47184,0.0007547
825.50747,0.0007280
824.54309,0.0006959
823.57871,0.0006652
822.61433,0.0006316
821.64995,0.0006009
820.68558,0.0006111
819.72120,0.0006519
818.75682,0.0006808
817.79244,0.0006942
816.82806,0.0006833
815.86369,0.0006548
814.89931,0.0006346
813.93493,0.0006373
812.97055,0.0006411
812.00618,0.0006156
811.04180,0.0005540
810.07742,0.0005023
809.11304,0.0005019
808.14866,0.0005113
807.18429,0.0005250
806.21991,0.0005403
805.25553,0.0005309
804.29115,0.0005143
803.32677,0.0005176
802.36240,0.0005342
801.39802,0.0005338
800.43364,0.0005354
799.46926,0.0005213
798.50488,0.0004814
797.54051,0.0004537
796.57613,0.0004297
795.61175,0.0004199
794.64737,0.0004209
793.68300,0.0004243
792.71862,0.0004390
791.75424,0.0004527
790.78986,0.0004747
789.82548,0.0005275
788.86111,0.0005777
787.89673,0.0006018
786.93235,0.0006686
785.96797,0.0007582
785.00359,0.0008142
784.03922,0.0008328
783.07484,0.0007995
782.11046,0.0007643
781.14608,0.0007352
780.18171,0.0006830
779.21733,0.0006051
778.25295,0.0005161
777.28857,0.0004563
776.32419,0.0004497
775.35982,0.0005072
774.39544,0.0005626
773.43106,0.0005715
772.46668,0.0005442
771.50230,0.0005014
770.53793,0.0004956
769.57355,0.0005084
768.60917,0.0005236
767.64479,0.0005218
766.68041,0.0005128
765.71604,0.0005584
764.75166,0.0005996
763.78728,0.0005860
762.82290,0.0005395
761.85853,0.0004822
760.89415,0.0004394
759.92977,0.0004049
758.96539,0.0003767
758.00101,0.0003647
757.03664,0.0003784
756.07226,0.0004012
755.10788,0.0004408
754.14350,0.0005198
753.17912,0.0005554
752.21475,0.0005440
751.25037,0.0005751
750.28599,0.0006169
749.32161,0.0006466
748.35724,0.0006823
747.39286,0.0007055
746.42848,0.0007178
745.46410,0.0007046
744.49972,0.0006406
743.53535,0.0005507
742.57097,0.0004683
741.60659,0.0003892
740.64221,0.0003462
739.67783,0.0003412
738.71346,0.0003140
737.74908,0.0003323
736.78470,0.0004241
735.82032,0.0005003
734.85594,0.0005720
733.89157,0.0006345
732.92719,0.0006400
731.96281,0.0006293
730.99843,0.0006320
730.03406,0.0006255
729.06968,0.0006110
728.10530,0.0005910
727.14092,0.0005644
726.17654,0.0005707
725.21217,0.0006068
724.24779,0.0006375
723.28341,0.0007136
722.31903,0.0008242
721.35465,0.0008784
720.39028,0.0008860
719.42590,0.0008705
718.46152,0.0008428
717.49714,0.0008225
716.53276,0.0007876
715.56839,0.0007372
714.60401,0.0006931
713.63963,0.0006679
712.67525,0.0006704
711.71088,0.0007032
710.74650,0.0007343
709.78212,0.0007335
708.81774,0.0007154
707.85336,0.0006886
706.88899,0.0006729
705.92461,0.0006837
704.96023,0.0007100
703.99585,0.0007622
703.03147,0.0008386
702.06710,0.0009066
701.10272,0.0009541
700.13834,0.0009703
699.17396,0.0009586
698.20959,0.0009497
697.24521,0.0008963
696.28083,0.0008106
695.31645,0.0007792
694.35207,0.0007912
693.38770,0.0008265
692.42332,0.0008782
691.45894,0.0009468
690.49456,0.0009895
689.53018,0.0009811
688.56581,0.0009841
687.60143,0.0010094
686.63705,0.0010411
685.67267,0.0010571
684.70829,0.0010739
683.74392,0.0010957
682.77954,0.0011151
681.81516,0.0011484
680.85078,0.0011389
679.88641,0.0011025
678.92203,0.0010596
677.95765,0.0010208
676.99327,0.0010183
676.02889,0.0010093
675.06452,0.0008598
674.10014,0.0005555
673.13576,0.0007446
672.17138,0.0015571
671.20700,0.0023955
670.24263,0.0030195
669.27825,0.0033557
668.31387,0.0034500
667.34949,0.0033699
666.38512,0.0030792
665.42074,0.0025672
664.45636,0.0018463
663.49198,0.0009773
662.52760,0.0002892
661.56323,0.0003333
660.59885,0.0007186
659.63447,0.0008644
658.67009,0.0009202
657.70571,0.0009585
656.74134,0.0009867
655.77696,0.0009904
654.81258,0.0009333
653.84820,0.0008974
652.88382,0.0009173
651.91945,0.0009572
650.95507,0.0009679
649.99069,0.0009629
649.02631,0.0009631
648.06194,0.0010004
647.09756,0.0010652
646.13318,0.0010793
645.16880,0.0010517
644.20442,0.0009828
643.24005,0.0008841
642.27567,0.0008326
641.31129,0.0008331
640.34691,0.0008170
639.38253,0.0007889
638.41816,0.0007918
637.45378,0.0008191
636.48940,0.0008731
635.52502,0.0009261
634.56065,0.0009557
633.59627,0.0009553
632.63189,0.0008947
631.66751,0.0007345
630.70313,0.0005204
629.73876,0.0004886
628.77438,0.0007254
627.81000,0.0013024
626.84562,0.0015611
625.88124,0.0011445
624.91687,0.0007886
623.95249,0.0006083
622.98811,0.0007677
622.02373,0.0011099
621.05935,0.0008676
620.09498,-0.0000410
619.13060,-0.0008819
618.16622,-0.0011789
617.20184,-0.0013483
616.23747,-0.0016585
615.27309,-0.0022826
614.30871,-0.0026853
613.34433,-0.0025180
612.37995,-0.0023015
611.41558,-0.0018495
610.45120,-0.0015090
609.48682,-0.0018585
608.52244,-0.0024277
607.55806,-0.0025086
606.59369,-0.0023234
605.62931,-0.0023183
604.66493,-0.0021102
603.70055,-0.0012507
602.73618,-0.0000420
601.77180,0.0007564
600.80742,0.0011611
599.84304,0.0015259
598.87866,0.0017758
597.91429,0.0018144
596.94991,0.0016835
595.98553,0.0015170
595.02115,0.0012538
594.05677,0.0009750
593.09240,0.0008605
592.12802,0.0008339
591.16364,0.0006972
590.19926,0.0004472
589.23488,0.0003000
588.27051,0.0002743
587.30613,0.0002956
586.34175,0.0003186
585.37737,0.0003548
584.41300,0.0004538
583.44862,0.0005363
582.48424,0.0006261
581.51986,0.0007499
580.55548,0.0008613
579.59111,0.0009349
578.62673,0.0008985
577.66235,0.0007943
576.69797,0.0006811
575.73359,0.0005639
574.76922,0.0004927
573.80484,0.0005191
572.84046,0.0005738
571.87608,0.0005179
570.91171,0.0004581
569.94733,0.0005415
568.98295,0.0007343
568.01857,0.0009241
567.05419,0.0009882
566.08982,0.0009887
565.12544,0.0010066
564.16106,0.0010439
563.19668,0.0010954
562.23230,0.0011163
561.26793,0.0011426
560.30355,0.0011428
559.33917,0.0010893
558.37479,0.0010795
557.41041,0.0010547
556.44604,0.0009123
555.48166,0.0007042
554.51728,0.0005251
553.55290,0.0004320
552.58853,0.0004576
551.62415,0.0005325
550.65977,0.0005932
549.69539,0.0007149
548.73101,0.0008144
547.76664,0.0007847
546.80226,0.0007283
545.83788,0.0006267
544.87350,0.0004116
543.90912,0.0002058
542.94475,0.0000901
541.98037,0.0000333
541.01599,0.0000765
540.05161,0.0001811
539.08724,0.0002265
538.12286,0.0002541
537.15848,0.0002946
536.19410,0.0003085
535.22972,0.0003642
534.26535,0.0004607
533.30097,0.0004651
532.33659,0.0004265
531.37221,0.0004545
530.40783,0.0005056
529.44346,0.0005939
528.47908,0.0007207
527.51470,0.0007922
526.55032,0.0007677
525.58594,0.0006739
524.62157,0.0006067
523.65719,0.0006283
522.69281,0.0006342
521.72843,0.0005419
520.76406,0.0004939
519.79968,0.0005865
518.83530,0.0007485
517.87092,0.0009103
516.90654,0.0009849
515.94217,0.0009675
514.97779,0.0009202
514.01341,0.0008445
513.04903,0.0007679
512.08465,0.0006946
511.12028,0.0005908
510.15590,0.0005410
509.19152,0.0006024
508.22714,0.0006726
507.26276,0.0007078
506.29839,0.0007012
505.33401,0.0006527
504.36963,0.0006727
503.40525,0.0007539
502.44088,0.0007632
501.47650,0.0007030
500.51212,0.0006256
499.54774,0.0005434
498.58336,0.0004949
497.61899,0.0004621
496.65461,0.0004063
495.69023,0.0003113
494.72585,0.0001980
493.76147,0.0001626
492.79710,0.0001851
491.83272,0.0002438
490.86834,0.0003868
489.90396,0.0005409
488.93959,0.0006922
487.97521,0.0008783
487.01083,0.0010260
486.04645,0.0011102
485.08207,0.0011784
484.11770,0.0011801
483.15332,0.0010876
482.18894,0.0009697
481.22456,0.0008858
480.26018,0.0008713
479.29581,0.0008713
478.33143,0.0009192
477.36705,0.0011014
476.40267,0.0013117
475.43829,0.0014280
474.47392,0.0014431
473.50954,0.0014344
472.54516,0.0013935
471.58078,0.0012680
470.61641,0.0011281
469.65203,0.0010596
468.68765,0.0010450
467.72327,0.0010287
466.75889,0.0010957
465.79452,0.0012555
464.83014,0.0013783
463.86576,0.0013875
462.90138,0.0012792
461.93700,0.0011969
460.97263,0.0011954
460.00825,0.0012172
459.04387,0.0012396
458.07949,0.0012412
457.11512,0.0012692
456.15074,0.0013078
455.18636,0.0013132
454.22198,0.0013466
453.25760,0.0013660
452.29323,0.0012687
451.32885,0.0011540
450.36447,0.0011181
449.40009,0.0011139
448.43571,0.0011318
447.47134,0.0011465
446.50696,0.0011547
445.54258,0.0011665
444.57820,0.0011619
443.61382,0.0011864
442.64945,0.0012664
441.68507,0.0013169
440.72069,0.0012674
439.75631,0.0012129
438.79194,0.0011899
437.82756,0.0011573
436.86318,0.0011642
435.89880,0.0011940
434.93442,0.0012003
433.97005,0.0011776
433.00567,0.0011736
432.04129,0.0011923
431.07691,0.0011736
430.11253,0.0011311
429.14816,0.0010712
428.18378,0.0010524
427.21940,0.0010638
426.25502,0.0010224
425.29065,0.0009912
424.32627,0.0010031
423.36189,0.0010504
422.39751,0.0011014
421.43313,0.0011049
420.46876,0.0010520
419.50438,0.0009683
418.54000,0.0008954
417.57562,0.0007967
416.61124,0.0007061
415.64687,0.0006514
414.68249,0.0005918
413.71811,0.0005609
412.75373,0.0005265
411.78935,0.0004868
410.82498,0.0004546
409.86060,0.0004244
408.89622,0.0004606
407.93184,0.0005491
406.96747,0.0006835
406.00309,0.0008080
405.03871,0.0008594
404.07433,0.0008594
403.10995,0.0008594
402.14558,0.0008594
401.18120,0.0008594
400.21682,0.0008594
399.25244,0.0008594
