3998.31069,-0.0046798
3997.34631,-0.0046798
3996.38194,-0.0046798
3995.41756,-0.0046798
3994.45318,-0.0046798
3993.48880,-0.0046798
3992.52442,-0.0046798
3991.56005,-0.0047589
3990.59567,-0.0047611
3989.63129,-0.0047278
3988.66691,-0.0046981
3987.70253,-0.0047684
3986.73816,-0.0048409
3985.77378,-0.0048101
3984.80940,-0.0047489
3983.84502,-0.0047354
3982.88065,-0.0047602
3981.91627,-0.0047656
3980.95189,-0.0047588
3979.98751,-0.0046912
3979.02313,-0.0045906
3978.05876,-0.0045464
3977.09438,-0.0045368
3976.13000,-0.0045473
3975.16562,-0.0045618
3974.20124,-0.0045607
3973.23687,-0.0045360
3972.27249,-0.0045240
3971.30811,-0.0045173
3970.34373,-0.0044810
3969.37935,-0.0044638
3968.41498,-0.0044609
3967.45060,-0.0044649
3966.48622,-0.0044979
3965.52184,-0.0045297
3964.55747,-0.0045668
3963.59309,-0.0046685
3962.62871,-0.0047888
3961.66433,-0.0048564
3960.69995,-0.0048918
3959.73558,-0.0048705
3958.77120,-0.0048219
3957.80682,-0.0047950
3956.84244,-0.0047385
3955.87806,-0.0046594
3954.91369,-0.0045835
3953.94931,-0.0045024
3952.98493,-0.0044797
3952.02055,-0.0045372
3951.05618,-0.0045606
3950.09180,-0.0045311
3949.12742,-0.0045068
3948.16304,-0.0044798
3947.19866,-0.0044769
3946.23429,-0.0045099
3945.26991,-0.0045292
3944.30553,-0.0045361
3943.34115,-0.0045726
3942.37677,-0.0046243
3941.41240,-0.0047207
3940.44802,-0.0048320
3939.48364,-0.0048184
3938.51926,-0.0047588
3937.55488,-0.0047370
3936.59051,-0.0046640
3935.62613,-0.0045491
3934.66175,-0.0044606
3933.69737,-0.0043948
3932.73300,-0.0043536
3931.76862,-0.0043860
3930.80424,-0.0044469
3929.83986,-0.0044852
3928.87548,-0.0045114
3927.91111,-0.0045000
3926.94673,-0.0044769
3925.98235,-0.0044443
3925.01797,-0.0043545
3924.05359,-0.0042686
3923.08922,-0.0042435
3922.12484,-0.0042165
3921.16046,-0.0041743
3920.19608,-0.0041710
3919.23171,-0.0041836
3918.26733,-0.0041868
3917.30295,-0.0042466
3916.33857,-0.0043524
3915.37419,-0.0043956
3914.40982,-0.0043968
3913.44544,-0.0043862
3912.48106,-0.0043675
3911.51668,-0.0043716
3910.55230,-0.0043715
3909.58793,-0.0043889
3908.62355,-0.0043814
3907.65917,-0.0043448
3906.69479,-0.0043656
3905.73041,-0.0044142
3904.76604,-0.0044356
3903.80166,-0.0043915
3902.83728,-0.0043330
3901.87290,-0.0042875
3900.90853,-0.0042810
3899.94415,-0.0043351
3898.97977,-0.0043575
3898.01539,-0.0043672
3897.05101,-0.0043296
3896.08664,-0.0042451
3895.12226,-0.0042292
3894.15788,-0.0042755
3893.19350,-0.0043247
3892.22912,-0.0043012
3891.26475,-0.0042523
3890.30037,-0.0042237
3889.33599,-0.0042267
3888.37161,-0.0042364
3887.40724,-0.0041966
3886.44286,-0.0042147
3885.47848,-0.0042197
3884.51410,-0.0041763
3883.54972,-0.0042394
3882.58535,-0.0043557
3881.62097,-0.0044133
3880.65659,-0.0043889
3879.69221,-0.0043510
3878.72783,-0.0043196
3877.76346,-0.0042829
3876.79908,-0.0042757
3875.83470,-0.0043078
3874.87032,-0.0043782
3873.90594,-0.0044127
3872.94157,-0.0044245
3871.97719,-0.0044304
3871.01281,-0.0043872
3870.04843,-0.0043478
3869.08406,-0.0043092
3868.11968,-0.0042698
3867.15530,-0.0042295
3866.19092,-0.0041997
3865.22654,-0.0042430
3864.26217,-0.0043048
3863.29779,-0.0043656
3862.33341,-0.0044532
3861.36903,-0.0045064
3860.40465,-0.0045025
3859.44028,-0.0044402
3858.47590,-0.0043227
3857.51152,-0.0041906
3856.54714,-0.0040462
3855.58276,-0.0038708
3854.61839,-0.0037321
3853.65401,-0.0036972
3852.68963,-0.0037149
3851.72525,-0.0037756
3850.76088,-0.0039065
3849.79650,-0.0040376
3848.83212,-0.0041237
3847.86774,-0.0041669
3846.90336,-0.0042220
3845.93899,-0.0043025
3844.97461,-0.0043007
3844.01023,-0.0042384
3843.04585,-0.0041960
3842.08147,-0.0041735
3841.11710,-0.0041381
3840.15272,-0.0040693
3839.18834,-0.0040351
3838.22396,-0.0040341
3837.25959,-0.0040327
3836.29521,-0.0040710
3835.33083,-0.0041482
3834.36645,-0.0042117
3833.40207,-0.0042357
3832.43770,-0.0042589
3831.47332,-0.0042651
3830.50894,-0.0042656
3829.54456,-0.0042494
3828.58018,-0.0041468
3827.61581,-0.0040758
3826.65143,-0.0041040
3825.68705,-0.0041569
3824.72267,-0.0041712
3823.75829,-0.0041194
3822.79392,-0.0040865
3821.82954,-0.0041171
3820.86516,-0.0041594
3819.90078,-0.0041625
3818.93641,-0.0041534
3817.97203,-0.0041535
3817.00765,-0.0041250
3816.04327,-0.0041318
3815.07889,-0.0042007
3814.11452,-0.0042530
3813.15014,-0.0042320
3812.18576,-0.0041666
3811.22138,-0.0041417
3810.25700,-0.0041354
3809.29263,-0.0040934
3808.32825,-0.0040263
3807.36387,-0.0040009
3806.39949,-0.0040193
3805.43512,-0.0039864
3804.47074,-0.0039428
3803.50636,-0.0039350
3802.54198,-0.0039359
3801.57760,-0.0039479
3800.61323,-0.0039121
3799.64885,-0.0038550
3798.68447,-0.0038505
3797.72009,-0.0038838
3796.75571,-0.0039357
3795.79134,-0.0039480
3794.82696,-0.0039184
3793.86258,-0.0038955
3792.89820,-0.0038718
3791.93382,-0.0038414
3790.96945,-0.0038341
3790.00507,-0.0038626
3789.04069,-0.0038311
3788.07631,-0.0037842
3787.11194,-0.0038126
3786.14756,-0.0038397
3785.18318,-0.0038794
3784.21880,-0.0039566
3783.25442,-0.0040562
3782.29005,-0.0041184
3781.32567,-0.0041481
3780.36129,-0.0042341
3779.39691,-0.0042685
3778.43253,-0.0042498
3777.46816,-0.0042388
3776.50378,-0.0041923
3775.53940,-0.0041525
3774.57502,-0.0041414
3773.61065,-0.0041760
3772.64627,-0.0042304
3771.68189,-0.0042304
3770.71751,-0.0041692
3769.75313,-0.0041628
3768.78876,-0.0042244
3767.82438,-0.0041840
3766.86000,-0.0040993
3765.89562,-0.0040705
3764.93124,-0.0040630
3763.96687,-0.0040868
3763.00249,-0.0041326
3762.03811,-0.0041300
3761.07373,-0.0040518
3760.10935,-0.0039953
3759.14498,-0.0039766
3758.18060,-0.0039582
3757.21622,-0.0039241
3756.25184,-0.0038172
3755.28747,-0.0036562
3754.32309,-0.0034897
3753.35871,-0.0033563
3752.39433,-0.0032626
3751.42995,-0.0032315
3750.46558,-0.0032368
3749.50120,-0.0032017
3748.53682,-0.0032376
3747.57244,-0.0033826
3746.60806,-0.0035059
3745.64369,-0.0035827
3744.67931,-0.0037153
3743.71493,-0.0038675
3742.75055,-0.0039172
3741.78618,-0.0038984
3740.82180,-0.0038509
3739.85742,-0.0037773
3738.89304,-0.0036817
3737.92866,-0.0035664
3736.96429,-0.0034954
3735.99991,-0.0035184
3735.03553,-0.0036076
3734.07115,-0.0037161
3733.10677,-0.0038668
3732.14240,-0.0039971
3731.17802,-0.0040721
3730.21364,-0.0041185
3729.24926,-0.0040726
3728.28488,-0.0039664
3727.32051,-0.0039055
3726.35613,-0.0039319
3725.39175,-0.0039689
3724.42737,-0.0039825
3723.46300,-0.0040005
3722.49862,-0.0039708
3721.53424,-0.0039733
3720.56986,-0.0040675
3719.60548,-0.0041589
3718.64111,-0.0041723
3717.67673,-0.0041328
3716.71235,-0.0041099
3715.74797,-0.0040562
3714.78359,-0.0039894
3713.81922,-0.0039374
3712.85484,-0.0038278
3711.89046,-0.0036834
3710.92608,-0.0035696
3709.96171,-0.0035718
3708.99733,-0.0036366
3708.03295,-0.0036506
3707.06857,-0.0036547
3706.10419,-0.0036671
3705.13982,-0.0036729
3704.17544,-0.0036461
3703.21106,-0.0036513
3702.24668,-0.0037369
3701.28230,-0.0037351
3700.31793,-0.0036572
3699.35355,-0.0036479
3698.38917,-0.0037147
3697.42479,-0.0038220
3696.46041,-0.0038963
3695.49604,-0.0039244
3694.53166,-0.0039247
3693.56728,-0.0038856
3692.60290,-0.0038232
3691.63853,-0.0037697
3690.67415,-0.0037272
3689.70977,-0.0036257
3688.74539,-0.0035430
3687.78101,-0.0035779
3686.81664,-0.0036944
3685.85226,-0.0038862
3684.88788,-0.0040739
3683.92350,-0.0041960
3682.95912,-0.0042471
3681.99475,-0.0042189
3681.03037,-0.0041549
3680.06599,-0.0040486
3679.10161,-0.0039408
3678.13724,-0.0038879
3677.17286,-0.0038586
3676.20848,-0.0038080
3675.24410,-0.0037915
3674.27972,-0.0038570
3673.31535,-0.0038741
3672.35097,-0.0037652
3671.38659,-0.0036419
3670.42221,-0.0035674
3669.45783,-0.0034670
3668.49346,-0.0033379
3667.52908,-0.0032965
3666.56470,-0.0033678
3665.60032,-0.0034667
3664.63594,-0.0035324
3663.67157,-0.0036171
3662.70719,-0.0037568
3661.74281,-0.0039045
3660.77843,-0.0040228
3659.81406,-0.0041243
3658.84968,-0.0041873
3657.88530,-0.0041538
3656.92092,-0.0040814
3655.95654,-0.0040416
3654.99217,-0.0040048
3654.02779,-0.0039243
3653.06341,-0.0037999
3652.09903,-0.0036831
3651.13465,-0.0036209
3650.17028,-0.0036182
3649.20590,-0.0035940
3648.24152,-0.0035389
3647.27714,-0.0034710
3646.31276,-0.0033721
3645.34839,-0.0033319
3644.38401,-0.0033496
3643.41963,-0.0033496
3642.45525,-0.0033433
3641.49088,-0.0033979
3640.52650,-0.0035084
3639.56212,-0.0035837
3638.59774,-0.0036386
3637.63336,-0.0036884
3636.66899,-0.0037314
3635.70461,-0.0037367
3634.74023,-0.0036816
3633.77585,-0.0036190
3632.81147,-0.0035218
3631.84710,-0.0033877
3630.88272,-0.0032528
3629.91834,-0.0031851
3628.95396,-0.0031624
3627.98959,-0.0031316
3627.02521,-0.0031874
3626.06083,-0.0032797
3625.09645,-0.0033405
3624.13207,-0.0033892
3623.16770,-0.0034446
3622.20332,-0.0034989
3621.23894,-0.0034891
3620.27456,-0.0034236
3619.31018,-0.0033339
3618.34581,-0.0033300
3617.38143,-0.0033738
3616.41705,-0.0033605
3615.45267,-0.0033632
3614.48829,-0.0033550
3613.52392,-0.0033205
3612.55954,-0.0032808
3611.59516,-0.0032601
3610.63078,-0.0032424
3609.66641,-0.0031572
3608.70203,-0.0030748
3607.73765,-0.0030623
3606.77327,-0.0031280
3605.80889,-0.0031798
3604.84452,-0.0031909
3603.88014,-0.0032317
3602.91576,-0.0032749
3601.95138,-0.0033172
3600.98700,-0.0033363
3600.02263,-0.0033807
3599.05825,-0.0034434
3598.09387,-0.0034383
3597.12949,-0.0034342
3596.16512,-0.0034182
3595.20074,-0.0033786
3594.23636,-0.0033817
3593.27198,-0.0034103
3592.30760,-0.0033697
3591.34323,-0.0032363
3590.37885,-0.0031420
3589.41447,-0.0031315
3588.45009,-0.0031758
3587.48571,-0.0031943
3586.52134,-0.0031435
3585.55696,-0.0031396
3584.59258,-0.0031817
3583.62820,-0.0032118
3582.66382,-0.0032249
3581.69945,-0.0031949
3580.73507,-0.0030940
3579.77069,-0.0029431
3578.80631,-0.0028732
3577.84194,-0.0029103
3576.87756,-0.0029703
3575.91318,-0.0029989
3574.94880,-0.0029920
3573.98442,-0.0030485
3573.02005,-0.0031493
3572.05567,-0.0031756
3571.09129,-0.0031367
3570.12691,-0.0031183
3569.16253,-0.0031388
3568.19816,-0.0031354
3567.23378,-0.0031450
3566.26940,-0.0031928
3565.30502,-0.0032102
3564.34065,-0.0031457
3563.37627,-0.0030085
3562.41189,-0.0029214
3561.44751,-0.0028846
3560.48313,-0.0028337
3559.51876,-0.0028026
3558.55438,-0.0027992
3557.59000,-0.0028190
3556.62562,-0.0028097
3555.66124,-0.0028089
3554.69687,-0.0028881
3553.73249,-0.0029944
3552.76811,-0.0030537
3551.80373,-0.0030410
3550.83935,-0.0030364
3549.87498,-0.0030314
3548.91060,-0.0030110
3547.94622,-0.0030039
3546.98184,-0.0029557
3546.01747,-0.0029148
3545.05309,-0.0028742
3544.08871,-0.0028344
3543.12433,-0.0028948
3542.15995,-0.0029957
3541.19558,-0.0030441
3540.23120,-0.0030512
3539.26682,-0.0030693
3538.30244,-0.0030781
3537.33806,-0.0030542
3536.37369,-0.0030179
3535.40931,-0.0029637
3534.44493,-0.0029318
3533.48055,-0.0029245
3532.51618,-0.0029275
3531.55180,-0.0029387
3530.58742,-0.0029354
3529.62304,-0.0029640
3528.65866,-0.0030117
3527.69429,-0.0030053
3526.72991,-0.0029647
3525.76553,-0.0029422
3524.80115,-0.0029321
3523.83677,-0.0029152
3522.87240,-0.0029210
3521.90802,-0.0029678
3520.94364,-0.0030044
3519.97926,-0.0029601
3519.01488,-0.0028677
3518.05051,-0.0028151
3517.08613,-0.0027687
3516.12175,-0.0026722
3515.15737,-0.0026048
3514.19300,-0.0026254
3513.22862,-0.0026607
3512.26424,-0.0026810
3511.29986,-0.0027049
3510.33548,-0.0027201
3509.37111,-0.0027344
3508.40673,-0.0027218
3507.44235,-0.0026634
3506.47797,-0.0026050
3505.51359,-0.0025334
3504.54922,-0.0024442
3503.58484,-0.0024463
3502.62046,-0.0025487
3501.65608,-0.0026299
3500.69171,-0.0026489
3499.72733,-0.0026256
3498.76295,-0.0026143
3497.79857,-0.0026470
3496.83419,-0.0026473
3495.86982,-0.0025929
3494.90544,-0.0025539
3493.94106,-0.0025532
3492.97668,-0.0025758
3492.01230,-0.0026365
3491.04793,-0.0027150
3490.08355,-0.0027240
3489.11917,-0.0026657
3488.15479,-0.0026262
3487.19041,-0.0026162
3486.22604,-0.0025779
3485.26166,-0.0025062
3484.29728,-0.0024740
3483.33290,-0.0024976
3482.36853,-0.0025316
3481.40415,-0.0025510
3480.43977,-0.0025455
3479.47539,-0.0025265
3478.51101,-0.0025048
3477.54664,-0.0025182
3476.58226,-0.0025650
3475.61788,-0.0025514
3474.65350,-0.0025086
3473.68912,-0.0025156
3472.72475,-0.0025239
3471.76037,-0.0024780
3470.79599,-0.0023896
3469.83161,-0.0022979
3468.86724,-0.0022002
3467.90286,-0.0021193
3466.93848,-0.0021062
3465.97410,-0.0021426
3465.00972,-0.0021767
3464.04535,-0.0021624
3463.08097,-0.0021479
3462.11659,-0.0021748
3461.15221,-0.0021643
3460.18783,-0.0020910
3459.22346,-0.0019893
3458.25908,-0.0018797
3457.29470,-0.0017909
3456.33032,-0.0017771
3455.36594,-0.0018518
3454.40157,-0.0019425
3453.43719,-0.0020116
3452.47281,-0.0020833
3451.50843,-0.0021878
3450.54406,-0.0023007
3449.57968,-0.0023542
3448.61530,-0.0023320
3447.65092,-0.0022501
3446.68654,-0.0021406
3445.72217,-0.0020479
3444.75779,-0.0019889
3443.79341,-0.0019435
3442.82903,-0.0019004
3441.86465,-0.0019119
3440.90028,-0.0019974
3439.93590,-0.0020815
3438.97152,-0.0021169
3438.00714,-0.0021387
3437.04276,-0.0021766
3436.07839,-0.0022119
3435.11401,-0.0022339
3434.14963,-0.0022240
3433.18525,-0.0021656
3432.22088,-0.0021257
3431.25650,-0.0021292
3430.29212,-0.0021196
3429.32774,-0.0020981
3428.36336,-0.0020843
3427.39899,-0.0021110
3426.43461,-0.0021718
3425.47023,-0.0022066
3424.50585,-0.0022567
3423.54147,-0.0023429
3422.57710,-0.0023902
3421.61272,-0.0023968
3420.64834,-0.0023942
3419.68396,-0.0023219
3418.71959,-0.0021816
3417.75521,-0.0020911
3416.79083,-0.0020422
3415.82645,-0.0019673
3414.86207,-0.0018805
3413.89770,-0.0018501
3412.93332,-0.0019319
3411.96894,-0.0020316
3411.00456,-0.0020714
3410.04018,-0.0020824
3409.07581,-0.0020596
3408.11143,-0.0020139
3407.14705,-0.0019798
3406.18267,-0.0019484
3405.21829,-0.0018833
3404.25392,-0.0017857
3403.28954,-0.0017338
3402.32516,-0.0017692
3401.36078,-0.0018256
3400.39641,-0.0018705
3399.43203,-0.0019348
3398.46765,-0.0019923
3397.50327,-0.0020200
3396.53889,-0.0020397
3395.57452,-0.0020516
3394.61014,-0.0020526
3393.64576,-0.0020380
3392.68138,-0.0019984
3391.71700,-0.0019601
3390.75263,-0.0019562
3389.78825,-0.0019975
3388.82387,-0.0020653
3387.85949,-0.0021100
3386.89512,-0.0021332
3385.93074,-0.0021358
3384.96636,-0.0020813
3384.00198,-0.0020044
3383.03760,-0.0019430
3382.07323,-0.0018925
3381.10885,-0.0018453
3380.14447,-0.0017907
3379.18009,-0.0017605
3378.21571,-0.0017899
3377.25134,-0.0018404
3376.28696,-0.0018645
3375.32258,-0.0018634
3374.35820,-0.0018165
3373.39382,-0.0017333
3372.42945,-0.0016839
3371.46507,-0.0016843
3370.50069,-0.0017248
3369.53631,-0.0018031
3368.57194,-0.0018797
3367.60756,-0.0019096
3366.64318,-0.0019205
3365.67880,-0.0019195
3364.71442,-0.0018662
3363.75005,-0.0018114
3362.78567,-0.0017817
3361.82129,-0.0017573
3360.85691,-0.0017477
3359.89253,-0.0017412
3358.92816,-0.0017480
3357.96378,-0.0017912
3356.99940,-0.0018410
3356.03502,-0.0018384
3355.07065,-0.0018006
3354.10627,-0.0017527
3353.14189,-0.0016957
3352.17751,-0.0016818
3351.21313,-0.0016831
3350.24876,-0.0016386
3349.28438,-0.0015618
3348.32000,-0.0015026
3347.35562,-0.0014844
3346.39124,-0.0015036
3345.42687,-0.0015621
3344.46249,-0.0015929
3343.49811,-0.0015859
3342.53373,-0.0015888
3341.56935,-0.0015956
3340.60498,-0.0016124
3339.64060,-0.0016210
3338.67622,-0.0016104
3337.71184,-0.0015893
3336.74747,-0.0015913
3335.78309,-0.0016362
3334.81871,-0.0016773
3333.85433,-0.0016913
3332.88995,-0.0016794
3331.92558,-0.0016899
3330.96120,-0.0017192
3329.99682,-0.0016992
3329.03244,-0.0016419
3328.06806,-0.0015838
3327.10369,-0.0015466
3326.13931,-0.0015051
3325.17493,-0.0014672
3324.21055,-0.0014868
3323.24618,-0.0015295
3322.28180,-0.0015583
3321.31742,-0.0015726
3320.35304,-0.0015541
3319.38866,-0.0015075
3318.42429,-0.0014660
3317.45991,-0.0014619
3316.49553,-0.0014944
3315.53115,-0.0015125
3314.56677,-0.0015159
3313.60240,-0.0015346
3312.63802,-0.0015423
3311.67364,-0.0015440
3310.70926,-0.0015594
3309.74488,-0.0015729
3308.78051,-0.0015520
3307.81613,-0.0015273
3306.85175,-0.0015383
3305.88737,-0.0015395
3304.92300,-0.0015297
3303.95862,-0.0015056
3302.99424,-0.0014636
3302.02986,-0.0014140
3301.06548,-0.0013396
3300.10111,-0.0012965
3299.13673,-0.0013181
3298.17235,-0.0013758
3297.20797,-0.0014295
3296.24359,-0.0014697
3295.27922,-0.0014953
3294.31484,-0.0014914
3293.35046,-0.0014845
3292.38608,-0.0014818
3291.42171,-0.0014975
3290.45733,-0.0014945
3289.49295,-0.0014263
3288.52857,-0.0013449
3287.56419,-0.0012971
3286.59982,-0.0013099
3285.63544,-0.0013522
3284.67106,-0.0013668
3283.70668,-0.0013430
3282.74230,-0.0013349
3281.77793,-0.0013485
3280.81355,-0.0013485
3279.84917,-0.0013708
3278.88479,-0.0013678
3277.92041,-0.0013290
3276.95604,-0.0013047
3275.99166,-0.0012955
3275.02728,-0.0012976
3274.06290,-0.0012853
3273.09853,-0.0012822
3272.13415,-0.0012850
3271.16977,-0.0012934
3270.20539,-0.0012973
3269.24101,-0.0012683
3268.27664,-0.0012573
3267.31226,-0.0012897
3266.34788,-0.0013614
3265.38350,-0.0013928
3264.41912,-0.0013733
3263.45475,-0.0013751
3262.49037,-0.0013850
3261.52599,-0.0013984
3260.56161,-0.0013801
3259.59724,-0.0013525
3258.63286,-0.0013829
3257.66848,-0.0014480
3256.70410,-0.0015099
3255.73972,-0.0015825
3254.77535,-0.0016361
3253.81097,-0.0015912
3252.84659,-0.0015379
3251.88221,-0.0015432
3250.91783,-0.0015425
3249.95346,-0.0015234
3248.98908,-0.0015154
3248.02470,-0.0015485
3247.06032,-0.0016180
3246.09594,-0.0017199
3245.13157,-0.0018092
3244.16719,-0.0018498
3243.20281,-0.0018173
3242.23843,-0.0017099
3241.27406,-0.0015984
3240.30968,-0.0014900
3239.34530,-0.0014105
3238.38092,-0.0013464
3237.41654,-0.0012848
3236.45217,-0.0012939
3235.48779,-0.0013651
3234.52341,-0.0014728
3233.55903,-0.0015713
3232.59465,-0.0016478
3231.63028,-0.0017059
3230.66590,-0.0017296
3229.70152,-0.0017196
3228.73714,-0.0016733
3227.77276,-0.0016206
3226.80839,-0.0015440
3225.84401,-0.0014930
3224.87963,-0.0015338
3223.91525,-0.0016031
3222.95088,-0.0016378
3221.98650,-0.0016411
3221.02212,-0.0016620
3220.05774,-0.0016682
3219.09336,-0.0016502
3218.12899,-0.0016269
3217.16461,-0.0015714
3216.20023,-0.0015002
3215.23585,-0.0014342
3214.27147,-0.0014189
3213.30710,-0.0014295
3212.34272,-0.0014305
3211.37834,-0.0014488
3210.41396,-0.0014854
3209.44959,-0.0015155
3208.48521,-0.0014873
3207.52083,-0.0014611
3206.55645,-0.0014781
3205.59207,-0.0015045
3204.62770,-0.0015494
3203.66332,-0.0015731
3202.69894,-0.0015733
3201.73456,-0.0015619
3200.77018,-0.0015444
3199.80581,-0.0015547
3198.84143,-0.0015547
3197.87705,-0.0015217
3196.91267,-0.0015238
3195.94829,-0.0015866
3194.98392,-0.0016531
3194.01954,-0.0017043
3193.05516,-0.0017466
3192.09078,-0.0017652
3191.12641,-0.0017743
3190.16203,-0.0017976
3189.19765,-0.0017982
3188.23327,-0.0017614
3187.26889,-0.0017202
3186.30452,-0.0016826
3185.34014,-0.0016925
3184.37576,-0.0017122
3183.41138,-0.0016591
3182.44700,-0.0015824
3181.48263,-0.0015334
3180.51825,-0.0015127
3179.55387,-0.0015069
3178.58949,-0.0015315
3177.62512,-0.0015761
3176.66074,-0.0016225
3175.69636,-0.0016639
3174.73198,-0.0016486
3173.76760,-0.0016310
3172.80323,-0.0016459
3171.83885,-0.0016438
3170.87447,-0.0016247
3169.91009,-0.0016005
3168.94571,-0.0015866
3167.98134,-0.0015855
3167.01696,-0.0016172
3166.05258,-0.0016547
3165.08820,-0.0016615
3164.12382,-0.0016375
3163.15945,-0.0015754
3162.19507,-0.0015224
3161.23069,-0.0014815
3160.26631,-0.0014365
3159.30194,-0.0013934
3158.33756,-0.0013852
3157.37318,-0.0014494
3156.40880,-0.0015381
3155.44442,-0.0016176
3154.48005,-0.0016749
3153.51567,-0.0017346
3152.55129,-0.0017799
3151.58691,-0.0017575
3150.62253,-0.0016960
3149.65816,-0.0016121
3148.69378,-0.0015321
3147.72940,-0.0014512
3146.76502,-0.0013937
3145.80065,-0.0013953
3144.83627,-0.0014066
3143.87189,-0.0014270
3142.90751,-0.0014587
3141.94313,-0.0014973
3140.97876,-0.0015102
3140.01438,-0.0014828
3139.05000,-0.0014481
3138.08562,-0.0013939
3137.12124,-0.0013473
3136.15687,-0.0013280
3135.19249,-0.0013599
3134.22811,-0.0014536
3133.26373,-0.0015730
3132.29935,-0.0016932
3131.33498,-0.0017500
3130.37060,-0.0017507
3129.40622,-0.0017435
3128.44184,-0.0017244
3127.47747,-0.0016563
3126.51309,-0.0015391
3125.54871,-0.0014680
3124.58433,-0.0014593
3123.61995,-0.0014487
3122.65558,-0.0014381
3121.69120,-0.0014666
3120.72682,-0.0014950
3119.76244,-0.0014923
3118.79806,-0.0015199
3117.83369,-0.0015884
3116.86931,-0.0016732
3115.90493,-0.0017246
3114.94055,-0.0017212
3113.97618,-0.0017338
3113.01180,-0.0017820
3112.04742,-0.0018195
3111.08304,-0.0018404
3110.11866,-0.0018776
3109.15429,-0.0018898
3108.18991,-0.0018595
3107.22553,-0.0018297
3106.26115,-0.0017783
3105.29677,-0.0017092
3104.33240,-0.0016305
3103.36802,-0.0015550
3102.40364,-0.0015525
3101.43926,-0.0016203
3100.47488,-0.0016876
3099.51051,-0.0017281
3098.54613,-0.0017453
3097.58175,-0.0017323
3096.61737,-0.0017198
3095.65300,-0.0017092
3094.68862,-0.0016539
3093.72424,-0.0015857
3092.75986,-0.0015780
3091.79548,-0.0016321
3090.83111,-0.0016876
3089.86673,-0.0017107
3088.90235,-0.0017034
3087.93797,-0.0016806
3086.97359,-0.0016410
3086.00922,-0.0016118
3085.04484,-0.0016286
3084.08046,-0.0016183
3083.11608,-0.0015591
3082.15171,-0.0015118
3081.18733,-0.0015028
3080.22295,-0.0015121
3079.25857,-0.0015012
3078.29419,-0.0015029
3077.32982,-0.0015090
3076.36544,-0.0014928
3075.40106,-0.0014871
3074.43668,-0.0015088
3073.47230,-0.0015643
3072.50793,-0.0016087
3071.54355,-0.0016258
3070.57917,-0.0016331
3069.61479,-0.0016328
3068.65041,-0.0016326
3067.68604,-0.0016109
3066.72166,-0.0015813
3065.75728,-0.0015316
3064.79290,-0.0014569
3063.82853,-0.0014027
3062.86415,-0.0013688
3061.89977,-0.0013914
3060.93539,-0.0014658
3059.97101,-0.0015082
3059.00664,-0.0015108
3058.04226,-0.0015096
3057.07788,-0.0014986
3056.11350,-0.0014736
3055.14912,-0.0014800
3054.18475,-0.0015198
3053.22037,-0.0015533
3052.25599,-0.0015807
3051.29161,-0.0016185
3050.32724,-0.0016774
3049.36286,-0.0017172
3048.39848,-0.0016955
3047.43410,-0.0016611
3046.46972,-0.0016499
3045.50535,-0.0016366
3044.54097,-0.0016265
3043.57659,-0.0016422
3042.61221,-0.0016636
3041.64783,-0.0016568
3040.68346,-0.0016258
3039.71908,-0.0015883
3038.75470,-0.0015290
3037.79032,-0.0014568
3036.82594,-0.0014388
3035.86157,-0.0014845
3034.89719,-0.0015323
3033.93281,-0.0015631
3032.96843,-0.0015914
3032.00406,-0.0016216
3031.03968,-0.0016431
3030.07530,-0.0016512
3029.11092,-0.0016553
3028.14654,-0.0016364
3027.18217,-0.0015862
3026.21779,-0.0015316
3025.25341,-0.0015015
3024.28903,-0.0014846
3023.32465,-0.0014585
3022.36028,-0.0014460
3021.39590,-0.0014371
3020.43152,-0.0014274
3019.46714,-0.0014372
3018.50276,-0.0014486
3017.53839,-0.0014480
3016.57401,-0.0014317
3015.60963,-0.0014169
3014.64525,-0.0014050
3013.68088,-0.0013967
3012.71650,-0.0014093
3011.75212,-0.0014291
3010.78774,-0.0014316
3009.82336,-0.0014065
3008.85899,-0.0013934
3007.89461,-0.0013858
3006.93023,-0.0013552
3005.96585,-0.0013225
3005.00147,-0.0012840
3004.03710,-0.0012650
3003.07272,-0.0012613
3002.10834,-0.0012462
3001.14396,-0.0012344
3000.17959,-0.0012184
2999.21521,-0.0012014
2998.25083,-0.0012101
2997.28645,-0.0012532
2996.32207,-0.0012914
2995.35770,-0.0013058
2994.39332,-0.0012936
2993.42894,-0.0012548
2992.46456,-0.0012311
2991.50018,-0.0012205
2990.53581,-0.0012083
2989.57143,-0.0011827
2988.60705,-0.0011446
2987.64267,-0.0011216
2986.67829,-0.0011229
2985.71392,-0.0011527
2984.74954,-0.0011762
2983.78516,-0.0011551
2982.82078,-0.0010936
2981.85641,-0.0010433
2980.89203,-0.0010308
2979.92765,-0.0010208
2978.96327,-0.0009884
2977.99889,-0.0009212
2977.03452,-0.0008528
2976.07014,-0.0007912
2975.10576,-0.0007444
2974.14138,-0.0007330
2973.17700,-0.0006852
2972.21263,-0.0005735
2971.24825,-0.0004388
2970.28387,-0.0003408
2969.31949,-0.0002774
2968.35512,-0.0002041
2967.39074,-0.0001423
2966.42636,-0.0000953
2965.46198,-0.0000734
2964.49760,-0.0000597
2963.53323,-0.0000516
2962.56885,-0.0000690
2961.60447,-0.0000450
2960.64009,0.0000287
2959.67571,0.0001169
2958.71134,0.0001899
2957.74696,0.0002476
2956.78258,0.0003260
2955.81820,0.0003962
2954.85382,0.0004393
2953.88945,0.0004571
2952.92507,0.0004728
2951.96069,0.0004852
2950.99631,0.0004516
2950.03194,0.0004045
2949.06756,0.0003888
2948.10318,0.0004093
2947.13880,0.0004244
2946.17442,0.0004275
2945.21005,0.0004771
2944.24567,0.0005644
2943.28129,0.0006734
2942.31691,0.0008127
2941.35253,0.0009669
2940.38816,0.0011170
2939.42378,0.0012702
2938.45940,0.0014475
2937.49502,0.0016371
2936.53065,0.0018273
2935.56627,0.0019945
2934.60189,0.0021333
2933.63751,0.0022831
2932.67313,0.0024555
2931.70876,0.0026330
2930.74438,0.0028005
2929.78000,0.0029750
2928.81562,0.0031538
2927.85124,0.0033264
2926.88687,0.0034936
2925.92249,0.0036177
2924.95811,0.0036991
2923.99373,0.0037457
2923.02935,0.0037601
2922.06498,0.0037640
2921.10060,0.0037454
2920.13622,0.0036839
2919.17184,0.0035585
2918.20747,0.0033941
2917.24309,0.0032103
2916.27871,0.0029867
2915.31433,0.0027434
2914.34995,0.0024847
2913.38558,0.0022011
2912.42120,0.0019223
2911.45682,0.0016895
2910.49244,0.0015156
2909.52806,0.0013831
2908.56369,0.0012663
2907.59931,0.0011584
2906.63493,0.0010715
2905.67055,0.0010007
2904.70618,0.0009466
2903.74180,0.0008870
2902.77742,0.0008033
2901.81304,0.0007122
2900.84866,0.0006180
2899.88429,0.0005401
2898.91991,0.0004794
2897.95553,0.0004258
2896.99115,0.0003855
2896.02677,0.0003578
2895.06240,0.0003270
2894.09802,0.0002864
2893.13364,0.0002568
2892.16926,0.0002065
2891.20488,0.0001440
2890.24051,0.0001087
2889.27613,0.0000634
2888.31175,0.0000087
2887.34737,-0.0000350
2886.38300,-0.0000727
2885.41862,-0.0001120
2884.45424,-0.0001408
2883.48986,-0.0001436
2882.52548,-0.0001496
2881.56111,-0.0001724
2880.59673,-0.0002022
2879.63235,-0.0002095
2878.66797,-0.0001868
2877.70359,-0.0001699
2876.73922,-0.0001533
2875.77484,-0.0001204
2874.81046,-0.0000924
2873.84608,-0.0000721
2872.88171,-0.0000208
2871.91733,0.0000528
2870.95295,0.0001006
2869.98857,0.0001129
2869.02419,0.0001205
2868.05982,0.0001594
2867.09544,0.0002148
2866.13106,0.0002634
2865.16668,0.0003149
2864.20230,0.0003871
2863.23793,0.0004999
2862.27355,0.0006447
2861.30917,0.0007922
2860.34479,0.0009409
2859.38041,0.0010936
2858.41604,0.0012498
2857.45166,0.0014172
2856.48728,0.0015633
2855.52290,0.0016846
2854.55853,0.0018088
2853.59415,0.0019127
2852.62977,0.0019658
2851.66539,0.0019435
2850.70101,0.0018431
2849.73664,0.0016732
2848.77226,0.0014470
2847.80788,0.0011837
2846.84350,0.0009036
2845.87912,0.0006223
2844.91475,0.0003387
2843.95037,0.0001165
2842.98599,-0.0000266
2842.02161,-0.0001422
2841.05724,-0.0002367
2840.09286,-0.0003253
2839.12848,-0.0003981
2838.16410,-0.0004555
2837.19972,-0.0005171
2836.23535,-0.0005897
2835.27097,-0.0006760
2834.30659,-0.0007524
2833.34221,-0.0008044
2832.37783,-0.0008238
2831.41346,-0.0008426
2830.44908,-0.0008628
2829.48470,-0.0008560
2828.52032,-0.0008455
2827.55594,-0.0008438
2826.59157,-0.0008659
2825.62719,-0.0009071
2824.66281,-0.0009639
2823.69843,-0.0010251
2822.73406,-0.0010569
2821.76968,-0.0010622
2820.80530,-0.0010501
2819.84092,-0.0010437
2818.87654,-0.0010326
2817.91217,-0.0010023
2816.94779,-0.0009570
2815.98341,-0.0009172
2815.01903,-0.0009291
2814.05465,-0.0009562
2813.09028,-0.0009730
2812.12590,-0.0009927
2811.16152,-0.0010010
2810.19714,-0.0009937
2809.23276,-0.0009852
2808.26839,-0.0010117
2807.30401,-0.0010598
2806.33963,-0.0010845
2805.37525,-0.0010743
2804.41088,-0.0010589
2803.44650,-0.0010583
2802.48212,-0.0010659
2801.51774,-0.0010911
2800.55336,-0.0011138
2799.58899,-0.0011215
2798.62461,-0.0011299
2797.66023,-0.0011600
2796.69585,-0.0012141
2795.73147,-0.0012433
2794.76710,-0.0012304
2793.80272,-0.0011947
2792.83834,-0.0011499
2791.87396,-0.0011163
2790.90959,-0.0011137
2789.94521,-0.0011090
2788.98083,-0.0010717
2788.01645,-0.0010400
2787.05207,-0.0010248
2786.08770,-0.0010311
2785.12332,-0.0010501
2784.15894,-0.0010561
2783.19456,-0.0010649
2782.23018,-0.0010682
2781.26581,-0.0010663
2780.30143,-0.0010813
2779.33705,-0.0010995
2778.37267,-0.0010997
2777.40829,-0.0010963
2776.44392,-0.0011077
2775.47954,-0.0011334
2774.51516,-0.0011710
2773.55078,-0.0011906
2772.58641,-0.0011901
2771.62203,-0.0011890
2770.65765,-0.0011677
2769.69327,-0.0011377
2768.72889,-0.0011290
2767.76452,-0.0011250
2766.80014,-0.0011054
2765.83576,-0.0010774
2764.87138,-0.0010468
2763.90700,-0.0010224
2762.94263,-0.0009995
2761.97825,-0.0009666
2761.01387,-0.0009490
2760.04949,-0.0009495
2759.08512,-0.0009453
2758.12074,-0.0009460
2757.15636,-0.0009637
2756.19198,-0.0009827
2755.22760,-0.0009983
2754.26323,-0.0010125
2753.29885,-0.0010259
2752.33447,-0.0010535
2751.37009,-0.0010712
2750.40571,-0.0010783
2749.44134,-0.0011012
2748.47696,-0.0011178
2747.51258,-0.0011287
2746.54820,-0.0011373
2745.58382,-0.0011405
2744.61945,-0.0011517
2743.65507,-0.0011666
2742.69069,-0.0011631
2741.72631,-0.0011393
2740.76194,-0.0011207
2739.79756,-0.0010958
2738.83318,-0.0010736
2737.86880,-0.0010791
2736.90442,-0.0010987
2735.94005,-0.0011272
2734.97567,-0.0011430
2734.01129,-0.0011410
2733.04691,-0.0011343
2732.08253,-0.0011143
2731.11816,-0.0010778
2730.15378,-0.0010360
2729.18940,-0.0010107
2728.22502,-0.0009982
2727.26065,-0.0010003
2726.29627,-0.0010157
2725.33189,-0.0010215
2724.36751,-0.0010167
2723.40313,-0.0009974
2722.43876,-0.0009782
2721.47438,-0.0009849
2720.51000,-0.0010088
2719.54562,-0.0010310
2718.58124,-0.0010439
2717.61687,-0.0010480
2716.65249,-0.0010447
2715.68811,-0.0010517
2714.72373,-0.0010596
2713.75935,-0.0010461
2712.79498,-0.0010319
2711.83060,-0.0010163
2710.86622,-0.0009980
2709.90184,-0.0010015
2708.93747,-0.0010168
2707.97309,-0.0010360
2707.00871,-0.0010670
2706.04433,-0.0010870
2705.07995,-0.0010881
2704.11558,-0.0010970
2703.15120,-0.0011007
2702.18682,-0.0010829
2701.22244,-0.0010674
2700.25806,-0.0010503
2699.29369,-0.0010212
2698.32931,-0.0010016
2697.36493,-0.0010119
2696.40055,-0.0010580
2695.43618,-0.0011133
2694.47180,-0.0011408
2693.50742,-0.0011484
2692.54304,-0.0011483
2691.57866,-0.0011196
2690.61429,-0.0010740
2689.64991,-0.0010385
2688.68553,-0.0010079
2687.72115,-0.0009752
2686.75677,-0.0009376
2685.79240,-0.0009221
2684.82802,-0.0009377
2683.86364,-0.0009464
2682.89926,-0.0009491
2681.93488,-0.0009564
2680.97051,-0.0009681
2680.00613,-0.0009899
2679.04175,-0.0010212
2678.07737,-0.0010562
2677.11300,-0.0010767
2676.14862,-0.0010807
2675.18424,-0.0010691
2674.21986,-0.0010564
2673.25548,-0.0010511
2672.29111,-0.0010316
2671.32673,-0.0010081
2670.36235,-0.0009802
2669.39797,-0.0009638
2668.43359,-0.0009863
2667.46922,-0.0010090
2666.50484,-0.0010119
2665.54046,-0.0010079
2664.57608,-0.0010075
2663.61171,-0.0010061
2662.64733,-0.0009951
2661.68295,-0.0009873
2660.71857,-0.0009805
2659.75419,-0.0009608
2658.78982,-0.0009275
2657.82544,-0.0009134
2656.86106,-0.0009292
2655.89668,-0.0009365
2654.93230,-0.0009384
2653.96793,-0.0009663
2653.00355,-0.0010176
2652.03917,-0.0010563
2651.07479,-0.0010766
2650.11041,-0.0011032
2649.14604,-0.0011227
2648.18166,-0.0011116
2647.21728,-0.0010708
2646.25290,-0.0010205
2645.28853,-0.0009690
2644.32415,-0.0009151
2643.35977,-0.0008778
2642.39539,-0.0008691
2641.43101,-0.0008797
2640.46664,-0.0008955
2639.50226,-0.0009239
2638.53788,-0.0009663
2637.57350,-0.0010021
2636.60912,-0.0010201
2635.64475,-0.0010227
2634.68037,-0.0010200
2633.71599,-0.0009983
2632.75161,-0.0009555
2631.78724,-0.0009246
2630.82286,-0.0009109
2629.85848,-0.0009026
2628.89410,-0.0008949
2627.92972,-0.0008892
2626.96535,-0.0009043
2626.00097,-0.0009492
2625.03659,-0.0009854
2624.07221,-0.0010016
2623.10783,-0.0010254
2622.14346,-0.0010344
2621.17908,-0.0010318
2620.21470,-0.0010318
2619.25032,-0.0010048
2618.28594,-0.0009545
2617.32157,-0.0008921
2616.35719,-0.0008450
2615.39281,-0.0008414
2614.42843,-0.0008470
2613.46406,-0.0008372
2612.49968,-0.0008274
2611.53530,-0.0008406
2610.57092,-0.0008787
2609.60654,-0.0009155
2608.64217,-0.0009280
2607.67779,-0.0009278
2606.71341,-0.0009218
2605.74903,-0.0008915
2604.78465,-0.0008735
2603.82028,-0.0008825
2602.85590,-0.0008897
2601.89152,-0.0009157
2600.92714,-0.0009461
2599.96276,-0.0009678
2598.99839,-0.0009862
2598.03401,-0.0009747
2597.06963,-0.0009632
2596.10525,-0.0009701
2595.14088,-0.0009661
2594.17650,-0.0009535
2593.21212,-0.0009523
2592.24774,-0.0009504
2591.28336,-0.0009287
2590.31899,-0.0009193
2589.35461,-0.0009284
2588.39023,-0.0009296
2587.42585,-0.0009079
2586.46147,-0.0008860
2585.49710,-0.0009222
2584.53272,-0.0009902
2583.56834,-0.0010475
2582.60396,-0.0010833
2581.63959,-0.0010770
2580.67521,-0.0010396
2579.71083,-0.0009890
2578.74645,-0.0009531
2577.78207,-0.0009439
2576.81770,-0.0009432
2575.85332,-0.0009394
2574.88894,-0.0009736
2573.92456,-0.0010523
2572.96018,-0.0010863
2571.99581,-0.0010870
2571.03143,-0.0010731
2570.06705,-0.0010249
2569.10267,-0.0009967
2568.13829,-0.0010089
2567.17392,-0.0010543
2566.20954,-0.0011110
2565.24516,-0.0011580
2564.28078,-0.0011790
2563.31641,-0.0011747
2562.35203,-0.0011465
2561.38765,-0.0010591
2560.42327,-0.0009597
2559.45889,-0.0008607
2558.49452,-0.0007419
2557.53014,-0.0006442
2556.56576,-0.0006018
2555.60138,-0.0006498
2554.63700,-0.0007352
2553.67263,-0.0008148
2552.70825,-0.0008802
2551.74387,-0.0009113
2550.77949,-0.0009264
2549.81512,-0.0008919
2548.85074,-0.0008347
2547.88636,-0.0008053
2546.92198,-0.0007557
2545.95760,-0.0006861
2544.99323,-0.0006921
2544.02885,-0.0008092
2543.06447,-0.0009420
2542.10009,-0.0010452
2541.13571,-0.0010936
2540.17134,-0.0010755
2539.20696,-0.0010668
2538.24258,-0.0010589
2537.27820,-0.0010384
2536.31382,-0.0010195
2535.34945,-0.0009942
2534.38507,-0.0010019
2533.42069,-0.0010055
2532.45631,-0.0009606
2531.49194,-0.0009193
2530.52756,-0.0008801
2529.56318,-0.0007920
2528.59880,-0.0007260
2527.63442,-0.0007794
2526.67005,-0.0008222
2525.70567,-0.0007811
2524.74129,-0.0008035
2523.77691,-0.0009049
2522.81253,-0.0009863
2521.84816,-0.0009976
2520.88378,-0.0010078
2519.91940,-0.0010814
2518.95502,-0.0010989
2517.99065,-0.0010250
2517.02627,-0.0009754
2516.06189,-0.0009709
2515.09751,-0.0009139
2514.13313,-0.0008308
2513.16876,-0.0008124
2512.20438,-0.0007896
2511.24000,-0.0007732
2510.27562,-0.0008152
2509.31124,-0.0008817
2508.34687,-0.0009315
2507.38249,-0.0009129
2506.41811,-0.0008825
2505.45373,-0.0008873
2504.48935,-0.0009145
2503.52498,-0.0009553
2502.56060,-0.0010003
2501.59622,-0.0010558
2500.63184,-0.0010996
2499.66747,-0.0011359
2498.70309,-0.0011339
2497.73871,-0.0010999
2496.77433,-0.0010722
2495.80995,-0.0010019
2494.84558,-0.0009345
2493.88120,-0.0009242
2492.91682,-0.0009285
2491.95244,-0.0009082
2490.98806,-0.0008881
2490.02369,-0.0009208
2489.05931,-0.0009603
2488.09493,-0.0009360
2487.13055,-0.0008791
2486.16618,-0.0008766
2485.20180,-0.0008953
2484.23742,-0.0008591
2483.27304,-0.0008242
2482.30866,-0.0008189
2481.34429,-0.0008067
2480.37991,-0.0007900
2479.41553,-0.0007868
2478.45115,-0.0008423
2477.48677,-0.0009201
2476.52240,-0.0009193
2475.55802,-0.0009131
2474.59364,-0.0009310
2473.62926,-0.0008871
2472.66488,-0.0008230
2471.70051,-0.0007453
2470.73613,-0.0006571
2469.77175,-0.0006315
2468.80737,-0.0006601
2467.84300,-0.0007048
2466.87862,-0.0007852
2465.91424,-0.0008868
2464.94986,-0.0009424
2463.98548,-0.0009900
2463.02111,-0.0010271
2462.05673,-0.0010368
2461.09235,-0.0010502
2460.12797,-0.0009985
2459.16359,-0.0009288
2458.19922,-0.0008897
2457.23484,-0.0008287
2456.27046,-0.0007618
2455.30608,-0.0007161
2454.34171,-0.0006902
2453.37733,-0.0006551
2452.41295,-0.0006673
2451.44857,-0.0007384
2450.48419,-0.0007981
2449.51982,-0.0008622
2448.55544,-0.0009256
2447.59106,-0.0009811
2446.62668,-0.0009987
2445.66230,-0.0009455
2444.69793,-0.0008719
2443.73355,-0.0007963
2442.76917,-0.0006956
2441.80479,-0.0006164
2440.84041,-0.0006334
2439.87604,-0.0006887
2438.91166,-0.0007264
2437.94728,-0.0007772
2436.98290,-0.0008203
2436.01853,-0.0008395
2435.05415,-0.0008288
2434.08977,-0.0007900
2433.12539,-0.0007538
2432.16101,-0.0007226
2431.19664,-0.0006989
2430.23226,-0.0006974
2429.26788,-0.0007278
2428.30350,-0.0007969
2427.33912,-0.0008631
2426.37475,-0.0008603
2425.41037,-0.0008108
2424.44599,-0.0007871
2423.48161,-0.0007925
2422.51724,-0.0008132
2421.55286,-0.0008416
2420.58848,-0.0008507
2419.62410,-0.0008673
2418.65972,-0.0008986
2417.69535,-0.0009393
2416.73097,-0.0010084
2415.76659,-0.0010119
2414.80221,-0.0009067
2413.83783,-0.0007849
2412.87346,-0.0007026
2411.90908,-0.0006582
2410.94470,-0.0006195
2409.98032,-0.0005895
2409.01594,-0.0005944
2408.05157,-0.0006615
2407.08719,-0.0007660
2406.12281,-0.0008455
2405.15843,-0.0009121
2404.19406,-0.0009466
2403.22968,-0.0009174
2402.26530,-0.0008366
2401.30092,-0.0007515
2400.33654,-0.0007012
2399.37217,-0.0006341
2398.40779,-0.0005917
2397.44341,-0.0006303
2396.47903,-0.0006887
2395.51465,-0.0007446
2394.55028,-0.0007945
2393.58590,-0.0008393
2392.62152,-0.0008688
2391.65714,-0.0008662
2390.69276,-0.0008431
2389.72839,-0.0008067
2388.76401,-0.0007513
2387.79963,-0.0006646
2386.83525,-0.0006098
2385.87088,-0.0005728
2384.90650,-0.0004834
2383.94212,-0.0004379
2382.97774,-0.0004522
2382.01336,-0.0004642
2381.04899,-0.0004850
2380.08461,-0.0005128
2379.12023,-0.0005498
2378.15585,-0.0005744
2377.19147,-0.0005930
2376.22710,-0.0006224
2375.26272,-0.0006316
2374.29834,-0.0006116
2373.33396,-0.0005950
2372.36959,-0.0006247
2371.40521,-0.0006625
2370.44083,-0.0006812
2369.47645,-0.0006841
2368.51207,-0.0006623
2367.54770,-0.0006558
2366.58332,-0.0006568
2365.61894,-0.0006635
2364.65456,-0.0006752
2363.69018,-0.0006688
2362.72581,-0.0006939
2361.76143,-0.0007576
2360.79705,-0.0008283
2359.83267,-0.0008907
2358.86829,-0.0009154
2357.90392,-0.0008944
2356.93954,-0.0008489
2355.97516,-0.0008000
2355.01078,-0.0007505
2354.04641,-0.0006963
2353.08203,-0.0006407
2352.11765,-0.0006128
2351.15327,-0.0006309
2350.18889,-0.0006776
2349.22452,-0.0007184
2348.26014,-0.0007385
2347.29576,-0.0007529
2346.33138,-0.0007650
2345.36700,-0.0007750
2344.40263,-0.0007749
2343.43825,-0.0007682
2342.47387,-0.0007700
2341.50949,-0.0007797
2340.54512,-0.0007769
2339.58074,-0.0007472
2338.61636,-0.0007202
2337.65198,-0.0006957
2336.68760,-0.0006865
2335.72323,-0.0006934
2334.75885,-0.0006805
2333.79447,-0.0006614
2332.83009,-0.0006192
2331.86571,-0.0005648
2330.90134,-0.0005344
2329.93696,-0.0005178
2328.97258,-0.0004942
2328.00820,-0.0004559
2327.04382,-0.0004403
2326.07945,-0.0004496
2325.11507,-0.0004852
2324.15069,-0.0005210
2323.18631,-0.0005155
2322.22194,-0.0004924
2321.25756,-0.0004527
2320.29318,-0.0004293
2319.32880,-0.0004352
2318.36442,-0.0004412
2317.40005,-0.0004235
2316.43567,-0.0003884
2315.47129,-0.0003899
2314.50691,-0.0003953
2313.54253,-0.0004136
2312.57816,-0.0004177
2311.61378,-0.0003952
2310.64940,-0.0003897
2309.68502,-0.0003985
2308.72065,-0.0004182
2307.75627,-0.0004355
2306.79189,-0.0004340
2305.82751,-0.0004282
2304.86313,-0.0004309
2303.89876,-0.0004412
2302.93438,-0.0004333
2301.97000,-0.0004329
2301.00562,-0.0004326
2300.04124,-0.0004322
2299.07687,-0.0004319
2298.11249,-0.0004316
2297.14811,-0.0004312
2296.18373,-0.0004309
2295.21935,-0.0004306
2294.25498,-0.0004302
2293.29060,-0.0004299
2292.32622,-0.0004295
2291.36184,-0.0004292
2290.39747,-0.0004289
2289.43309,-0.0004285
2288.46871,-0.0004282
2287.50433,-0.0004278
2286.53995,-0.0004275
2285.57558,-0.0004272
2284.61120,-0.0004268
2283.64682,-0.0004265
2282.68244,-0.0004262
2281.71806,-0.0004258
2280.75369,-0.0004255
2279.78931,-0.0004251
2278.82493,-0.0004248
2277.86055,-0.0004245
2276.89618,-0.0004241
2275.93180,-0.0004238
2274.96742,-0.0004234
2274.00304,-0.0004231
2273.03866,-0.0004228
2272.07429,-0.0004224
2271.10991,-0.0004221
2270.14553,-0.0004218
2269.18115,-0.0004214
2268.21677,-0.0004211
2267.25240,-0.0004207
2266.28802,-0.0004204
2265.32364,-0.0004201
2264.35926,-0.0004197
2263.39488,-0.0004194
2262.43051,-0.0004190
2261.46613,-0.0004187
2260.50175,-0.0004184
2259.53737,-0.0004180
2258.57300,-0.0004177
2257.60862,-0.0004174
2256.64424,-0.0004170
2255.67986,-0.0004167
2254.71548,-0.0004163
2253.75111,-0.0004160
2252.78673,-0.0004157
2251.82235,-0.0004153
2250.85797,-0.0004150
2249.89359,-0.0004147
2248.92922,-0.0004143
2247.96484,-0.0004140
2247.00046,-0.0004136
2246.03608,-0.0004133
2245.07171,-0.0004130
2244.10733,-0.0004126
2243.14295,-0.0004123
2242.17857,-0.0004119
2241.21419,-0.0004116
2240.24982,-0.0004113
2239.28544,-0.0004109
2238.32106,-0.0004106
2237.35668,-0.0004103
2236.39230,-0.0004099
2235.42793,-0.0004096
2234.46355,-0.0004092
2233.49917,-0.0004089
2232.53479,-0.0004086
2231.57041,-0.0004082
2230.60604,-0.0004079
2229.64166,-0.0004075
2228.67728,-0.0004072
2227.71290,-0.0004069
2226.74853,-0.0004065
2225.78415,-0.0004062
2224.81977,-0.0004059
2223.85539,-0.0004055
2222.89101,-0.0004052
2221.92664,-0.0004048
2220.96226,-0.0004045
2219.99788,-0.0004042
2219.03350,-0.0004038
2218.06912,-0.0004035
2217.10475,-0.0004032
2216.14037,-0.0004028
2215.17599,-0.0004025
2214.21161,-0.0004021
2213.24724,-0.0004018
2212.28286,-0.0004015
2211.31848,-0.0004011
2210.35410,-0.0004008
2209.38972,-0.0004004
2208.42535,-0.0004001
2207.46097,-0.0003998
2206.49659,-0.0003994
2205.53221,-0.0003991
2204.56783,-0.0003988
2203.60346,-0.0003984
2202.63908,-0.0003981
2201.67470,-0.0003977
2200.71032,-0.0003974
2199.74594,-0.0003971
2198.78157,-0.0003967
2197.81719,-0.0003964
2196.85281,-0.0003960
2195.88843,-0.0003957
2194.92406,-0.0003954
2193.95968,-0.0003950
2192.99530,-0.0003947
2192.03092,-0.0003944
2191.06654,-0.0003940
2190.10217,-0.0003937
2189.13779,-0.0003933
2188.17341,-0.0003930
2187.20903,-0.0003927
2186.24465,-0.0003923
2185.28028,-0.0003920
2184.31590,-0.0003916
2183.35152,-0.0003913
2182.38714,-0.0003910
2181.42276,-0.0003906
2180.45839,-0.0003903
2179.49401,-0.0003900
2178.52963,-0.0003896
2177.56525,-0.0003893
2176.60088,-0.0003889
2175.63650,-0.0003886
2174.67212,-0.0003883
2173.70774,-0.0003879
2172.74336,-0.0003876
2171.77899,-0.0003873
2170.81461,-0.0003869
2169.85023,-0.0003866
2168.88585,-0.0003862
2167.92147,-0.0003859
2166.95710,-0.0003856
2165.99272,-0.0003852
2165.02834,-0.0003849
2164.06396,-0.0003845
2163.09959,-0.0003842
2162.13521,-0.0003839
2161.17083,-0.0003835
2160.20645,-0.0003832
2159.24207,-0.0003829
2158.27770,-0.0003825
2157.31332,-0.0003822
2156.34894,-0.0003818
2155.38456,-0.0003815
2154.42018,-0.0003812
2153.45581,-0.0003808
2152.49143,-0.0003805
2151.52705,-0.0003801
2150.56267,-0.0003798
2149.59829,-0.0003795
2148.63392,-0.0003791
2147.66954,-0.0003788
2146.70516,-0.0003785
2145.74078,-0.0003781
2144.77641,-0.0003778
2143.81203,-0.0003774
2142.84765,-0.0003771
2141.88327,-0.0003768
2140.91889,-0.0003764
2139.95452,-0.0003761
2138.99014,-0.0003757
2138.02576,-0.0003754
2137.06138,-0.0003751
2136.09700,-0.0003747
2135.13263,-0.0003744
2134.16825,-0.0003741
2133.20387,-0.0003737
2132.23949,-0.0003734
2131.27512,-0.0003730
2130.31074,-0.0003727
2129.34636,-0.0003724
2128.38198,-0.0003720
2127.41760,-0.0003717
2126.45323,-0.0003714
2125.48885,-0.0003710
2124.52447,-0.0003707
2123.56009,-0.0003703
2122.59571,-0.0003700
2121.63134,-0.0003697
2120.66696,-0.0003693
2119.70258,-0.0003690
2118.73820,-0.0003686
2117.77382,-0.0003683
2116.80945,-0.0003680
2115.84507,-0.0003676
2114.88069,-0.0003673
2113.91631,-0.0003670
2112.95194,-0.0003666
2111.98756,-0.0003663
2111.02318,-0.0003659
2110.05880,-0.0003656
2109.09442,-0.0003653
2108.13005,-0.0003649
2107.16567,-0.0003646
2106.20129,-0.0003642
2105.23691,-0.0003639
2104.27253,-0.0003636
2103.30816,-0.0003632
2102.34378,-0.0003629
2101.37940,-0.0003626
2100.41502,-0.0003622
2099.45065,-0.0003619
2098.48627,-0.0003615
2097.52189,-0.0003612
2096.55751,-0.0003609
2095.59313,-0.0003605
2094.62876,-0.0003602
2093.66438,-0.0003599
2092.70000,-0.0003595
2091.73562,-0.0003592
2090.77124,-0.0003588
2089.80687,-0.0003585
2088.84249,-0.0003582
2087.87811,-0.0003578
2086.91373,-0.0003575
2085.94935,-0.0003571
2084.98498,-0.0003568
2084.02060,-0.0003565
2083.05622,-0.0003561
2082.09184,-0.0003558
2081.12747,-0.0003555
2080.16309,-0.0003551
2079.19871,-0.0003548
2078.23433,-0.0003544
2077.26995,-0.0003541
2076.30558,-0.0003538
2075.34120,-0.0003534
2074.37682,-0.0003531
2073.41244,-0.0003527
2072.44806,-0.0003524
2071.48369,-0.0003521
2070.51931,-0.0003517
2069.55493,-0.0003514
2068.59055,-0.0003511
2067.62618,-0.0003507
2066.66180,-0.0003504
2065.69742,-0.0003500
2064.73304,-0.0003497
2063.76866,-0.0003494
2062.80429,-0.0003490
2061.83991,-0.0003487
2060.87553,-0.0003483
2059.91115,-0.0003480
2058.94677,-0.0003477
2057.98240,-0.0003473
2057.01802,-0.0003470
2056.05364,-0.0003467
2055.08926,-0.0003463
2054.12488,-0.0003460
2053.16051,-0.0003456
2052.19613,-0.0003453
2051.23175,-0.0003450
2050.26737,-0.0003446
2049.30300,-0.0003443
2048.33862,-0.0003440
2047.37424,-0.0003436
2046.40986,-0.0003433
2045.44548,-0.0003429
2044.48111,-0.0003426
2043.51673,-0.0003423
2042.55235,-0.0003419
2041.58797,-0.0003416
2040.62359,-0.0003412
2039.65922,-0.0003409
2038.69484,-0.0003406
2037.73046,-0.0003402
2036.76608,-0.0003399
2035.80171,-0.0003396
2034.83733,-0.0003392
2033.87295,-0.0003389
2032.90857,-0.0003385
2031.94419,-0.0003382
2030.97982,-0.0003379
2030.01544,-0.0003375
2029.05106,-0.0003372
2028.08668,-0.0003368
2027.12230,-0.0003365
2026.15793,-0.0003362
2025.19355,-0.0003358
2024.22917,-0.0003355
2023.26479,-0.0003352
2022.30041,-0.0003348
2021.33604,-0.0003345
2020.37166,-0.0003341
2019.40728,-0.0003338
2018.44290,-0.0003335
2017.47853,-0.0003331
2016.51415,-0.0003328
2015.54977,-0.0003324
2014.58539,-0.0003321
2013.62101,-0.0003318
2012.65664,-0.0003314
2011.69226,-0.0003311
2010.72788,-0.0003308
2009.76350,-0.0003304
2008.79912,-0.0003301
2007.83475,-0.0003297
2006.87037,-0.0003294
2005.90599,-0.0003291
2004.94161,-0.0003287
2003.97724,-0.0003284
2003.01286,-0.0003281
2002.04848,-0.0003277
2001.08410,-0.0003274
2000.11972,-0.0003270
1999.15535,-0.0003267
1998.19097,-0.0003264
1997.22659,-0.0003260
1996.26221,-0.0003257
1995.29783,-0.0003253
1994.33346,-0.0003250
1993.36908,-0.0003247
1992.40470,-0.0003243
1991.44032,-0.0003240
1990.47594,-0.0003237
1989.51157,-0.0003233
1988.54719,-0.0003230
1987.58281,-0.0003226
1986.61843,-0.0003223
1985.65406,-0.0003220
1984.68968,-0.0003216
1983.72530,-0.0003213
1982.76092,-0.0003209
1981.79654,-0.0003206
1980.83217,-0.0003203
1979.86779,-0.0003199
1978.90341,-0.0003196
1977.93903,-0.0003193
1976.97465,-0.0003189
1976.01028,-0.0003186
1975.04590,-0.0003182
1974.08152,-0.0003179
1973.11714,-0.0003176
1972.15276,-0.0003172
1971.18839,-0.0003169
1970.22401,-0.0003166
1969.25963,-0.0003162
1968.29525,-0.0003159
1967.33088,-0.0003155
1966.36650,-0.0003152
1965.40212,-0.0003149
1964.43774,-0.0003145
1963.47336,-0.0003142
1962.50899,-0.0003138
1961.54461,-0.0003135
1960.58023,-0.0003132
1959.61585,-0.0003128
1958.65147,-0.0003125
1957.68710,-0.0003122
1956.72272,-0.0003118
1955.75834,-0.0003115
1954.79396,-0.0003111
1953.82959,-0.0003108
1952.86521,-0.0003105
1951.90083,-0.0003101
1950.93645,-0.0003098
1949.97207,-0.0003094
1949.00770,-0.0003091
1948.04332,-0.0003088
1947.07894,-0.0003084
1946.11456,-0.0003081
1945.15018,-0.0003078
1944.18581,-0.0003074
1943.22143,-0.0003071
1942.25705,-0.0003067
1941.29267,-0.0003064
1940.32829,-0.0003061
1939.36392,-0.0003057
1938.39954,-0.0003054
1937.43516,-0.0003050
1936.47078,-0.0003047
1935.50641,-0.0003044
1934.54203,-0.0003040
1933.57765,-0.0003037
1932.61327,-0.0003034
1931.64889,-0.0003030
1930.68452,-0.0003027
1929.72014,-0.0003023
1928.75576,-0.0003020
1927.79138,-0.0003017
1926.82700,-0.0003013
1925.86263,-0.0003010
1924.89825,-0.0003007
1923.93387,-0.0003003
1922.96949,-0.0003000
1922.00512,-0.0002996
1921.04074,-0.0002993
1920.07636,-0.0002990
1919.11198,-0.0002986
1918.14760,-0.0002983
1917.18323,-0.0002979
1916.21885,-0.0002976
1915.25447,-0.0002973
1914.29009,-0.0002969
1913.32571,-0.0002966
1912.36134,-0.0002963
1911.39696,-0.0002959
1910.43258,-0.0002956
1909.46820,-0.0002952
1908.50382,-0.0002949
1907.53945,-0.0002946
1906.57507,-0.0002942
1905.61069,-0.0002939
1904.64631,-0.0002935
1903.68194,-0.0002932
1902.71756,-0.0002929
1901.75318,-0.0002925
1900.78880,-0.0002922
1899.82442,-0.0002919
1898.86005,-0.0002915
1897.89567,-0.0002912
1896.93129,-0.0002908
1895.96691,-0.0002905
1895.00253,-0.0002902
1894.03816,-0.0002898
1893.07378,-0.0002895
1892.10940,-0.0002891
1891.14502,-0.0002888
1890.18065,-0.0002885
1889.21627,-0.0002881
1888.25189,-0.0002878
1887.28751,-0.0002875
1886.32313,-0.0002871
1885.35876,-0.0002868
1884.39438,-0.0002864
1883.43000,-0.0002861
1882.46562,-0.0002858
1881.50124,-0.0002854
1880.53687,-0.0002851
1879.57249,-0.0002848
1878.60811,-0.0002844
1877.64373,-0.0002841
1876.67935,-0.0002837
1875.71498,-0.0002834
1874.75060,-0.0002831
1873.78622,-0.0002815
1872.82184,-0.0003006
1871.85747,-0.0003015
1870.89309,-0.0002825
1869.92871,-0.0002596
1868.96433,-0.0002157
1867.99995,-0.0001784
1867.03558,-0.0001555
1866.07120,-0.0001390
1865.10682,-0.0001289
1864.14244,-0.0001101
1863.17806,-0.0000874
1862.21369,-0.0001024
1861.24931,-0.0001634
1860.28493,-0.0001844
1859.32055,-0.0001926
1858.35618,-0.0001895
1857.39180,-0.0001466
1856.42742,-0.0001251
1855.46304,-0.0001109
1854.49866,-0.0000929
1853.53429,-0.0000675
1852.56991,-0.0000109
1851.60553,0.0000366
1850.64115,0.0000115
1849.67677,-0.0000500
1848.71240,-0.0000597
1847.74802,-0.0000440
1846.78364,-0.0000059
1845.81926,0.0000356
1844.85488,0.0000312
1843.89051,0.0000237
1842.92613,0.0000180
1841.96175,0.0000305
1840.99737,0.0000667
1840.03300,0.0000895
1839.06862,0.0000966
1838.10424,0.0001064
1837.13986,0.0001387
1836.17548,0.0001511
1835.21111,0.0001648
1834.24673,0.0001886
1833.28235,0.0001652
1832.31797,0.0001190
1831.35359,0.0000553
1830.38922,0.0000010
1829.42484,-0.0000224
1828.46046,-0.0000197
1827.49608,0.0000173
1826.53171,0.0000302
1825.56733,0.0000222
1824.60295,0.0000266
1823.63857,0.0000569
1822.67419,0.0000902
1821.70982,0.0000649
1820.74544,0.0000236
1819.78106,-0.0000141
1818.81668,-0.0000615
1817.85230,-0.0000964
1816.88793,-0.0001045
1815.92355,-0.0000841
1814.95917,-0.0000714
1813.99479,-0.0000416
1813.03041,0.0000135
1812.06604,0.0000444
1811.10166,0.0000649
1810.13728,0.0000812
1809.17290,0.0000925
1808.20853,0.0001002
1807.24415,0.0000911
1806.27977,0.0000771
1805.31539,0.0000750
1804.35101,0.0000829
1803.38664,0.0000875
1802.42226,0.0000856
1801.45788,0.0000714
1800.49350,0.0000387
1799.52912,0.0000039
1798.56475,-0.0000302
1797.60037,-0.0000589
1796.63599,-0.0000517
1795.67161,-0.0000165
1794.70724,0.0000172
1793.74286,0.0000607
1792.77848,0.0001193
1791.81410,0.0001593
1790.84972,0.0001648
1789.88535,0.0001588
1788.92097,0.0001508
1787.95659,0.0001380
1786.99221,0.0001221
1786.02783,0.0001055
1785.06346,0.0001066
1784.09908,0.0001241
1783.13470,0.0001377
1782.17032,0.0001434
1781.20594,0.0001488
1780.24157,0.0001473
1779.27719,0.0001303
1778.31281,0.0001276
1777.34843,0.0001534
1776.38406,0.0001969
1775.41968,0.0002462
1774.45530,0.0002863
1773.49092,0.0003305
1772.52654,0.0003725
1771.56217,0.0003861
1770.59779,0.0003731
1769.63341,0.0003575
1768.66903,0.0003284
1767.70465,0.0002726
1766.74028,0.0002378
1765.77590,0.0002324
1764.81152,0.0002427
1763.84714,0.0002681
1762.88276,0.0002980
1761.91839,0.0003509
1760.95401,0.0004178
1759.98963,0.0004756
1759.02525,0.0005211
1758.06088,0.0005477
1757.09650,0.0005537
1756.13212,0.0005707
1755.16774,0.0006232
1754.20336,0.0006829
1753.23899,0.0007521
1752.27461,0.0008314
1751.31023,0.0009086
1750.34585,0.0010028
1749.38147,0.0011031
1748.41710,0.0012002
1747.45272,0.0012774
1746.48834,0.0013192
1745.52396,0.0013625
1744.55959,0.0014278
1743.59521,0.0014833
1742.63083,0.0014950
1741.66645,0.0014673
1740.70207,0.0014058
1739.73770,0.0013377
1738.77332,0.0013178
1737.80894,0.0013399
1736.84456,0.0013722
1735.88018,0.0013885
1734.91581,0.0013805
1733.95143,0.0013671
1732.98705,0.0013382
1732.02267,0.0012734
1731.05829,0.0011818
1730.09392,0.0010672
1729.12954,0.0009444
1728.16516,0.0008615
1727.20078,0.0008339
1726.23641,0.0008288
1725.27203,0.0008223
1724.30765,0.0008166
1723.34327,0.0008237
1722.37889,0.0008474
1721.41452,0.0008733
1720.45014,0.0008955
1719.48576,0.0009303
1718.52138,0.0009497
1717.55700,0.0009317
1716.59263,0.0009059
1715.62825,0.0008783
1714.66387,0.0008445
1713.69949,0.0008010
1712.73512,0.0007513
1711.77074,0.0007208
1710.80636,0.0007177
1709.84198,0.0007334
1708.87760,0.0007729
1707.91323,0.0008211
1706.94885,0.0008263
1705.98447,0.0008207
1705.02009,0.0008760
1704.05571,0.0009702
1703.09134,0.0010541
1702.12696,0.0011020
1701.16258,0.0011579
1700.19820,0.0012522
1699.23382,0.0013490
1698.26945,0.0014286
1697.30507,0.0014875
1696.34069,0.0015031
1695.37631,0.0014657
1694.41194,0.0014362
1693.44756,0.0014488
1692.48318,0.0014559
1691.51880,0.0014231
1690.55442,0.0013881
1689.59005,0.0014509
1688.62567,0.0015896
1687.66129,0.0017231
1686.69691,0.0018349
1685.73253,0.0019361
1684.76816,0.0020248
1683.80378,0.0020748
1682.83940,0.0020979
1681.87502,0.0020992
1680.91065,0.0020808
1679.94627,0.0020642
1678.98189,0.0020687
1678.01751,0.0021299
1677.05313,0.0022165
1676.08876,0.0022802
1675.12438,0.0023204
1674.16000,0.0023671
1673.19562,0.0024143
1672.23124,0.0024275
1671.26687,0.0024124
1670.30249,0.0023785
1669.33811,0.0023576
1668.37373,0.0023668
1667.40935,0.0023832
1666.44498,0.0024097
1665.48060,0.0024408
1664.51622,0.0024580
1663.55184,0.0024695
1662.58747,0.0024882
1661.62309,0.0024881
1660.65871,0.0024673
1659.69433,0.0024425
1658.72995,0.0024372
1657.76558,0.0025016
1656.80120,0.0026007
1655.83682,0.0026849
1654.87244,0.0027381
1653.90806,0.0027595
1652.94369,0.0027527
1651.97931,0.0027243
1651.01493,0.0027002
1650.05055,0.0026646
1649.08618,0.0026101
1648.12180,0.0025568
1647.15742,0.0025283
1646.19304,0.0025330
1645.22866,0.0025171
1644.26429,0.0024731
1643.29991,0.0024211
1642.33553,0.0023695
1641.37115,0.0023430
1640.40677,0.0023715
1639.44240,0.0024433
1638.47802,0.0025095
1637.51364,0.0025488
1636.54926,0.0025696
1635.58488,0.0025734
1634.62051,0.0025516
1633.65613,0.0025213
1632.69175,0.0024983
1631.72737,0.0024703
1630.76300,0.0024414
1629.79862,0.0024372
1628.83424,0.0024873
1627.86986,0.0025648
1626.90548,0.0026285
1625.94111,0.0026713
1624.97673,0.0027115
1624.01235,0.0027492
1623.04797,0.0027625
1622.08359,0.0027998
1621.11922,0.0028693
1620.15484,0.0029094
1619.19046,0.0029127
1618.22608,0.0029080
1617.26171,0.0029199
1616.29733,0.0029305
1615.33295,0.0029212
1614.36857,0.0029083
1613.40419,0.0029086
1612.43982,0.0029151
1611.47544,0.0029376
1610.51106,0.0029964
1609.54668,0.0030461
1608.58230,0.0030638
1607.61793,0.0030712
1606.65355,0.0030807
1605.68917,0.0030940
1604.72479,0.0031048
1603.76041,0.0031163
1602.79604,0.0031266
1601.83166,0.0031438
1600.86728,0.0031649
1599.90290,0.0031840
1598.93853,0.0031894
1597.97415,0.0031680
1597.00977,0.0031527
1596.04539,0.0031470
1595.08101,0.0031346
1594.11664,0.0031191
1593.15226,0.0030981
1592.18788,0.0030673
1591.22350,0.0030390
1590.25912,0.0030255
1589.29475,0.0030024
1588.33037,0.0029669
1587.36599,0.0029346
1586.40161,0.0029046
1585.43724,0.0028814
1584.47286,0.0028612
1583.50848,0.0028249
1582.54410,0.0027696
1581.57972,0.0027397
1580.61535,0.0027534
1579.65097,0.0027867
1578.68659,0.0028139
1577.72221,0.0028077
1576.75783,0.0027652
1575.79346,0.0027077
1574.82908,0.0026572
1573.86470,0.0025999
1572.90032,0.0025297
1571.93594,0.0024450
1570.97157,0.0023518
1570.00719,0.0022973
1569.04281,0.0022740
1568.07843,0.0022433
1567.11406,0.0021822
1566.14968,0.0020914
1565.18530,0.0020179
1564.22092,0.0020028
1563.25654,0.0020660
1562.29217,0.0021694
1561.32779,0.0022647
1560.36341,0.0023373
1559.39903,0.0023955
1558.43465,0.0024470
1557.47028,0.0024664
1556.50590,0.0024349
1555.54152,0.0023486
1554.57714,0.0022361
1553.61276,0.0021453
1552.64839,0.0020768
1551.68401,0.0020249
1550.71963,0.0019885
1549.75525,0.0019631
1548.79088,0.0019545
1547.82650,0.0019831
1546.86212,0.0020392
1545.89774,0.0020871
1544.93336,0.0021468
1543.96899,0.0022423
1543.00461,0.0023413
1542.04023,0.0024115
1541.07585,0.0024326
1540.11147,0.0024097
1539.14710,0.0023768
1538.18272,0.0023359
1537.21834,0.0022638
1536.25396,0.0021704
1535.28959,0.0020584
1534.32521,0.0019350
1533.36083,0.0018472
1532.39645,0.0017901
1531.43207,0.0017337
1530.46770,0.0016993
1529.50332,0.0016804
1528.53894,0.0016540
1527.57456,0.0016327
1526.61018,0.0016296
1525.64581,0.0016481
1524.68143,0.0016741
1523.71705,0.0016736
1522.75267,0.0016534
1521.78829,0.0016404
1520.82392,0.0016259
1519.85954,0.0016166
1518.89516,0.0016141
1517.93078,0.0015891
1516.96641,0.0015371
1516.00203,0.0014786
1515.03765,0.0014402
1514.07327,0.0014191
1513.10889,0.0013956
1512.14452,0.0013881
1511.18014,0.0014373
1510.21576,0.0015377
1509.25138,0.0016313
1508.28700,0.0016858
1507.32263,0.0016961
1506.35825,0.0016678
1505.39387,0.0016053
1504.42949,0.0015198
1503.46512,0.0014309
1502.50074,0.0013283
1501.53636,0.0012489
1500.57198,0.0012443
1499.60760,0.0012862
1498.64323,0.0013268
1497.67885,0.0013404
1496.71447,0.0013370
1495.75009,0.0013328
1494.78571,0.0013295
1493.82134,0.0013201
1492.85696,0.0013102
1491.89258,0.0013105
1490.92820,0.0013041
1489.96382,0.0013110
1488.99945,0.0013380
1488.03507,0.0013445
1487.07069,0.0013297
1486.10631,0.0013103
1485.14194,0.0012883
1484.17756,0.0012733
1483.21318,0.0012726
1482.24880,0.0012698
1481.28442,0.0012781
1480.32005,0.0013116
1479.35567,0.0013491
1478.39129,0.0014098
1477.42691,0.0015078
1476.46253,0.0016185
1475.49816,0.0017174
1474.53378,0.0018011
1473.56940,0.0018845
1472.60502,0.0019626
1471.64065,0.0020192
1470.67627,0.0020612
1469.71189,0.0021178
1468.74751,0.0021667
1467.78313,0.0021834
1466.81876,0.0022039
1465.85438,0.0022306
1464.89000,0.0022444
1463.92562,0.0022394
1462.96124,0.0022326
1461.99687,0.0022735
1461.03249,0.0023537
1460.06811,0.0024301
1459.10373,0.0024946
1458.13935,0.0025453
1457.17498,0.0025683
1456.21060,0.0025589
1455.24622,0.0025183
1454.28184,0.0024462
1453.31747,0.0023625
1452.35309,0.0023030
1451.38871,0.0022848
1450.42433,0.0023129
1449.45995,0.0023638
1448.49558,0.0023959
1447.53120,0.0024138
1446.56682,0.0024324
1445.60244,0.0024433
1444.63806,0.0024426
1443.67369,0.0024182
1442.70931,0.0023834
1441.74493,0.0023951
1440.78055,0.0024624
1439.81618,0.0025332
1438.85180,0.0025874
1437.88742,0.0026397
1436.92304,0.0026810
1435.95866,0.0027063
1434.99429,0.0027155
1434.02991,0.0027028
1433.06553,0.0026768
1432.10115,0.0026454
1431.13677,0.0026189
1430.17240,0.0026191
1429.20802,0.0026368
1428.24364,0.0026549
1427.27926,0.0026882
1426.31488,0.0027289
1425.35051,0.0027683
1424.38613,0.0028364
1423.42175,0.0029306
1422.45737,0.0030312
1421.49300,0.0031274
1420.52862,0.0032110
1419.56424,0.0032735
1418.59986,0.0033090
1417.63548,0.0033314
1416.67111,0.0033447
1415.70673,0.0033405
1414.74235,0.0033233
1413.77797,0.0033174
1412.81359,0.0033277
1411.84922,0.0033260
1410.88484,0.0033232
1409.92046,0.0033352
1408.95608,0.0033525
1407.99171,0.0033730
1407.02733,0.0033868
1406.06295,0.0033872
1405.09857,0.0033803
1404.13419,0.0033762
1403.16982,0.0033810
1402.20544,0.0033779
1401.24106,0.0033490
1400.27668,0.0033193
1399.31230,0.0033188
1398.34793,0.0033333
1397.38355,0.0033489
1396.41917,0.0033581
1395.45479,0.0033506
1394.49041,0.0033286
1393.52604,0.0033009
1392.56166,0.0032866
1391.59728,0.0032851
1390.63290,0.0032717
1389.66853,0.0032403
1388.70415,0.0032154
1387.73977,0.0032133
1386.77539,0.0032210
1385.81101,0.0032313
1384.84664,0.0032398
1383.88226,0.0032494
1382.91788,0.0032673
1381.95350,0.0032814
1380.98912,0.0032959
1380.02475,0.0033164
1379.06037,0.0033340
1378.09599,0.0033470
1377.13161,0.0033534
1376.16724,0.0033537
1375.20286,0.0033418
1374.23848,0.0033174
1373.27410,0.0032955
1372.30972,0.0032790
1371.34535,0.0032528
1370.38097,0.0032050
1369.41659,0.0031601
1368.45221,0.0031492
1367.48783,0.0031623
1366.52346,0.0031777
1365.55908,0.0031889
1364.59470,0.0031866
1363.63032,0.0031699
1362.66594,0.0031598
1361.70157,0.0031592
1360.73719,0.0031472
1359.77281,0.0031140
1358.80843,0.0030738
1357.84406,0.0030458
1356.87968,0.0030250
1355.91530,0.0029997
1354.95092,0.0029765
1353.98654,0.0029582
1353.02217,0.0029310
1352.05779,0.0029001
1351.09341,0.0028846
1350.12903,0.0028769
1349.16465,0.0028604
1348.20028,0.0028297
1347.23590,0.0027988
1346.27152,0.0027821
1345.30714,0.0027700
1344.34276,0.0027597
1343.37839,0.0027549
1342.41401,0.0027483
1341.44963,0.0027367
1340.48525,0.0027240
1339.52088,0.0027138
1338.55650,0.0026976
1337.59212,0.0026638
1336.62774,0.0026182
1335.66336,0.0025752
1334.69899,0.0025431
1333.73461,0.0025119
1332.77023,0.0024701
1331.80585,0.0024337
1330.84147,0.0024059
1329.87710,0.0023764
1328.91272,0.0023537
1327.94834,0.0023350
1326.98396,0.0023088
1326.01959,0.0022746
1325.05521,0.0022403
1324.09083,0.0022092
1323.12645,0.0021781
1322.16207,0.0021495
1321.19770,0.0021250
1320.23332,0.0021136
1319.26894,0.0021089
1318.30456,0.0021021
1317.34018,0.0021001
1316.37581,0.0020920
1315.41143,0.0020726
1314.44705,0.0020448
1313.48267,0.0020159
1312.51829,0.0019919
1311.55392,0.0019691
1310.58954,0.0019519
1309.62516,0.0019303
1308.66078,0.0019045
1307.69641,0.0018873
1306.73203,0.0018783
1305.76765,0.0018723
1304.80327,0.0018584
1303.83889,0.0018364
1302.87452,0.0018097
1301.91014,0.0017894
1300.94576,0.0017771
1299.98138,0.0017618
1299.01700,0.0017440
1298.05263,0.0017188
1297.08825,0.0017002
1296.12387,0.0017015
1295.15949,0.0017069
1294.19512,0.0017089
1293.23074,0.0017123
1292.26636,0.0017117
1291.30198,0.0017004
1290.33760,0.0016987
1289.37323,0.0017055
1288.40885,0.0017008
1287.44447,0.0016883
1286.48009,0.0016711
1285.51571,0.0016588
1284.55134,0.0016590
1283.58696,0.0016713
1282.62258,0.0016892
1281.65820,0.0017016
1280.69382,0.0017062
1279.72945,0.0017036
1278.76507,0.0017079
1277.80069,0.0017192
1276.83631,0.0017205
1275.87194,0.0017134
1274.90756,0.0017127
1273.94318,0.0017265
1272.97880,0.0017467
1272.01442,0.0017720
1271.05005,0.0017955
1270.08567,0.0018119
1269.12129,0.0018364
1268.15691,0.0018584
1267.19253,0.0018710
1266.22816,0.0018862
1265.26378,0.0018977
1264.29940,0.0019043
1263.33502,0.0019140
1262.37065,0.0019180
1261.40627,0.0019054
1260.44189,0.0018853
1259.47751,0.0018662
1258.51313,0.0018531
1257.54876,0.0018450
1256.58438,0.0018266
1255.62000,0.0018100
1254.65562,0.0018058
1253.69124,0.0017928
1252.72687,0.0017726
1251.76249,0.0017591
1250.79811,0.0017496
1249.83373,0.0017416
1248.86935,0.0017308
1247.90498,0.0017225
1246.94060,0.0017219
1245.97622,0.0017133
1245.01184,0.0016960
1244.04747,0.0016879
1243.08309,0.0016794
1242.11871,0.0016553
1241.15433,0.0016300
1240.18995,0.0016149
1239.22558,0.0016078
1238.26120,0.0016077
1237.29682,0.0016048
1236.33244,0.0016039
1235.36806,0.0016224
1234.40369,0.0016412
1233.43931,0.0016427
1232.47493,0.0016380
1231.51055,0.0016324
1230.54618,0.0016279
1229.58180,0.0016208
1228.61742,0.0016084
1227.65304,0.0015998
1226.68866,0.0015930
1225.72429,0.0015822
1224.75991,0.0015778
1223.79553,0.0015861
1222.83115,0.0015851
1221.86677,0.0015681
1220.90240,0.0015591
1219.93802,0.0015610
1218.97364,0.0015660
1218.00926,0.0015712
1217.04488,0.0015782
1216.08051,0.0015959
1215.11613,0.0016092
1214.15175,0.0015983
1213.18737,0.0015733
1212.22300,0.0015471
1211.25862,0.0015263
1210.29424,0.0015201
1209.32986,0.0015190
1208.36548,0.0015187
1207.40111,0.0015344
1206.43673,0.0015558
1205.47235,0.0015706
1204.50797,0.0015883
1203.54359,0.0015997
1202.57922,0.0015943
1201.61484,0.0015899
1200.65046,0.0015966
1199.68608,0.0016129
1198.72171,0.0016343
1197.75733,0.0016390
1196.79295,0.0016415
1195.82857,0.0016643
1194.86419,0.0016755
1193.89982,0.0016696
1192.93544,0.0016694
1191.97106,0.0016688
1191.00668,0.0016666
1190.04230,0.0016764
1189.07793,0.0016990
1188.11355,0.0017309
1187.14917,0.0017664
1186.18479,0.0017922
1185.22041,0.0018234
1184.25604,0.0018602
1183.29166,0.0018750
1182.32728,0.0018797
1181.36290,0.0018861
1180.39853,0.0018861
1179.43415,0.0018892
1178.46977,0.0019085
1177.50539,0.0019348
1176.54101,0.0019623
1175.57664,0.0019994
1174.61226,0.0020405
1173.64788,0.0020762
1172.68350,0.0020900
1171.71912,0.0020838
1170.75475,0.0020855
1169.79037,0.0020983
1168.82599,0.0021197
1167.86161,0.0021578
1166.89724,0.0022110
1165.93286,0.0022569
1164.96848,0.0022872
1164.00410,0.0023173
1163.03972,0.0023323
1162.07535,0.0023211
1161.11097,0.0022994
1160.14659,0.0022869
1159.18221,0.0022884
1158.21783,0.0022943
1157.25346,0.0023165
1156.28908,0.0023701
1155.32470,0.0024348
1154.36032,0.0024768
1153.39594,0.0025014
1152.43157,0.0025209
1151.46719,0.0025250
1150.50281,0.0025179
1149.53843,0.0025038
1148.57406,0.0024900
1147.60968,0.0024901
1146.64530,0.0025087
1145.68092,0.0025433
1144.71654,0.0025752
1143.75217,0.0025835
1142.78779,0.0025751
1141.82341,0.0025806
1140.85903,0.0025989
1139.89465,0.0026135
1138.93028,0.0026206
1137.96590,0.0026162
1137.00152,0.0026291
1136.03714,0.0026802
1135.07276,0.0027420
1134.10839,0.0027767
1133.14401,0.0027853
1132.17963,0.0027942
1131.21525,0.0028121
1130.25088,0.0028325
1129.28650,0.0028329
1128.32212,0.0028237
1127.35774,0.0028186
1126.39336,0.0028024
1125.42899,0.0028007
1124.46461,0.0028217
1123.50023,0.0028347
1122.53585,0.0028279
1121.57147,0.0028234
1120.60710,0.0028479
1119.64272,0.0028871
1118.67834,0.0029133
1117.71396,0.0029223
1116.74959,0.0029456
1115.78521,0.0029759
1114.82083,0.0029754
1113.85645,0.0029588
1112.89207,0.0029366
1111.92770,0.0029069
1110.96332,0.0028750
1109.99894,0.0028478
1109.03456,0.0028415
1108.07018,0.0028643
1107.10581,0.0028977
1106.14143,0.0029161
1105.17705,0.0029269
1104.21267,0.0029267
1103.24829,0.0028922
1102.28392,0.0028411
1101.31954,0.0028109
1100.35516,0.0027982
1099.39078,0.0027778
1098.42641,0.0027554
1097.46203,0.0027492
1096.49765,0.0027586
1095.53327,0.0027529
1094.56889,0.0027225
1093.60452,0.0026954
1092.64014,0.0026720
1091.67576,0.0026420
1090.71138,0.0026168
1089.74700,0.0026103
1088.78263,0.0026032
1087.81825,0.0025876
1086.85387,0.0025850
1085.88949,0.0025812
1084.92512,0.0025606
1083.96074,0.0025331
1082.99636,0.0025153
1082.03198,0.0025136
1081.06760,0.0025163
1080.10323,0.0025074
1079.13885,0.0024913
1078.17447,0.0024839
1077.21009,0.0024815
1076.24571,0.0024920
1075.28134,0.0025022
1074.31696,0.0024916
1073.35258,0.0024881
1072.38820,0.0025047
1071.42382,0.0025342
1070.45945,0.0025678
1069.49507,0.0025895
1068.53069,0.0025837
1067.56631,0.0025673
1066.60194,0.0025508
1065.63756,0.0025259
1064.67318,0.0025084
1063.70880,0.0024801
1062.74442,0.0024507
1061.78005,0.0024495
1060.81567,0.0024659
1059.85129,0.0024943
1058.88691,0.0025145
1057.92253,0.0025352
1056.95816,0.0025577
1055.99378,0.0025606
1055.02940,0.0025477
1054.06502,0.0025309
1053.10065,0.0025226
1052.13627,0.0025084
1051.17189,0.0024964
1050.20751,0.0024899
1049.24313,0.0024748
1048.27876,0.0024581
1047.31438,0.0024352
1046.35000,0.0024200
1045.38562,0.0024101
1044.42124,0.0023916
1043.45687,0.0023796
1042.49249,0.0023801
1041.52811,0.0023831
1040.56373,0.0023869
1039.59935,0.0024061
1038.63498,0.0024212
1037.67060,0.0024142
1036.70622,0.0023987
1035.74184,0.0023852
1034.77747,0.0023841
1033.81309,0.0023981
1032.84871,0.0024204
1031.88433,0.0024348
1030.91995,0.0024382
1029.95558,0.0024308
1028.99120,0.0024278
1028.02682,0.0024467
1027.06244,0.0024536
1026.09806,0.0024425
1025.13369,0.0024331
1024.16931,0.0024178
1023.20493,0.0024031
1022.24055,0.0024048
1021.27618,0.0024173
1020.31180,0.0024180
1019.34742,0.0024061
1018.38304,0.0023979
1017.41866,0.0024009
1016.45429,0.0024080
1015.48991,0.0023967
1014.52553,0.0023809
1013.56115,0.0023770
1012.59677,0.0023523
1011.63240,0.0023128
1010.66802,0.0022948
1009.70364,0.0022898
1008.73926,0.0022744
1007.77488,0.0022426
1006.81051,0.0022153
1005.84613,0.0021844
1004.88175,0.0021320
1003.91737,0.0020934
1002.95300,0.0020886
1001.98862,0.0021088
1001.02424,0.0021270
1000.05986,0.0021329
999.09548,0.0021400
998.13111,0.0021383
997.16673,0.0021249
996.20235,0.0021076
995.23797,0.0020991
994.27359,0.0020795
993.30922,0.0020358
992.34484,0.0019996
991.38046,0.0019711
990.41608,0.0019526
989.45171,0.0019342
988.48733,0.0018981
987.52295,0.0018526
986.55857,0.0018116
985.59419,0.0018082
984.62982,0.0018334
983.66544,0.0018485
982.70106,0.0018495
981.73668,0.0018533
980.77230,0.0018648
979.80793,0.0018748
978.84355,0.0018796
977.87917,0.0018582
976.91479,0.0018133
975.95041,0.0017690
974.98604,0.0017269
974.02166,0.0016986
973.05728,0.0016746
972.09290,0.0016318
971.12853,0.0016065
970.16415,0.0016236
969.19977,0.0016560
968.23539,0.0016902
967.27101,0.0017094
966.30664,0.0016948
965.34226,0.0016580
964.37788,0.0016170
963.41350,0.0015664
962.44912,0.0015121
961.48475,0.0014797
960.52037,0.0014520
959.55599,0.0014436
958.59161,0.0014686
957.62724,0.0014865
956.66286,0.0015167
955.69848,0.0015661
954.73410,0.0015846
953.76972,0.0015658
952.80535,0.0015417
951.84097,0.0015112
950.87659,0.0014756
949.91221,0.0014616
948.94783,0.0014427
947.98346,0.0014180
947.01908,0.0013977
946.05470,0.0013664
945.09032,0.0013724
944.12594,0.0014097
943.16157,0.0014236
942.19719,0.0014455
941.23281,0.0014987
940.26843,0.0015414
939.30406,0.0015702
938.33968,0.0016099
937.37530,0.0016425
936.41092,0.0016506
935.44654,0.0016250
934.48217,0.0015656
933.51779,0.0015136
932.55341,0.0015023
931.58903,0.0015174
930.62465,0.0015392
929.66028,0.0015543
928.69590,0.0015448
927.73152,0.0015244
926.76714,0.0015192
925.80276,0.0015289
924.83839,0.0015429
923.87401,0.0015486
922.90963,0.0015314
921.94525,0.0015186
920.98088,0.0015538
920.01650,0.0015927
919.05212,0.0015834
918.08774,0.0015408
917.12336,0.0014667
916.15899,0.0013701
915.19461,0.0012823
914.23023,0.0012172
913.26585,0.0011959
912.30147,0.0012018
911.33710,0.0011933
910.37272,0.0012065
909.40834,0.0012544
908.44396,0.0012855
907.47959,0.0012943
906.51521,0.0013133
905.55083,0.0013469
904.58645,0.0013648
903.62207,0.0013627
902.65770,0.0013451
901.69332,0.0013369
900.72894,0.0013375
899.76456,0.0013000
898.80018,0.0012582
897.83581,0.0012189
896.87143,0.0011806
895.90705,0.0011802
894.94267,0.0012202
893.97829,0.0012851
893.01392,0.0013143
892.04954,0.0013178
891.08516,0.0013139
890.12078,0.0012895
889.15641,0.0012552
888.19203,0.0012086
887.22765,0.0012002
886.26327,0.0012039
885.29889,0.0012013
884.33452,0.0012221
883.37014,0.0012509
882.40576,0.0013125
881.44138,0.0013703
880.47700,0.0013931
879.51263,0.0013893
878.54825,0.0013611
877.58387,0.0013297
876.61949,0.0012898
875.65512,0.0012265
874.69074,0.0011288
873.72636,0.0010604
872.76198,0.0010548
871.79760,0.0010758
870.83323,0.0011099
869.86885,0.0011432
868.90447,0.0011855
867.94009,0.0012190
866.97571,0.0012436
866.01134,0.0012675
865.04696,0.0012677
864.08258,0.0012478
863.11820,0.0012184
862.15382,0.0012204
861.18945,0.0012731
860.22507,0.0013332
859.26069,0.0013638
858.29631,0.0014033
857.33194,0.0014502
856.36756,0.0014530
855.40318,0.0014553
854.43880,0.0014578
853.47442,0.0014501
852.51005,0.0014440
851.54567,0.0014066
850.58129,0.0013655
849.61691,0.0013606
848.65253,0.0013786
847.68816,0.0013761
846.72378,0.0013549
845.75940,0.0013334
844.79502,0.0013205
843.83065,0.0013267
842.86627,0.0013210
841.90189,0.0013190
840.93751,0.0013084
839.97313,0.0012659
839.00876,0.0012332
838.04438,0.0012181
837.08000,0.0012305
836.11562,0.0012458
835.15124,0.0012532
834.18687,0.0012888
833.22249,0.0013478
832.25811,0.0014083
831.29373,0.0014628
830.32935,0.0015091
829.36498,0.0014980
828.40060,0.0014499
827.43622,0.0014188
826.47184,0.0013957
825.50747,0.0013961
824.54309,0.0013851
823.57871,0.0013398
822.61433,0.0012766
821.64995,0.0012119
820.68558,0.0011862
819.72120,0.0012014
818.75682,0.0012360
817.79244,0.0012297
816.82806,0.0012023
815.86369,0.0012284
814.89931,0.0012885
813.93493,0.0013484
812.97055,0.0013777
812.00618,0.0013814
811.04180,0.0013743
810.07742,0.0013693
809.11304,0.0013844
808.14866,0.0014063
807.18429,0.0014273
806.21991,0.0014037
805.25553,0.0013527
804.29115,0.0013303
803.32677,0.0013058
802.36240,0.0012698
801.39802,0.0012430
800.43364,0.0012440
799.46926,0.0012731
798.50488,0.0013028
797.54051,0.0013286
796.57613,0.0013601
795.61175,0.0013834
794.64737,0.0013887
793.68300,0.0013934
792.71862,0.0013784
791.75424,0.0013341
790.78986,0.0012864
789.82548,0.0012532
788.86111,0.0012504
787.89673,0.0012631
786.93235,0.0012834
785.96797,0.0013041
785.00359,0.0013118
784.03922,0.0012960
783.07484,0.0012681
782.11046,0.0012500
781.14608,0.0011924
780.18171,0.0011145
779.21733,0.0010651
778.25295,0.0010290
777.28857,0.0010161
776.32419,0.0010287
775.35982,0.0010917
774.39544,0.0011738
773.43106,0.0012177
772.46668,0.0012516
771.50230,0.0013018
770.53793,0.0013523
769.57355,0.0013495
768.60917,0.0013085
767.64479,0.0012667
766.68041,0.0012350
765.71604,0.0012262
764.75166,0.0012214
763.78728,0.0012568
762.82290,0.0012974
761.85853,0.0012765
760.89415,0.0012386
759.92977,0.0011868
758.96539,0.0010984
758.00101,0.0009934
757.03664,0.0009152
756.07226,0.0008907
755.10788,0.0009153
754.14350,0.0009683
753.17912,0.0010435
752.21475,0.0011424
751.25037,0.0012319
750.28599,0.0013207
749.32161,0.0014129
748.35724,0.0014808
747.39286,0.0015061
746.42848,0.0014788
745.46410,0.0014256
744.49972,0.0013544
743.53535,0.0012779
742.57097,0.0012018
741.60659,0.0011469
740.64221,0.0011484
739.67783,0.0012130
738.71346,0.0013486
737.74908,0.0014691
736.78470,0.0015435
735.82032,0.0015976
734.85594,0.0015842
733.89157,0.0015373
732.92719,0.0015146
731.96281,0.0015013
730.99843,0.0014394
730.03406,0.0013842
729.06968,0.0014214
728.10530,0.0014865
727.14092,0.0015238
726.17654,0.0015133
725.21217,0.0014933
724.24779,0.0014824
723.28341,0.0014478
722.31903,0.0014529
721.35465,0.0014965
720.39028,0.0015202
719.42590,0.0015267
718.46152,0.0015723
717.49714,0.0016864
716.53276,0.0017788
715.56839,0.0018111
714.60401,0.0018193
713.63963,0.0018039
712.67525,0.0017511
711.71088,0.0016932
710.74650,0.0016651
709.78212,0.0016199
708.81774,0.0015802
707.85336,0.0015795
706.88899,0.0015746
705.92461,0.0015675
704.96023,0.0015512
703.99585,0.0015452
703.03147,0.0015633
702.06710,0.0015503
701.10272,0.0015123
700.13834,0.0014995
699.17396,0.0015161
698.20959,0.0015190
697.24521,0.0015151
696.28083,0.0015139
695.31645,0.0014814
694.35207,0.0014475
693.38770,0.0014300
692.42332,0.0014295
691.45894,0.0014328
690.49456,0.0014052
689.53018,0.0013841
688.56581,0.0014045
687.60143,0.0014413
686.63705,0.0014522
685.67267,0.0014534
684.70829,0.0014745
683.74392,0.0014925
682.77954,0.0015053
681.81516,0.0015147
680.85078,0.0015199
679.88641,0.0015057
678.92203,0.0014665
677.95765,0.0014415
676.99327,0.0014292
676.02889,0.0014127
675.06452,0.0014056
674.10014,0.0014194
673.13576,0.0014182
672.17138,0.0013868
671.20700,0.0013632
670.24263,0.0013487
669.27825,0.0013271
668.31387,0.0013029
667.34949,0.0012979
666.38512,0.0013189
665.42074,0.0013302
664.45636,0.0013398
663.49198,0.0013962
662.52760,0.0014710
661.56323,0.0014858
660.59885,0.0014745
659.63447,0.0015017
658.67009,0.0015337
657.70571,0.0015251
656.74134,0.0014898
655.77696,0.0014704
654.81258,0.0014578
653.84820,0.0014175
652.88382,0.0013750
651.91945,0.0013606
650.95507,0.0013585
649.99069,0.0013389
649.02631,0.0013434
648.06194,0.0014069
647.09756,0.0014351
646.13318,0.0014180
645.16880,0.0014379
644.20442,0.0014681
643.24005,0.0014899
642.27567,0.0015192
641.31129,0.0015235
640.34691,0.0015047
639.38253,0.0015153
638.41816,0.0015603
637.45378,0.0016239
636.48940,0.0016756
635.52502,0.0016363
634.56065,0.0015728
633.59627,0.0015518
632.63189,0.0014786
631.66751,0.0014528
630.70313,0.0015164
629.73876,0.0016097
628.77438,0.0017765
627.81000,0.0018708
626.84562,0.0020161
625.88124,0.0021025
624.91687,0.0022218
623.95249,0.0022053
622.98811,0.0017937
622.02373,0.0016372
621.05935,0.0017301
620.09498,0.0018376
619.13060,0.0021328
618.16622,0.0028739
617.20184,0.0035485
616.23747,0.0033008
615.27309,0.0032563
614.30871,0.0036305
613.34433,0.0038952
612.37995,0.0038863
611.41558,0.0037467
610.45120,0.0037665
609.48682,0.0033098
608.52244,0.0025185
607.55806,0.0020508
606.59369,0.0019611
605.62931,0.0014951
604.66493,0.0005313
603.70055,0.0003868
602.73618,0.0007848
601.77180,0.0009996
600.80742,0.0012910
599.84304,0.0016776
598.87866,0.0017370
597.91429,0.0014001
596.94991,0.0011028
595.98553,0.0010044
595.02115,0.0010561
594.05677,0.0010743
593.09240,0.0010759
592.12802,0.0012396
591.16364,0.0014652
590.19926,0.0015709
589.23488,0.0015786
588.27051,0.0016343
587.30613,0.0016766
586.34175,0.0016107
585.37737,0.0015056
584.41300,0.0014943
583.44862,0.0015840
582.48424,0.0016110
581.51986,0.0016304
580.55548,0.0017105
579.59111,0.0017527
578.62673,0.0017036
577.66235,0.0015989
576.69797,0.0015189
575.73359,0.0013685
574.76922,0.0011552
573.80484,0.0010039
572.84046,0.0009061
571.87608,0.0008697
570.91171,0.0009239
569.94733,0.0011696
568.98295,0.0014764
568.01857,0.0016668
567.05419,0.0018406
566.08982,0.0019852
565.12544,0.0020569
564.16106,0.0019897
563.19668,0.0017672
562.23230,0.0015413
561.26793,0.0013591
560.30355,0.0012855
559.33917,0.0013876
558.37479,0.0015440
557.41041,0.0015431
556.44604,0.0014410
555.48166,0.0014341
554.51728,0.0014636
553.55290,0.0015026
552.58853,0.0014835
551.62415,0.0013532
550.65977,0.0013204
549.69539,0.0013643
548.73101,0.0013895
547.76664,0.0014122
546.80226,0.0013552
545.83788,0.0012590
544.87350,0.0012102
543.90912,0.0012403
542.94475,0.0013012
541.98037,0.0013476
541.01599,0.0013847
540.05161,0.0013512
539.08724,0.0013163
538.12286,0.0013073
537.15848,0.0012577
536.19410,0.0012120
535.22972,0.0011657
534.26535,0.0011189
533.30097,0.0011008
532.33659,0.0011242
531.37221,0.0011690
530.40783,0.0012052
529.44346,0.0012392
528.47908,0.0012176
527.51470,0.0011502
526.55032,0.0011005
525.58594,0.0010677
524.62157,0.0010414
523.65719,0.0010102
522.69281,0.0009905
521.72843,0.0010298
520.76406,0.0011020
519.79968,0.0011605
518.83530,0.0012809
517.87092,0.0014675
516.90654,0.0016065
515.94217,0.0016372
514.97779,0.0016070
514.01341,0.0016136
513.04903,0.0016413
512.08465,0.0016624
511.12028,0.0016522
510.15590,0.0015857
509.19152,0.0014902
508.22714,0.0014009
507.26276,0.0014072
506.29839,0.0014198
505.33401,0.0013024
504.36963,0.0011708
503.40525,0.0011405
502.44088,0.0012086
501.47650,0.0013340
500.51212,0.0014420
499.54774,0.0015002
498.58336,0.0015524
497.61899,0.0015484
496.65461,0.0014733
495.69023,0.0014046
494.72585,0.0013301
493.76147,0.0012859
492.79710,0.0013398
491.83272,0.0014451
490.86834,0.0014689
489.90396,0.0014244
488.93959,0.0013758
487.97521,0.0013368
487.01083,0.0013963
486.04645,0.0014374
485.08207,0.0014027
484.11770,0.0013817
483.15332,0.0013834
482.18894,0.0014752
481.22456,0.0015887
480.26018,0.0016238
479.29581,0.0015321
478.33143,0.0013791
477.36705,0.0013256
476.40267,0.0013528
475.43829,0.0014156
474.47392,0.0014432
473.50954,0.0014573
472.54516,0.0014904
471.58078,0.0014726
470.61641,0.0014794
469.65203,0.0015166
468.68765,0.0015410
467.72327,0.0015737
466.75889,0.0016342
465.79452,0.0016981
464.83014,0.0016598
463.86576,0.0015827
462.90138,0.0015710
461.93700,0.0016107
460.97263,0.0016672
460.00825,0.0016564
459.04387,0.0016393
458.07949,0.0016895
457.11512,0.0017429
456.15074,0.0018339
455.18636,0.0019203
454.22198,0.0018681
453.25760,0.0016728
452.29323,0.0014537
451.32885,0.0013055
450.36447,0.0011646
449.40009,0.0010523
448.43571,0.0010125
447.47134,0.0010407
446.50696,0.0011352
445.54258,0.0012168
444.57820,0.0013564
443.61382,0.0015152
442.64945,0.0015866
441.68507,0.0016379
440.72069,0.0016444
439.75631,0.0016201
438.79194,0.0015716
437.82756,0.0015153
436.86318,0.0015107
435.89880,0.0015328
434.93442,0.0015414
433.97005,0.0014901
433.00567,0.0014499
432.04129,0.0014270
431.07691,0.0014071
430.11253,0.0014392
429.14816,0.0014735
428.18378,0.0015388
427.21940,0.0015943
426.25502,0.0015639
425.29065,0.0015152
424.32627,0.0015472
423.36189,0.0016180
422.39751,0.0016080
421.43313,0.0015970
420.46876,0.0016068
419.50438,0.0015905
418.54000,0.0016048
417.57562,0.0016548
416.61124,0.0016809
415.64687,0.0015851
414.68249,0.0014324
413.71811,0.0013426
412.75373,0.0013001
411.78935,0.0012467
410.82498,0.0011849
409.86060,0.0011998
408.89622,0.0012472
407.93184,0.0012743
406.96747,0.0013272
406.00309,0.0014045
405.03871,0.0014760
404.07433,0.0014760
403.10995,0.0014760
402.14558,0.0014760
401.18120,0.0014760
400.21682,0.0014760
399.25244,0.0014760
