3998.31069,-0.0037429
3997.34631,-0.0037429
3996.38194,-0.0037429
3995.41756,-0.0037429
3994.45318,-0.0037429
3993.48880,-0.0037429
3992.52442,-0.0037429
3991.56005,-0.0037747
3990.59567,-0.0037660
3989.63129,-0.0037570
3988.66691,-0.0037732
3987.70253,-0.0038827
3986.73816,-0.0039733
3985.77378,-0.0039654
3984.80940,-0.0039454
3983.84502,-0.0039486
3982.88065,-0.0039704
3981.91627,-0.0039170
3980.95189,-0.0038534
3979.98751,-0.0037969
3979.02313,-0.0036998
3978.05876,-0.0036779
3977.09438,-0.0037292
3976.13000,-0.0037943
3975.16562,-0.0037942
3974.20124,-0.0037381
3973.23687,-0.0037024
3972.27249,-0.0036668
3971.30811,-0.0036584
3970.34373,-0.0036716
3969.37935,-0.0036778
3968.41498,-0.0036731
3967.45060,-0.0036951
3966.48622,-0.0037498
3965.52184,-0.0037457
3964.55747,-0.0037172
3963.59309,-0.0036929
3962.62871,-0.0036415
3961.66433,-0.0036093
3960.69995,-0.0036172
3959.73558,-0.0036614
3958.77120,-0.0036949
3957.80682,-0.0036894
3956.84244,-0.0037096
3955.87806,-0.0037643
3954.91369,-0.0037792
3953.94931,-0.0037375
3952.98493,-0.0037072
3952.02055,-0.0037215
3951.05618,-0.0037498
3950.09180,-0.0037694
3949.12742,-0.0037868
3948.16304,-0.0038083
3947.19866,-0.0038314
3946.23429,-0.0038378
3945.26991,-0.0038115
3944.30553,-0.0037862
3943.34115,-0.0037648
3942.37677,-0.0037256
3941.41240,-0.0037097
3940.44802,-0.0037357
3939.48364,-0.0037522
3938.51926,-0.0037440
3937.55488,-0.0037540
3936.59051,-0.0037629
3935.62613,-0.0037306
3934.66175,-0.0036347
3933.69737,-0.0035026
3932.73300,-0.0034654
3931.76862,-0.0035257
3930.80424,-0.0035823
3929.83986,-0.0036118
3928.87548,-0.0036186
3927.91111,-0.0036033
3926.94673,-0.0035761
3925.98235,-0.0035671
3925.01797,-0.0035145
3924.05359,-0.0034040
3923.08922,-0.0033257
3922.12484,-0.0032667
3921.16046,-0.0032177
3920.19608,-0.0031855
3919.23171,-0.0031731
3918.26733,-0.0032107
3917.30295,-0.0032726
3916.33857,-0.0032940
3915.37419,-0.0032885
3914.40982,-0.0033151
3913.44544,-0.0033110
3912.48106,-0.0033294
3911.51668,-0.0034508
3910.55230,-0.0035315
3909.58793,-0.0035297
3908.62355,-0.0034926
3907.65917,-0.0034429
3906.69479,-0.0033821
3905.73041,-0.0032860
3904.76604,-0.0031810
3903.80166,-0.0030761
3902.83728,-0.0029760
3901.87290,-0.0028986
3900.90853,-0.0029336
3899.94415,-0.0030635
3898.97977,-0.0031301
3898.01539,-0.0031722
3897.05101,-0.0032019
3896.08664,-0.0031577
3895.12226,-0.0031020
3894.15788,-0.0030892
3893.19350,-0.0031236
3892.22912,-0.0031313
3891.26475,-0.0030731
3890.30037,-0.0029976
3889.33599,-0.0029646
3888.37161,-0.0029375
3887.40724,-0.0028723
3886.44286,-0.0028888
3885.47848,-0.0029291
3884.51410,-0.0029151
3883.54972,-0.0029726
3882.58535,-0.0030935
3881.62097,-0.0032161
3880.65659,-0.0032796
3879.69221,-0.0032638
3878.72783,-0.0032290
3877.76346,-0.0032078
3876.79908,-0.0032262
3875.83470,-0.0032469
3874.87032,-0.0032190
3873.90594,-0.0031255
3872.94157,-0.0030283
3871.97719,-0.0029862
3871.01281,-0.0029622
3870.04843,-0.0029324
3869.08406,-0.0028685
3868.11968,-0.0028189
3867.15530,-0.0028261
3866.19092,-0.0029045
3865.22654,-0.0030741
3864.26217,-0.0031983
3863.29779,-0.0032155
3862.33341,-0.0032231
3861.36903,-0.0032587
3860.40465,-0.0032974
3859.44028,-0.0033097
3858.47590,-0.0032354
3857.51152,-0.0030454
3856.54714,-0.0028030
3855.58276,-0.0025725
3854.61839,-0.0024910
3853.65401,-0.0025339
3852.68963,-0.0025532
3851.72525,-0.0025978
3850.76088,-0.0026988
3849.79650,-0.0028442
3848.83212,-0.0029964
3847.86774,-0.0031139
3846.90336,-0.0031976
3845.93899,-0.0031886
3844.97461,-0.0030871
3844.01023,-0.0030102
3843.04585,-0.0030151
3842.08147,-0.0029662
3841.11710,-0.0028369
3840.15272,-0.0027150
3839.18834,-0.0026174
3838.22396,-0.0025853
3837.25959,-0.0025725
3836.29521,-0.0025994
3835.33083,-0.0027038
3834.36645,-0.0027813
3833.40207,-0.0028355
3832.43770,-0.0029147
3831.47332,-0.0029610
3830.50894,-0.0029552
3829.54456,-0.0029365
3828.58018,-0.0028720
3827.61581,-0.0028217
3826.65143,-0.0028276
3825.68705,-0.0027942
3824.72267,-0.0027436
3823.75829,-0.0026644
3822.79392,-0.0025673
3821.82954,-0.0025323
3820.86516,-0.0025192
3819.90078,-0.0025122
3818.93641,-0.0025752
3817.97203,-0.0026874
3817.00765,-0.0027408
3816.04327,-0.0027843
3815.07889,-0.0028662
3814.11452,-0.0029106
3813.15014,-0.0028939
3812.18576,-0.0028171
3811.22138,-0.0027229
3810.25700,-0.0026324
3809.29263,-0.0025535
3808.32825,-0.0025322
3807.36387,-0.0026069
3806.39949,-0.0026968
3805.43512,-0.0026841
3804.47074,-0.0026633
3803.50636,-0.0026704
3802.54198,-0.0026831
3801.57760,-0.0027096
3800.61323,-0.0026444
3799.64885,-0.0025384
3798.68447,-0.0025340
3797.72009,-0.0026283
3796.75571,-0.0027250
3795.79134,-0.0027684
3794.82696,-0.0027633
3793.86258,-0.0027389
3792.89820,-0.0027634
3791.93382,-0.0027944
3790.96945,-0.0028143
3790.00507,-0.0028297
3789.04069,-0.0027459
3788.07631,-0.0026787
3787.11194,-0.0027059
3786.14756,-0.0027109
3785.18318,-0.0027108
3784.21880,-0.0027443
3783.25442,-0.0027714
3782.29005,-0.0027539
3781.32567,-0.0027574
3780.36129,-0.0028031
3779.39691,-0.0027785
3778.43253,-0.0027230
3777.46816,-0.0026823
3776.50378,-0.0026268
3775.53940,-0.0026023
3774.57502,-0.0026313
3773.61065,-0.0027085
3772.64627,-0.0028122
3771.68189,-0.0028899
3770.71751,-0.0028971
3769.75313,-0.0029032
3768.78876,-0.0029414
3767.82438,-0.0029107
3766.86000,-0.0028443
3765.89562,-0.0027985
3764.93124,-0.0027537
3763.96687,-0.0027306
3763.00249,-0.0027164
3762.03811,-0.0026497
3761.07373,-0.0025408
3760.10935,-0.0024379
3759.14498,-0.0023213
3758.18060,-0.0022260
3757.21622,-0.0021636
3756.25184,-0.0020928
3755.28747,-0.0019967
3754.32309,-0.0018709
3753.35871,-0.0017798
3752.39433,-0.0017258
3751.42995,-0.0017315
3750.46558,-0.0017649
3749.50120,-0.0016707
3748.53682,-0.0015474
3747.57244,-0.0015630
3746.60806,-0.0016924
3745.64369,-0.0018347
3744.67931,-0.0019900
3743.71493,-0.0020884
3742.75055,-0.0020704
3741.78618,-0.0020480
3740.82180,-0.0020323
3739.85742,-0.0020347
3738.89304,-0.0020178
3737.92866,-0.0018781
3736.96429,-0.0017608
3735.99991,-0.0017868
3735.03553,-0.0018570
3734.07115,-0.0019197
3733.10677,-0.0020402
3732.14240,-0.0021491
3731.17802,-0.0022131
3730.21364,-0.0022640
3729.24926,-0.0023058
3728.28488,-0.0023784
3727.32051,-0.0024152
3726.35613,-0.0024281
3725.39175,-0.0024287
3724.42737,-0.0023392
3723.46300,-0.0022137
3722.49862,-0.0021661
3721.53424,-0.0022262
3720.56986,-0.0023029
3719.60548,-0.0023638
3718.64111,-0.0024095
3717.67673,-0.0024624
3716.71235,-0.0024741
3715.74797,-0.0023644
3714.78359,-0.0022913
3713.81922,-0.0022362
3712.85484,-0.0021185
3711.89046,-0.0020250
3710.92608,-0.0019500
3709.96171,-0.0018876
3708.99733,-0.0018406
3708.03295,-0.0018444
3707.06857,-0.0018554
3706.10419,-0.0018131
3705.13982,-0.0017464
3704.17544,-0.0016621
3703.21106,-0.0016485
3702.24668,-0.0017137
3701.28230,-0.0017577
3700.31793,-0.0017562
3699.35355,-0.0017447
3698.38917,-0.0017496
3697.42479,-0.0017921
3696.46041,-0.0018730
3695.49604,-0.0019245
3694.53166,-0.0019736
3693.56728,-0.0019803
3692.60290,-0.0018796
3691.63853,-0.0018223
3690.67415,-0.0018474
3689.70977,-0.0018396
3688.74539,-0.0018022
3687.78101,-0.0017911
3686.81664,-0.0018175
3685.85226,-0.0018879
3684.88788,-0.0019768
3683.92350,-0.0020752
3682.95912,-0.0021794
3681.99475,-0.0021816
3681.03037,-0.0020950
3680.06599,-0.0020337
3679.10161,-0.0020079
3678.13724,-0.0020022
3677.17286,-0.0019958
3676.20848,-0.0019384
3675.24410,-0.0018337
3674.27972,-0.0017264
3673.31535,-0.0016196
3672.35097,-0.0015146
3671.38659,-0.0014597
3670.42221,-0.0014464
3669.45783,-0.0014033
3668.49346,-0.0014005
3667.52908,-0.0014983
3666.56470,-0.0016132
3665.60032,-0.0017020
3664.63594,-0.0016933
3663.67157,-0.0016426
3662.70719,-0.0016889
3661.74281,-0.0017719
3660.77843,-0.0018224
3659.81406,-0.0018040
3658.84968,-0.0016973
3657.88530,-0.0015537
3656.92092,-0.0014415
3655.95654,-0.0013657
3654.99217,-0.0012735
3654.02779,-0.0011549
3653.06341,-0.0009998
3652.09903,-0.0008805
3651.13465,-0.0008634
3650.17028,-0.0008806
3649.20590,-0.0008575
3648.24152,-0.0007502
3647.27714,-0.0006211
3646.31276,-0.0005383
3645.34839,-0.0005082
3644.38401,-0.0005381
3643.41963,-0.0005518
3642.45525,-0.0004832
3641.49088,-0.0003966
3640.52650,-0.0003453
3639.56212,-0.0003077
3638.59774,-0.0002938
3637.63336,-0.0003063
3636.66899,-0.0003369
3635.70461,-0.0003521
3634.74023,-0.0003020
3633.77585,-0.0002248
3632.81147,-0.0001487
3631.84710,-0.0000551
3630.88272,0.0000715
3629.91834,0.0001714
3628.95396,0.0002304
3627.98959,0.0002799
3627.02521,0.0002628
3626.06083,0.0001839
3625.09645,0.0001057
3624.13207,0.0001178
3623.16770,0.0001607
3622.20332,0.0001494
3621.23894,0.0001781
3620.27456,0.0002257
3619.31018,0.0002737
3618.34581,0.0003169
3617.38143,0.0003602
3616.41705,0.0003895
3615.45267,0.0002996
3614.48829,0.0002163
3613.52392,0.0002813
3612.55954,0.0004341
3611.59516,0.0005338
3610.63078,0.0005938
3609.66641,0.0007034
3608.70203,0.0007706
3607.73765,0.0007775
3606.77327,0.0007534
3605.80889,0.0007596
3604.84452,0.0007609
3603.88014,0.0006755
3602.91576,0.0007049
3601.95138,0.0008728
3600.98700,0.0010116
3600.02263,0.0010973
3599.05825,0.0011856
3598.09387,0.0012687
3597.12949,0.0012923
3596.16512,0.0012992
3595.20074,0.0012575
3594.23636,0.0011785
3593.27198,0.0011222
3592.30760,0.0011095
3591.34323,0.0011948
3590.37885,0.0012626
3589.41447,0.0012337
3588.45009,0.0011864
3587.48571,0.0011945
3586.52134,0.0012395
3585.55696,0.0012596
3584.59258,0.0012556
3583.62820,0.0011719
3582.66382,0.0010409
3581.69945,0.0009826
3580.73507,0.0010236
3579.77069,0.0011080
3578.80631,0.0011294
3577.84194,0.0010706
3576.87756,0.0009880
3575.91318,0.0009732
3574.94880,0.0010433
3573.98442,0.0011263
3573.02005,0.0011827
3572.05567,0.0012254
3571.09129,0.0013242
3570.12691,0.0014269
3569.16253,0.0015017
3568.19816,0.0015893
3567.23378,0.0016129
3566.26940,0.0015679
3565.30502,0.0015404
3564.34065,0.0016114
3563.37627,0.0017498
3562.41189,0.0018360
3561.44751,0.0018482
3560.48313,0.0018361
3559.51876,0.0018294
3558.55438,0.0017457
3557.59000,0.0015950
3556.62562,0.0015086
3555.66124,0.0014664
3554.69687,0.0014225
3553.73249,0.0014099
3552.76811,0.0014498
3551.80373,0.0015245
3550.83935,0.0016077
3549.87498,0.0016807
3548.91060,0.0017437
3547.94622,0.0018095
3546.98184,0.0018542
3546.01747,0.0018703
3545.05309,0.0018921
3544.08871,0.0019208
3543.12433,0.0019017
3542.15995,0.0018634
3541.19558,0.0018703
3540.23120,0.0018902
3539.26682,0.0019021
3538.30244,0.0018808
3537.33806,0.0018730
3536.37369,0.0019372
3535.40931,0.0020004
3534.44493,0.0020393
3533.48055,0.0020629
3532.51618,0.0020905
3531.55180,0.0021269
3530.58742,0.0021593
3529.62304,0.0022103
3528.65866,0.0022283
3527.69429,0.0022076
3526.72991,0.0021799
3525.76553,0.0021588
3524.80115,0.0021849
3523.83677,0.0022029
3522.87240,0.0021816
3521.90802,0.0021740
3520.94364,0.0021954
3519.97926,0.0022420
3519.01488,0.0023091
3518.05051,0.0023922
3517.08613,0.0024804
3516.12175,0.0025545
3515.15737,0.0025889
3514.19300,0.0025895
3513.22862,0.0026213
3512.26424,0.0026496
3511.29986,0.0026026
3510.33548,0.0025687
3509.37111,0.0025967
3508.40673,0.0026368
3507.44235,0.0026647
3506.47797,0.0026679
3505.51359,0.0026814
3504.54922,0.0027091
3503.58484,0.0027354
3502.62046,0.0027794
3501.65608,0.0028518
3500.69171,0.0029403
3499.72733,0.0029929
3498.76295,0.0030287
3497.79857,0.0030773
3496.83419,0.0031207
3495.86982,0.0031553
3494.90544,0.0031459
3493.94106,0.0031160
3492.97668,0.0031230
3492.01230,0.0031502
3491.04793,0.0031442
3490.08355,0.0031310
3489.11917,0.0031719
3488.15479,0.0031836
3487.19041,0.0031359
3486.22604,0.0031348
3485.26166,0.0031931
3484.29728,0.0032520
3483.33290,0.0032777
3482.36853,0.0032950
3481.40415,0.0033576
3480.43977,0.0034123
3479.47539,0.0033995
3478.51101,0.0033926
3477.54664,0.0034157
3476.58226,0.0034326
3475.61788,0.0034616
3474.65350,0.0035053
3473.68912,0.0035305
3472.72475,0.0035339
3471.76037,0.0035582
3470.79599,0.0036195
3469.83161,0.0037106
3468.86724,0.0037788
3467.90286,0.0037968
3466.93848,0.0038047
3465.97410,0.0037872
3465.00972,0.0037827
3464.04535,0.0038176
3463.08097,0.0038477
3462.11659,0.0038517
3461.15221,0.0038466
3460.18783,0.0039005
3459.22346,0.0039784
3458.25908,0.0040613
3457.29470,0.0041566
3456.33032,0.0041979
3455.36594,0.0041739
3454.40157,0.0041005
3453.43719,0.0040650
3452.47281,0.0040981
3451.50843,0.0041447
3450.54406,0.0041775
3449.57968,0.0041834
3448.61530,0.0042106
3447.65092,0.0042595
3446.68654,0.0043128
3445.72217,0.0043478
3444.75779,0.0043607
3443.79341,0.0043739
3442.82903,0.0043526
3441.86465,0.0043529
3440.90028,0.0044043
3439.93590,0.0044843
3438.97152,0.0045629
3438.00714,0.0045660
3437.04276,0.0045524
3436.07839,0.0045604
3435.11401,0.0045347
3434.14963,0.0045127
3433.18525,0.0045377
3432.22088,0.0045257
3431.25650,0.0044520
3430.29212,0.0044151
3429.32774,0.0044149
3428.36336,0.0044109
3427.39899,0.0043839
3426.43461,0.0043572
3425.47023,0.0043831
3424.50585,0.0043871
3423.54147,0.0043360
3422.57710,0.0043112
3421.61272,0.0043089
3420.64834,0.0042891
3419.68396,0.0042840
3418.71959,0.0043262
3417.75521,0.0044067
3416.79083,0.0045086
3415.82645,0.0046403
3414.86207,0.0048014
3413.89770,0.0049080
3412.93332,0.0049116
3411.96894,0.0048767
3411.00456,0.0048580
3410.04018,0.0048519
3409.07581,0.0048445
3408.11143,0.0048465
3407.14705,0.0048740
3406.18267,0.0049124
3405.21829,0.0049546
3404.25392,0.0050281
3403.28954,0.0050788
3402.32516,0.0050530
3401.36078,0.0050073
3400.39641,0.0049475
3399.43203,0.0048659
3398.46765,0.0048154
3397.50327,0.0048146
3396.53889,0.0048480
3395.57452,0.0049039
3394.61014,0.0049572
3393.64576,0.0050056
3392.68138,0.0050865
3391.71700,0.0051629
3390.75263,0.0051820
3389.78825,0.0051414
3388.82387,0.0050484
3387.85949,0.0049464
3386.89512,0.0048843
3385.93074,0.0048866
3384.96636,0.0049377
3384.00198,0.0050106
3383.03760,0.0050578
3382.07323,0.0050718
3381.10885,0.0051269
3380.14447,0.0052034
3379.18009,0.0052295
3378.21571,0.0051876
3377.25134,0.0051125
3376.28696,0.0050684
3375.32258,0.0050827
3374.35820,0.0051473
3373.39382,0.0052209
3372.42945,0.0052735
3371.46507,0.0052966
3370.50069,0.0053178
3369.53631,0.0053474
3368.57194,0.0053527
3367.60756,0.0053532
3366.64318,0.0053286
3365.67880,0.0052730
3364.71442,0.0052459
3363.75005,0.0052475
3362.78567,0.0052573
3361.82129,0.0052585
3360.85691,0.0052426
3359.89253,0.0052244
3358.92816,0.0052341
3357.96378,0.0052451
3356.99940,0.0052258
3356.03502,0.0052235
3355.07065,0.0052081
3354.10627,0.0051478
3353.14189,0.0051113
3352.17751,0.0051379
3351.21313,0.0051859
3350.24876,0.0052054
3349.28438,0.0052176
3348.32000,0.0052380
3347.35562,0.0052589
3346.39124,0.0052479
3345.42687,0.0051883
3344.46249,0.0051561
3343.49811,0.0051471
3342.53373,0.0051336
3341.56935,0.0051620
3340.60498,0.0052162
3339.64060,0.0052494
3338.67622,0.0052462
3337.71184,0.0052352
3336.74747,0.0052284
3335.78309,0.0052061
3334.81871,0.0051717
3333.85433,0.0051465
3332.88995,0.0051568
3331.92558,0.0051639
3330.96120,0.0051586
3329.99682,0.0051665
3329.03244,0.0051788
3328.06806,0.0052081
3327.10369,0.0052103
3326.13931,0.0052078
3325.17493,0.0052490
3324.21055,0.0052625
3323.24618,0.0052417
3322.28180,0.0052218
3321.31742,0.0052119
3320.35304,0.0052014
3319.38866,0.0051825
3318.42429,0.0051631
3317.45991,0.0051234
3316.49553,0.0050735
3315.53115,0.0050420
3314.56677,0.0050583
3313.60240,0.0050924
3312.63802,0.0050891
3311.67364,0.0050766
3310.70926,0.0050510
3309.74488,0.0050001
3308.78051,0.0049590
3307.81613,0.0049476
3306.85175,0.0049569
3305.88737,0.0049546
3304.92300,0.0049513
3303.95862,0.0050017
3302.99424,0.0050942
3302.02986,0.0051585
3301.06548,0.0051890
3300.10111,0.0051791
3299.13673,0.0051137
3298.17235,0.0050423
3297.20797,0.0049886
3296.24359,0.0049787
3295.27922,0.0050133
3294.31484,0.0050344
3293.35046,0.0050375
3292.38608,0.0050330
3291.42171,0.0049985
3290.45733,0.0049385
3289.49295,0.0049024
3288.52857,0.0048842
3287.56419,0.0048456
3286.59982,0.0047948
3285.63544,0.0047371
3284.67106,0.0047213
3283.70668,0.0047665
3282.74230,0.0048105
3281.77793,0.0048264
3280.81355,0.0047971
3279.84917,0.0047641
3278.88479,0.0047794
3277.92041,0.0047937
3276.95604,0.0047714
3275.99166,0.0047160
3275.02728,0.0046729
3274.06290,0.0046753
3273.09853,0.0047020
3272.13415,0.0047629
3271.16977,0.0048401
3270.20539,0.0049105
3269.24101,0.0049851
3268.27664,0.0050652
3267.31226,0.0051122
3266.34788,0.0050752
3265.38350,0.0050159
3264.41912,0.0049757
3263.45475,0.0049161
3262.49037,0.0048426
3261.52599,0.0047831
3260.56161,0.0047634
3259.59724,0.0047512
3258.63286,0.0047210
3257.66848,0.0047046
3256.70410,0.0047124
3255.73972,0.0047282
3254.77535,0.0047297
3253.81097,0.0047336
3252.84659,0.0047433
3251.88221,0.0047293
3250.91783,0.0047101
3249.95346,0.0047087
3248.98908,0.0046851
3248.02470,0.0046176
3247.06032,0.0045446
3246.09594,0.0044931
3245.13157,0.0044836
3244.16719,0.0044848
3243.20281,0.0044725
3242.23843,0.0044965
3241.27406,0.0045545
3240.30968,0.0046069
3239.34530,0.0046359
3238.38092,0.0046799
3237.41654,0.0047529
3236.45217,0.0047881
3235.48779,0.0047538
3234.52341,0.0046631
3233.55903,0.0045795
3232.59465,0.0045214
3231.63028,0.0044575
3230.66590,0.0044155
3229.70152,0.0044022
3228.73714,0.0043911
3227.77276,0.0043829
3226.80839,0.0044237
3225.84401,0.0044704
3224.87963,0.0044414
3223.91525,0.0043823
3222.95088,0.0043412
3221.98650,0.0043542
3221.02212,0.0044166
3220.05774,0.0044841
3219.09336,0.0045574
3218.12899,0.0046069
3217.16461,0.0046208
3216.20023,0.0046266
3215.23585,0.0046187
3214.27147,0.0045508
3213.30710,0.0044408
3212.34272,0.0043598
3211.37834,0.0042804
3210.41396,0.0042054
3209.44959,0.0041764
3208.48521,0.0041780
3207.52083,0.0041812
3206.55645,0.0041671
3205.59207,0.0041809
3204.62770,0.0042186
3203.66332,0.0042407
3202.69894,0.0042438
3201.73456,0.0042340
3200.77018,0.0042641
3199.80581,0.0043099
3198.84143,0.0043587
3197.87705,0.0044161
3196.91267,0.0044123
3195.94829,0.0043639
3194.98392,0.0042901
3194.01954,0.0042149
3193.05516,0.0041657
3192.09078,0.0041132
3191.12641,0.0040625
3190.16203,0.0040170
3189.19765,0.0040148
3188.23327,0.0040598
3187.26889,0.0041078
3186.30452,0.0041117
3185.34014,0.0040498
3184.37576,0.0039972
3183.41138,0.0039583
3182.44700,0.0039260
3181.48263,0.0039092
3180.51825,0.0038830
3179.55387,0.0038401
3178.58949,0.0037669
3177.62512,0.0037238
3176.66074,0.0037134
3175.69636,0.0037127
3174.73198,0.0037273
3173.76760,0.0037481
3172.80323,0.0038033
3171.83885,0.0038326
3170.87447,0.0038351
3169.91009,0.0038492
3168.94571,0.0038681
3167.98134,0.0038860
3167.01696,0.0038857
3166.05258,0.0039297
3165.08820,0.0039693
3164.12382,0.0039761
3163.15945,0.0039987
3162.19507,0.0040165
3161.23069,0.0040451
3160.26631,0.0040545
3159.30194,0.0040372
3158.33756,0.0039805
3157.37318,0.0039114
3156.40880,0.0038718
3155.44442,0.0038089
3154.48005,0.0037437
3153.51567,0.0036478
3152.55129,0.0035606
3151.58691,0.0035652
3150.62253,0.0036142
3149.65816,0.0036851
3148.69378,0.0037439
3147.72940,0.0037903
3146.76502,0.0038448
3145.80065,0.0039167
3144.83627,0.0039671
3143.87189,0.0039473
3142.90751,0.0038992
3141.94313,0.0038267
3140.97876,0.0037705
3140.01438,0.0037569
3139.05000,0.0037617
3138.08562,0.0037724
3137.12124,0.0037617
3136.15687,0.0037522
3135.19249,0.0037415
3134.22811,0.0037199
3133.26373,0.0036628
3132.29935,0.0035808
3131.33498,0.0035335
3130.37060,0.0035008
3129.40622,0.0034751
3128.44184,0.0034615
3127.47747,0.0034938
3126.51309,0.0035582
3125.54871,0.0035717
3124.58433,0.0035488
3123.61995,0.0035536
3122.65558,0.0035850
3121.69120,0.0035649
3120.72682,0.0035275
3119.76244,0.0035169
3118.79806,0.0034757
3117.83369,0.0034089
3116.86931,0.0033486
3115.90493,0.0033583
3114.94055,0.0034084
3113.97618,0.0034171
3113.01180,0.0034035
3112.04742,0.0033957
3111.08304,0.0033933
3110.11866,0.0033605
3109.15429,0.0033412
3108.18991,0.0033548
3107.22553,0.0033491
3106.26115,0.0033503
3105.29677,0.0033722
3104.33240,0.0034013
3103.36802,0.0034016
3102.40364,0.0033591
3101.43926,0.0032840
3100.47488,0.0032057
3099.51051,0.0031828
3098.54613,0.0031997
3097.58175,0.0032503
3096.61737,0.0033200
3095.65300,0.0033766
3094.68862,0.0034299
3093.72424,0.0034566
3092.75986,0.0034396
3091.79548,0.0033994
3090.83111,0.0033704
3089.86673,0.0033552
3088.90235,0.0033422
3087.93797,0.0033276
3086.97359,0.0033237
3086.00922,0.0033404
3085.04484,0.0033316
3084.08046,0.0033010
3083.11608,0.0032740
3082.15171,0.0032467
3081.18733,0.0032325
3080.22295,0.0032428
3079.25857,0.0032743
3078.29419,0.0032803
3077.32982,0.0032513
3076.36544,0.0032186
3075.40106,0.0032105
3074.43668,0.0032169
3073.47230,0.0032179
3072.50793,0.0032542
3071.54355,0.0032989
3070.57917,0.0033225
3069.61479,0.0033345
3068.65041,0.0033448
3067.68604,0.0033572
3066.72166,0.0033073
3065.75728,0.0032239
3064.79290,0.0031644
3063.82853,0.0031299
3062.86415,0.0031507
3061.89977,0.0032022
3060.93539,0.0032288
3059.97101,0.0032322
3059.00664,0.0032451
3058.04226,0.0032584
3057.07788,0.0032897
3056.11350,0.0033298
3055.14912,0.0032960
3054.18475,0.0032118
3053.22037,0.0031200
3052.25599,0.0030415
3051.29161,0.0030120
3050.32724,0.0029809
3049.36286,0.0029087
3048.39848,0.0028517
3047.43410,0.0028292
3046.46972,0.0028207
3045.50535,0.0028489
3044.54097,0.0028774
3043.57659,0.0028503
3042.61221,0.0027865
3041.64783,0.0027370
3040.68346,0.0027447
3039.71908,0.0027975
3038.75470,0.0028724
3037.79032,0.0029339
3036.82594,0.0029650
3035.86157,0.0029809
3034.89719,0.0029924
3033.93281,0.0030124
3032.96843,0.0030047
3032.00406,0.0029741
3031.03968,0.0029350
3030.07530,0.0028755
3029.11092,0.0028386
3028.14654,0.0028292
3027.18217,0.0028436
3026.21779,0.0028894
3025.25341,0.0029366
3024.28903,0.0029497
3023.32465,0.0029271
3022.36028,0.0028933
3021.39590,0.0028612
3020.43152,0.0028600
3019.46714,0.0028526
3018.50276,0.0027991
3017.53839,0.0027577
3016.57401,0.0027308
3015.60963,0.0027294
3014.64525,0.0027885
3013.68088,0.0028433
3012.71650,0.0028475
3011.75212,0.0028267
3010.78774,0.0028225
3009.82336,0.0028447
3008.85899,0.0028639
3007.89461,0.0028614
3006.93023,0.0028180
3005.96585,0.0027591
3005.00147,0.0027323
3004.03710,0.0027355
3003.07272,0.0027628
3002.10834,0.0027986
3001.14396,0.0028338
3000.17959,0.0028708
2999.21521,0.0028979
2998.25083,0.0028886
2997.28645,0.0028350
2996.32207,0.0027815
2995.35770,0.0027398
2994.39332,0.0027176
2993.42894,0.0027232
2992.46456,0.0027433
2991.50018,0.0027935
2990.53581,0.0028501
2989.57143,0.0028905
2988.60705,0.0029184
2987.64267,0.0029139
2986.67829,0.0028585
2985.71392,0.0027721
2984.74954,0.0027041
2983.78516,0.0026874
2982.82078,0.0027158
2981.85641,0.0027262
2980.89203,0.0027166
2979.92765,0.0027333
2978.96327,0.0027824
2977.99889,0.0028607
2977.03452,0.0029302
2976.07014,0.0029714
2975.10576,0.0029774
2974.14138,0.0029716
2973.17700,0.0029921
2972.21263,0.0030375
2971.24825,0.0030811
2970.28387,0.0030626
2969.31949,0.0030372
2968.35512,0.0030601
2967.39074,0.0030853
2966.42636,0.0030922
2965.46198,0.0030788
2964.49760,0.0030836
2963.53323,0.0030964
2962.56885,0.0031021
2961.60447,0.0031157
2960.64009,0.0031385
2959.67571,0.0031744
2958.71134,0.0031904
2957.74696,0.0032119
2956.78258,0.0032359
2955.81820,0.0032272
2954.85382,0.0032074
2953.88945,0.0031905
2952.92507,0.0031850
2951.96069,0.0031678
2950.99631,0.0031457
2950.03194,0.0031338
2949.06756,0.0031612
2948.10318,0.0032325
2947.13880,0.0032636
2946.17442,0.0032710
2945.21005,0.0033053
2944.24567,0.0033576
2943.28129,0.0034100
2942.31691,0.0034562
2941.35253,0.0034913
2940.38816,0.0035064
2939.42378,0.0035445
2938.45940,0.0036022
2937.49502,0.0036673
2936.53065,0.0037268
2935.56627,0.0037429
2934.60189,0.0037580
2933.63751,0.0037977
2932.67313,0.0038530
2931.70876,0.0038945
2930.74438,0.0039134
2929.78000,0.0039364
2928.81562,0.0039622
2927.85124,0.0040119
2926.88687,0.0040637
2925.92249,0.0040837
2924.95811,0.0040892
2923.99373,0.0041048
2923.02935,0.0041299
2922.06498,0.0041375
2921.10060,0.0041453
2920.13622,0.0041264
2919.17184,0.0040551
2918.20747,0.0039831
2917.24309,0.0039257
2916.27871,0.0038703
2915.31433,0.0038051
2914.34995,0.0037401
2913.38558,0.0036776
2912.42120,0.0036160
2911.45682,0.0035588
2910.49244,0.0034951
2909.52806,0.0034445
2908.56369,0.0033932
2907.59931,0.0033346
2906.63493,0.0032889
2905.67055,0.0032514
2904.70618,0.0032373
2903.74180,0.0032408
2902.77742,0.0032506
2901.81304,0.0032418
2900.84866,0.0032040
2899.88429,0.0031696
2898.91991,0.0031341
2897.95553,0.0031079
2896.99115,0.0030977
2896.02677,0.0030758
2895.06240,0.0030413
2894.09802,0.0030315
2893.13364,0.0030574
2892.16926,0.0030702
2891.20488,0.0030717
2890.24051,0.0030804
2889.27613,0.0030794
2888.31175,0.0030635
2887.34737,0.0030353
2886.38300,0.0030153
2885.41862,0.0029911
2884.45424,0.0029562
2883.48986,0.0029381
2882.52548,0.0029273
2881.56111,0.0029016
2880.59673,0.0028686
2879.63235,0.0028722
2878.66797,0.0028972
2877.70359,0.0028901
2876.73922,0.0028695
2875.77484,0.0028620
2874.81046,0.0028618
2873.84608,0.0028628
2872.88171,0.0028787
2871.91733,0.0028955
2870.95295,0.0028854
2869.98857,0.0028792
2869.02419,0.0029063
2868.05982,0.0029657
2867.09544,0.0030177
2866.13106,0.0030401
2865.16668,0.0030702
2864.20230,0.0031105
2863.23793,0.0031583
2862.27355,0.0032070
2861.30917,0.0032419
2860.34479,0.0032700
2859.38041,0.0032819
2858.41604,0.0033171
2857.45166,0.0033886
2856.48728,0.0034369
2855.52290,0.0034572
2854.55853,0.0034813
2853.59415,0.0035200
2852.62977,0.0035378
2851.66539,0.0035099
2850.70101,0.0034450
2849.73664,0.0033643
2848.77226,0.0032897
2847.80788,0.0032035
2846.84350,0.0031244
2845.87912,0.0030519
2844.91475,0.0029618
2843.95037,0.0028992
2842.98599,0.0028748
2842.02161,0.0028628
2841.05724,0.0028315
2840.09286,0.0027783
2839.12848,0.0027307
2838.16410,0.0026879
2837.19972,0.0026574
2836.23535,0.0026291
2835.27097,0.0025994
2834.30659,0.0025874
2833.34221,0.0025987
2832.37783,0.0026191
2831.41346,0.0026237
2830.44908,0.0026290
2829.48470,0.0026443
2828.52032,0.0026617
2827.55594,0.0026739
2826.59157,0.0026652
2825.62719,0.0026438
2824.66281,0.0026159
2823.69843,0.0025855
2822.73406,0.0025616
2821.76968,0.0025417
2820.80530,0.0025003
2819.84092,0.0024388
2818.87654,0.0024095
2817.91217,0.0024224
2816.94779,0.0024584
2815.98341,0.0025058
2815.01903,0.0025460
2814.05465,0.0025794
2813.09028,0.0026147
2812.12590,0.0026368
2811.16152,0.0026347
2810.19714,0.0026263
2809.23276,0.0026063
2808.26839,0.0025538
2807.30401,0.0024818
2806.33963,0.0024303
2805.37525,0.0024141
2804.41088,0.0024181
2803.44650,0.0024363
2802.48212,0.0024522
2801.51774,0.0024632
2800.55336,0.0024737
2799.58899,0.0024762
2798.62461,0.0024764
2797.66023,0.0024645
2796.69585,0.0024296
2795.73147,0.0023942
2794.76710,0.0023843
2793.80272,0.0023813
2792.83834,0.0023865
2791.87396,0.0024119
2790.90959,0.0024200
2789.94521,0.0024398
2788.98083,0.0024998
2788.01645,0.0025488
2787.05207,0.0025619
2786.08770,0.0025525
2785.12332,0.0025478
2784.15894,0.0025494
2783.19456,0.0025404
2782.23018,0.0025286
2781.26581,0.0025371
2780.30143,0.0025428
2779.33705,0.0025201
2778.37267,0.0025163
2777.40829,0.0025337
2776.44392,0.0025337
2775.47954,0.0025069
2774.51516,0.0024602
2773.55078,0.0024317
2772.58641,0.0024314
2771.62203,0.0024421
2770.65765,0.0024566
2769.69327,0.0024690
2768.72889,0.0024631
2767.76452,0.0024438
2766.80014,0.0024506
2765.83576,0.0024774
2764.87138,0.0025047
2763.90700,0.0025250
2762.94263,0.0025261
2761.97825,0.0025234
2761.01387,0.0025151
2760.04949,0.0024893
2759.08512,0.0024601
2758.12074,0.0024397
2757.15636,0.0024261
2756.19198,0.0024173
2755.22760,0.0024159
2754.26323,0.0024165
2753.29885,0.0024121
2752.33447,0.0024074
2751.37009,0.0024208
2750.40571,0.0024450
2749.44134,0.0024618
2748.47696,0.0024839
2747.51258,0.0025125
2746.54820,0.0025422
2745.58382,0.0025696
2744.61945,0.0025719
2743.65507,0.0025448
2742.69069,0.0025164
2741.72631,0.0024996
2740.76194,0.0024953
2739.79756,0.0025121
2738.83318,0.0025276
2737.86880,0.0025238
2736.90442,0.0025066
2735.94005,0.0024812
2734.97567,0.0024772
2734.01129,0.0024950
2733.04691,0.0025060
2732.08253,0.0025086
2731.11816,0.0025199
2730.15378,0.0025450
2729.18940,0.0025619
2728.22502,0.0025541
2727.26065,0.0025233
2726.29627,0.0024927
2725.33189,0.0024761
2724.36751,0.0024735
2723.40313,0.0025044
2722.43876,0.0025579
2721.47438,0.0025985
2720.51000,0.0026132
2719.54562,0.0026265
2718.58124,0.0026411
2717.61687,0.0026200
2716.65249,0.0025763
2715.68811,0.0025361
2714.72373,0.0025116
2713.75935,0.0025033
2712.79498,0.0024894
2711.83060,0.0024859
2710.86622,0.0025052
2709.90184,0.0025182
2708.93747,0.0025090
2707.97309,0.0024947
2707.00871,0.0024687
2706.04433,0.0024276
2705.07995,0.0024119
2704.11558,0.0024151
2703.15120,0.0024163
2702.18682,0.0024205
2701.22244,0.0024236
2700.25806,0.0024402
2699.29369,0.0024802
2698.32931,0.0025202
2697.36493,0.0025300
2696.40055,0.0025133
2695.43618,0.0024822
2694.47180,0.0024550
2693.50742,0.0024434
2692.54304,0.0024249
2691.57866,0.0024141
2690.61429,0.0024152
2689.64991,0.0024130
2688.68553,0.0024283
2687.72115,0.0024670
2686.75677,0.0025114
2685.79240,0.0025354
2684.82802,0.0025362
2683.86364,0.0025247
2682.89926,0.0025114
2681.93488,0.0025053
2680.97051,0.0024882
2680.00613,0.0024605
2679.04175,0.0024301
2678.07737,0.0024025
2677.11300,0.0024024
2676.14862,0.0024255
2675.18424,0.0024490
2674.21986,0.0024742
2673.25548,0.0025013
2672.29111,0.0025141
2671.32673,0.0025232
2670.36235,0.0025393
2669.39797,0.0025328
2668.43359,0.0024881
2667.46922,0.0024390
2666.50484,0.0024169
2665.54046,0.0024099
2664.57608,0.0024035
2663.61171,0.0024052
2662.64733,0.0024170
2661.68295,0.0024162
2660.71857,0.0024057
2659.75419,0.0024207
2658.78982,0.0024562
2657.82544,0.0024803
2656.86106,0.0024780
2655.89668,0.0024680
2654.93230,0.0024697
2653.96793,0.0024681
2653.00355,0.0024576
2652.03917,0.0024467
2651.07479,0.0024196
2650.11041,0.0023598
2649.14604,0.0023039
2648.18166,0.0022922
2647.21728,0.0023228
2646.25290,0.0023662
2645.28853,0.0023805
2644.32415,0.0023715
2643.35977,0.0023709
2642.39539,0.0023850
2641.43101,0.0023839
2640.46664,0.0023534
2639.50226,0.0023154
2638.53788,0.0022783
2637.57350,0.0022689
2636.60912,0.0022889
2635.64475,0.0023158
2634.68037,0.0023460
2633.71599,0.0023665
2632.75161,0.0023788
2631.78724,0.0023884
2630.82286,0.0023968
2629.85848,0.0023903
2628.89410,0.0023841
2627.92972,0.0023967
2626.96535,0.0023894
2626.00097,0.0023501
2625.03659,0.0023021
2624.07221,0.0022938
2623.10783,0.0023200
2622.14346,0.0023230
2621.17908,0.0023066
2620.21470,0.0023004
2619.25032,0.0023262
2618.28594,0.0023702
2617.32157,0.0024254
2616.35719,0.0024616
2615.39281,0.0024329
2614.42843,0.0023887
2613.46406,0.0023714
2612.49968,0.0023829
2611.53530,0.0023813
2610.57092,0.0023260
2609.60654,0.0022737
2608.64217,0.0022681
2607.67779,0.0022709
2606.71341,0.0022768
2605.74903,0.0023284
2604.78465,0.0023606
2603.82028,0.0023379
2602.85590,0.0023289
2601.89152,0.0023253
2600.92714,0.0023158
2599.96276,0.0023042
2598.99839,0.0022802
2598.03401,0.0022629
2597.06963,0.0022636
2596.10525,0.0022763
2595.14088,0.0023068
2594.17650,0.0023519
2593.21212,0.0023512
2592.24774,0.0023249
2591.28336,0.0023413
2590.31899,0.0023669
2589.35461,0.0023704
2588.39023,0.0023649
2587.42585,0.0023631
2586.46147,0.0023541
2585.49710,0.0023500
2584.53272,0.0023555
2583.56834,0.0023304
2582.60396,0.0023051
2581.63959,0.0023212
2580.67521,0.0023844
2579.71083,0.0024592
2578.74645,0.0024707
2577.78207,0.0024392
2576.81770,0.0024320
2575.85332,0.0024412
2574.88894,0.0024186
2573.92456,0.0023669
2572.96018,0.0023163
2571.99581,0.0022769
2571.03143,0.0022669
2570.06705,0.0022841
2569.10267,0.0022915
2568.13829,0.0022492
2567.17392,0.0021944
2566.20954,0.0021828
2565.24516,0.0021788
2564.28078,0.0021746
2563.31641,0.0021992
2562.35203,0.0022679
2561.38765,0.0023697
2560.42327,0.0024457
2559.45889,0.0024983
2558.49452,0.0025636
2557.53014,0.0025986
2556.56576,0.0025684
2555.60138,0.0025114
2554.63700,0.0024089
2553.67263,0.0022425
2552.70825,0.0021126
2551.74387,0.0020788
2550.77949,0.0021185
2549.81512,0.0021685
2548.85074,0.0021836
2547.88636,0.0022377
2546.92198,0.0023935
2545.95760,0.0025682
2544.99323,0.0026381
2544.02885,0.0026084
2543.06447,0.0025324
2542.10009,0.0024159
2541.13571,0.0023183
2540.17134,0.0022715
2539.20696,0.0022091
2538.24258,0.0020817
2537.27820,0.0019545
2536.31382,0.0019526
2535.34945,0.0020747
2534.38507,0.0021933
2533.42069,0.0022464
2532.45631,0.0023068
2531.49194,0.0023973
2530.52756,0.0024485
2529.56318,0.0024973
2528.59880,0.0025328
2527.63442,0.0024469
2526.67005,0.0023379
2525.70567,0.0023165
2524.74129,0.0023073
2523.77691,0.0022783
2522.81253,0.0022665
2521.84816,0.0022842
2520.88378,0.0023028
2519.91940,0.0022810
2518.95502,0.0022298
2517.99065,0.0021968
2517.02627,0.0021563
2516.06189,0.0020719
2515.09751,0.0020438
2514.13313,0.0020766
2513.16876,0.0020822
2512.20438,0.0021093
2511.24000,0.0021782
2510.27562,0.0022265
2509.31124,0.0022029
2508.34687,0.0021589
2507.38249,0.0021581
2506.41811,0.0021477
2505.45373,0.0021257
2504.48935,0.0021075
2503.52498,0.0020840
2502.56060,0.0020468
2501.59622,0.0019930
2500.63184,0.0019786
2499.66747,0.0019981
2498.70309,0.0020185
2497.73871,0.0020266
2496.77433,0.0020393
2495.80995,0.0020843
2494.84558,0.0021193
2493.88120,0.0021410
2492.91682,0.0021387
2491.95244,0.0021141
2490.98806,0.0021252
2490.02369,0.0021635
2489.05931,0.0022065
2488.09493,0.0022564
2487.13055,0.0023052
2486.16618,0.0022808
2485.20180,0.0021802
2484.23742,0.0021239
2483.27304,0.0021305
2482.30866,0.0021593
2481.34429,0.0021835
2480.37991,0.0022140
2479.41553,0.0022819
2478.45115,0.0022934
2477.48677,0.0022139
2476.52240,0.0021557
2475.55802,0.0021118
2474.59364,0.0020412
2473.62926,0.0020231
2472.66488,0.0020657
2471.70051,0.0021436
2470.73613,0.0022525
2469.77175,0.0023292
2468.80737,0.0023591
2467.84300,0.0023455
2466.87862,0.0022607
2465.91424,0.0021166
2464.94986,0.0019875
2463.98548,0.0019276
2463.02111,0.0019291
2462.05673,0.0019721
2461.09235,0.0020040
2460.12797,0.0020469
2459.16359,0.0021265
2458.19922,0.0021797
2457.23484,0.0022197
2456.27046,0.0022671
2455.30608,0.0022909
2454.34171,0.0022743
2453.37733,0.0022502
2452.41295,0.0022345
2451.44857,0.0022164
2450.48419,0.0022077
2449.51982,0.0021588
2448.55544,0.0020857
2447.59106,0.0020473
2446.62668,0.0020289
2445.66230,0.0020437
2444.69793,0.0020893
2443.73355,0.0021405
2442.76917,0.0021907
2441.80479,0.0022110
2440.84041,0.0021631
2439.87604,0.0021007
2438.91166,0.0020569
2437.94728,0.0020123
2436.98290,0.0020177
2436.01853,0.0020542
2435.05415,0.0021065
2434.08977,0.0021738
2433.12539,0.0022196
2432.16101,0.0022464
2431.19664,0.0022498
2430.23226,0.0022577
2429.26788,0.0022399
2428.30350,0.0021954
2427.33912,0.0021926
2426.37475,0.0022428
2425.41037,0.0023346
2424.44599,0.0023983
2423.48161,0.0024038
2422.51724,0.0023356
2421.55286,0.0022168
2420.58848,0.0021085
2419.62410,0.0020198
2418.65972,0.0019850
2417.69535,0.0019304
2416.73097,0.0018498
2415.76659,0.0018612
2414.80221,0.0019704
2413.83783,0.0021468
2412.87346,0.0023207
2411.90908,0.0024168
2410.94470,0.0024434
2409.98032,0.0024629
2409.01594,0.0024490
2408.05157,0.0023579
2407.08719,0.0022476
2406.12281,0.0021232
2405.15843,0.0019925
2404.19406,0.0019007
2403.22968,0.0018919
2402.26530,0.0019817
2401.30092,0.0021028
2400.33654,0.0022148
2399.37217,0.0023139
2398.40779,0.0023764
2397.44341,0.0023687
2396.47903,0.0023175
2395.51465,0.0022739
2394.55028,0.0022434
2393.58590,0.0022264
2392.62152,0.0022205
2391.65714,0.0022364
2390.69276,0.0022533
2389.72839,0.0022513
2388.76401,0.0022681
2387.79963,0.0023020
2386.83525,0.0023122
2385.87088,0.0023202
2384.90650,0.0023551
2383.94212,0.0023672
2382.97774,0.0023866
2382.01336,0.0024638
2381.04899,0.0025457
2380.08461,0.0025926
2379.12023,0.0026030
2378.15585,0.0026497
2377.19147,0.0027576
2376.22710,0.0028654
2375.26272,0.0029756
2374.29834,0.0030941
2373.33396,0.0032038
2372.36959,0.0032952
2371.40521,0.0033873
2370.44083,0.0034877
2369.47645,0.0035975
2368.51207,0.0037180
2367.54770,0.0038135
2366.58332,0.0039174
2365.61894,0.0040172
2364.65456,0.0040560
2363.69018,0.0040822
2362.72581,0.0040974
2361.76143,0.0040716
2360.79705,0.0040102
2359.83267,0.0039168
2358.86829,0.0038219
2357.90392,0.0037565
2356.93954,0.0037167
2355.97516,0.0036649
2355.01078,0.0035961
2354.04641,0.0035212
2353.08203,0.0034237
2352.11765,0.0033249
2351.15327,0.0032307
2350.18889,0.0031144
2349.22452,0.0030291
2348.26014,0.0030126
2347.29576,0.0030262
2346.33138,0.0030891
2345.36700,0.0032229
2344.40263,0.0033594
2343.43825,0.0034588
2342.47387,0.0035170
2341.50949,0.0035221
2340.54512,0.0035261
2339.58074,0.0035478
2338.61636,0.0035515
2337.65198,0.0035640
2336.68760,0.0035816
2335.72323,0.0035765
2334.75885,0.0035730
2333.79447,0.0035697
2332.83009,0.0035523
2331.86571,0.0035321
2330.90134,0.0034889
2329.93696,0.0034058
2328.97258,0.0033487
2328.00820,0.0033402
2327.04382,0.0033346
2326.07945,0.0033307
2325.11507,0.0033076
2324.15069,0.0032679
2323.18631,0.0032491
2322.22194,0.0032489
2321.25756,0.0032728
2320.29318,0.0032873
2319.32880,0.0032344
2318.36442,0.0031295
2317.40005,0.0030394
2316.43567,0.0029991
2315.47129,0.0029806
2314.50691,0.0029472
2313.54253,0.0028900
2312.57816,0.0028432
2311.61378,0.0028236
2310.64940,0.0028003
2309.68502,0.0027721
2308.72065,0.0027235
2307.75627,0.0026488
2306.79189,0.0025868
2305.82751,0.0025525
2304.86313,0.0025520
2303.89876,0.0025717
2302.93438,0.0025798
2301.97000,0.0025795
2301.00562,0.0025792
2300.04124,0.0025788
2299.07687,0.0025785
2298.11249,0.0025782
2297.14811,0.0025779
2296.18373,0.0025775
2295.21935,0.0025772
2294.25498,0.0025769
2293.29060,0.0025765
2292.32622,0.0025762
2291.36184,0.0025759
2290.39747,0.0025755
2289.43309,0.0025752
2288.46871,0.0025749
2287.50433,0.0025745
2286.53995,0.0025742
2285.57558,0.0025739
2284.61120,0.0025735
2283.64682,0.0025732
2282.68244,0.0025729
2281.71806,0.0025725
2280.75369,0.0025722
2279.78931,0.0025719
2278.82493,0.0025715
2277.86055,0.0025712
2276.89618,0.0025709
2275.93180,0.0025705
2274.96742,0.0025702
2274.00304,0.0025699
2273.03866,0.0025695
2272.07429,0.0025692
2271.10991,0.0025689
2270.14553,0.0025685
2269.18115,0.0025682
2268.21677,0.0025679
2267.25240,0.0025676
2266.28802,0.0025672
2265.32364,0.0025669
2264.35926,0.0025666
2263.39488,0.0025662
2262.43051,0.0025659
2261.46613,0.0025656
2260.50175,0.0025652
2259.53737,0.0025649
2258.57300,0.0025646
2257.60862,0.0025642
2256.64424,0.0025639
2255.67986,0.0025636
2254.71548,0.0025632
2253.75111,0.0025629
2252.78673,0.0025626
2251.82235,0.0025622
2250.85797,0.0025619
2249.89359,0.0025616
2248.92922,0.0025612
2247.96484,0.0025609
2247.00046,0.0025606
2246.03608,0.0025602
2245.07171,0.0025599
2244.10733,0.0025596
2243.14295,0.0025592
2242.17857,0.0025589
2241.21419,0.0025586
2240.24982,0.0025582
2239.28544,0.0025579
2238.32106,0.0025576
2237.35668,0.0025573
2236.39230,0.0025569
2235.42793,0.0025566
2234.46355,0.0025563
2233.49917,0.0025559
2232.53479,0.0025556
2231.57041,0.0025553
2230.60604,0.0025549
2229.64166,0.0025546
2228.67728,0.0025543
2227.71290,0.0025539
2226.74853,0.0025536
2225.78415,0.0025533
2224.81977,0.0025529
2223.85539,0.0025526
2222.89101,0.0025523
2221.92664,0.0025519
2220.96226,0.0025516
2219.99788,0.0025513
2219.03350,0.0025509
2218.06912,0.0025506
2217.10475,0.0025503
2216.14037,0.0025499
2215.17599,0.0025496
2214.21161,0.0025493
2213.24724,0.0025489
2212.28286,0.0025486
2211.31848,0.0025483
2210.35410,0.0025479
2209.38972,0.0025476
2208.42535,0.0025473
2207.46097,0.0025470
2206.49659,0.0025466
2205.53221,0.0025463
2204.56783,0.0025460
2203.60346,0.0025456
2202.63908,0.0025453
2201.67470,0.0025450
2200.71032,0.0025446
2199.74594,0.0025443
2198.78157,0.0025440
2197.81719,0.0025436
2196.85281,0.0025433
2195.88843,0.0025430
2194.92406,0.0025426
2193.95968,0.0025423
2192.99530,0.0025420
2192.03092,0.0025416
2191.06654,0.0025413
2190.10217,0.0025410
2189.13779,0.0025406
2188.17341,0.0025403
2187.20903,0.0025400
2186.24465,0.0025396
2185.28028,0.0025393
2184.31590,0.0025390
2183.35152,0.0025386
2182.38714,0.0025383
2181.42276,0.0025380
2180.45839,0.0025376
2179.49401,0.0025373
2178.52963,0.0025370
2177.56525,0.0025367
2176.60088,0.0025363
2175.63650,0.0025360
2174.67212,0.0025357
2173.70774,0.0025353
2172.74336,0.0025350
2171.77899,0.0025347
2170.81461,0.0025343
2169.85023,0.0025340
2168.88585,0.0025337
2167.92147,0.0025333
2166.95710,0.0025330
2165.99272,0.0025327
2165.02834,0.0025323
2164.06396,0.0025320
2163.09959,0.0025317
2162.13521,0.0025313
2161.17083,0.0025310
2160.20645,0.0025307
2159.24207,0.0025303
2158.27770,0.0025300
2157.31332,0.0025297
2156.34894,0.0025293
2155.38456,0.0025290
2154.42018,0.0025287
2153.45581,0.0025283
2152.49143,0.0025280
2151.52705,0.0025277
2150.56267,0.0025273
2149.59829,0.0025270
2148.63392,0.0025267
2147.66954,0.0025264
2146.70516,0.0025260
2145.74078,0.0025257
2144.77641,0.0025254
2143.81203,0.0025250
2142.84765,0.0025247
2141.88327,0.0025244
2140.91889,0.0025240
2139.95452,0.0025237
2138.99014,0.0025234
2138.02576,0.0025230
2137.06138,0.0025227
2136.09700,0.0025224
2135.13263,0.0025220
2134.16825,0.0025217
2133.20387,0.0025214
2132.23949,0.0025210
2131.27512,0.0025207
2130.31074,0.0025204
2129.34636,0.0025200
2128.38198,0.0025197
2127.41760,0.0025194
2126.45323,0.0025190
2125.48885,0.0025187
2124.52447,0.0025184
2123.56009,0.0025180
2122.59571,0.0025177
2121.63134,0.0025174
2120.66696,0.0025171
2119.70258,0.0025167
2118.73820,0.0025164
2117.77382,0.0025161
2116.80945,0.0025157
2115.84507,0.0025154
2114.88069,0.0025151
2113.91631,0.0025147
2112.95194,0.0025144
2111.98756,0.0025141
2111.02318,0.0025137
2110.05880,0.0025134
2109.09442,0.0025131
2108.13005,0.0025127
2107.16567,0.0025124
2106.20129,0.0025121
2105.23691,0.0025117
2104.27253,0.0025114
2103.30816,0.0025111
2102.34378,0.0025107
2101.37940,0.0025104
2100.41502,0.0025101
2099.45065,0.0025097
2098.48627,0.0025094
2097.52189,0.0025091
2096.55751,0.0025087
2095.59313,0.0025084
2094.62876,0.0025081
2093.66438,0.0025077
2092.70000,0.0025074
2091.73562,0.0025071
2090.77124,0.0025068
2089.80687,0.0025064
2088.84249,0.0025061
2087.87811,0.0025058
2086.91373,0.0025054
2085.94935,0.0025051
2084.98498,0.0025048
2084.02060,0.0025044
2083.05622,0.0025041
2082.09184,0.0025038
2081.12747,0.0025034
2080.16309,0.0025031
2079.19871,0.0025028
2078.23433,0.0025024
2077.26995,0.0025021
2076.30558,0.0025018
2075.34120,0.0025014
2074.37682,0.0025011
2073.41244,0.0025008
2072.44806,0.0025004
2071.48369,0.0025001
2070.51931,0.0024998
2069.55493,0.0024994
2068.59055,0.0024991
2067.62618,0.0024988
2066.66180,0.0024984
2065.69742,0.0024981
2064.73304,0.0024978
2063.76866,0.0024974
2062.80429,0.0024971
2061.83991,0.0024968
2060.87553,0.0024965
2059.91115,0.0024961
2058.94677,0.0024958
2057.98240,0.0024955
2057.01802,0.0024951
2056.05364,0.0024948
2055.08926,0.0024945
2054.12488,0.0024941
2053.16051,0.0024938
2052.19613,0.0024935
2051.23175,0.0024931
2050.26737,0.0024928
2049.30300,0.0024925
2048.33862,0.0024921
2047.37424,0.0024918
2046.40986,0.0024915
2045.44548,0.0024911
2044.48111,0.0024908
2043.51673,0.0024905
2042.55235,0.0024901
2041.58797,0.0024898
2040.62359,0.0024895
2039.65922,0.0024891
2038.69484,0.0024888
2037.73046,0.0024885
2036.76608,0.0024881
2035.80171,0.0024878
2034.83733,0.0024875
2033.87295,0.0024871
2032.90857,0.0024868
2031.94419,0.0024865
2030.97982,0.0024862
2030.01544,0.0024858
2029.05106,0.0024855
2028.08668,0.0024852
2027.12230,0.0024848
2026.15793,0.0024845
2025.19355,0.0024842
2024.22917,0.0024838
2023.26479,0.0024835
2022.30041,0.0024832
2021.33604,0.0024828
2020.37166,0.0024825
2019.40728,0.0024822
2018.44290,0.0024818
2017.47853,0.0024815
2016.51415,0.0024812
2015.54977,0.0024808
2014.58539,0.0024805
2013.62101,0.0024802
2012.65664,0.0024798
2011.69226,0.0024795
2010.72788,0.0024792
2009.76350,0.0024788
2008.79912,0.0024785
2007.83475,0.0024782
2006.87037,0.0024778
2005.90599,0.0024775
2004.94161,0.0024772
2003.97724,0.0024768
2003.01286,0.0024765
2002.04848,0.0024762
2001.08410,0.0024759
2000.11972,0.0024755
1999.15535,0.0024752
1998.19097,0.0024749
1997.22659,0.0024745
1996.26221,0.0024742
1995.29783,0.0024739
1994.33346,0.0024735
1993.36908,0.0024732
1992.40470,0.0024729
1991.44032,0.0024725
1990.47594,0.0024722
1989.51157,0.0024719
1988.54719,0.0024715
1987.58281,0.0024712
1986.61843,0.0024709
1985.65406,0.0024705
1984.68968,0.0024702
1983.72530,0.0024699
1982.76092,0.0024695
1981.79654,0.0024692
1980.83217,0.0024689
1979.86779,0.0024685
1978.90341,0.0024682
1977.93903,0.0024679
1976.97465,0.0024675
1976.01028,0.0024672
1975.04590,0.0024669
1974.08152,0.0024665
1973.11714,0.0024662
1972.15276,0.0024659
1971.18839,0.0024656
1970.22401,0.0024652
1969.25963,0.0024649
1968.29525,0.0024646
1967.33088,0.0024642
1966.36650,0.0024639
1965.40212,0.0024636
1964.43774,0.0024632
1963.47336,0.0024629
1962.50899,0.0024626
1961.54461,0.0024622
1960.58023,0.0024619
1959.61585,0.0024616
1958.65147,0.0024612
1957.68710,0.0024609
1956.72272,0.0024606
1955.75834,0.0024602
1954.79396,0.0024599
1953.82959,0.0024596
1952.86521,0.0024592
1951.90083,0.0024589
1950.93645,0.0024586
1949.97207,0.0024582
1949.00770,0.0024579
1948.04332,0.0024576
1947.07894,0.0024572
1946.11456,0.0024569
1945.15018,0.0024566
1944.18581,0.0024563
1943.22143,0.0024559
1942.25705,0.0024556
1941.29267,0.0024553
1940.32829,0.0024549
1939.36392,0.0024546
1938.39954,0.0024543
1937.43516,0.0024539
1936.47078,0.0024536
1935.50641,0.0024533
1934.54203,0.0024529
1933.57765,0.0024526
1932.61327,0.0024523
1931.64889,0.0024519
1930.68452,0.0024516
1929.72014,0.0024513
1928.75576,0.0024509
1927.79138,0.0024506
1926.82700,0.0024503
1925.86263,0.0024499
1924.89825,0.0024496
1923.93387,0.0024493
1922.96949,0.0024489
1922.00512,0.0024486
1921.04074,0.0024483
1920.07636,0.0024479
1919.11198,0.0024476
1918.14760,0.0024473
1917.18323,0.0024469
1916.21885,0.0024466
1915.25447,0.0024463
1914.29009,0.0024460
1913.32571,0.0024456
1912.36134,0.0024453
1911.39696,0.0024450
1910.43258,0.0024446
1909.46820,0.0024443
1908.50382,0.0024440
1907.53945,0.0024436
1906.57507,0.0024433
1905.61069,0.0024430
1904.64631,0.0024426
1903.68194,0.0024423
1902.71756,0.0024420
1901.75318,0.0024416
1900.78880,0.0024413
1899.82442,0.0024410
1898.86005,0.0024406
1897.89567,0.0024403
1896.93129,0.0024400
1895.96691,0.0024396
1895.00253,0.0024393
1894.03816,0.0024390
1893.07378,0.0024386
1892.10940,0.0024383
1891.14502,0.0024380
1890.18065,0.0024376
1889.21627,0.0024373
1888.25189,0.0024370
1887.28751,0.0024366
1886.32313,0.0024363
1885.35876,0.0024360
1884.39438,0.0024357
1883.43000,0.0024353
1882.46562,0.0024350
1881.50124,0.0024347
1880.53687,0.0024343
1879.57249,0.0024340
1878.60811,0.0024337
1877.64373,0.0024333
1876.67935,0.0024330
1875.71498,0.0024327
1874.75060,0.0024323
1873.78622,0.0024331
1872.82184,0.0024116
1871.85747,0.0024064
1870.89309,0.0024308
1869.92871,0.0024659
1868.96433,0.0025107
1867.99995,0.0025382
1867.03558,0.0025640
1866.07120,0.0025958
1865.10682,0.0025987
1864.14244,0.0025756
1863.17806,0.0025598
1862.21369,0.0025473
1861.24931,0.0025312
1860.28493,0.0025734
1859.32055,0.0026103
1858.35618,0.0025875
1857.39180,0.0025392
1856.42742,0.0024778
1855.46304,0.0024393
1854.49866,0.0024222
1853.53429,0.0024198
1852.56991,0.0024320
1851.60553,0.0024601
1850.64115,0.0024961
1849.67677,0.0025516
1848.71240,0.0026492
1847.74802,0.0026946
1846.78364,0.0026709
1845.81926,0.0026458
1844.85488,0.0026262
1843.89051,0.0026267
1842.92613,0.0026572
1841.96175,0.0026823
1840.99737,0.0026512
1840.03300,0.0026154
1839.06862,0.0026219
1838.10424,0.0026616
1837.13986,0.0027254
1836.17548,0.0027408
1835.21111,0.0027392
1834.24673,0.0027624
1833.28235,0.0027739
1832.31797,0.0027948
1831.35359,0.0028122
1830.38922,0.0028012
1829.42484,0.0027641
1828.46046,0.0027595
1827.49608,0.0028222
1826.53171,0.0028716
1825.56733,0.0028925
1824.60295,0.0029085
1823.63857,0.0029244
1822.67419,0.0029243
1821.70982,0.0028884
1820.74544,0.0028568
1819.78106,0.0028193
1818.81668,0.0027628
1817.85230,0.0027115
1816.88793,0.0027048
1815.92355,0.0027542
1814.95917,0.0027884
1813.99479,0.0028191
1813.03041,0.0028711
1812.06604,0.0029125
1811.10166,0.0029488
1810.13728,0.0029575
1809.17290,0.0029357
1808.20853,0.0029068
1807.24415,0.0028974
1806.27977,0.0029319
1805.31539,0.0029800
1804.35101,0.0030237
1803.38664,0.0030572
1802.42226,0.0030697
1801.45788,0.0030833
1800.49350,0.0031059
1799.52912,0.0030997
1798.56475,0.0030369
1797.60037,0.0029618
1796.63599,0.0029405
1795.67161,0.0029782
1794.70724,0.0030290
1793.74286,0.0030675
1792.77848,0.0031021
1791.81410,0.0031168
1790.84972,0.0031015
1789.88535,0.0030818
1788.92097,0.0030615
1787.95659,0.0030289
1786.99221,0.0029920
1786.02783,0.0029811
1785.06346,0.0030179
1784.09908,0.0030773
1783.13470,0.0031219
1782.17032,0.0031463
1781.20594,0.0031745
1780.24157,0.0032023
1779.27719,0.0032067
1778.31281,0.0032163
1777.34843,0.0032636
1776.38406,0.0033441
1775.41968,0.0034305
1774.45530,0.0035053
1773.49092,0.0035829
1772.52654,0.0036471
1771.56217,0.0036679
1770.59779,0.0036513
1769.63341,0.0036302
1768.66903,0.0035997
1767.70465,0.0035436
1766.74028,0.0035176
1765.77590,0.0035386
1764.81152,0.0035746
1763.84714,0.0036028
1762.88276,0.0036187
1761.91839,0.0036693
1760.95401,0.0037291
1759.98963,0.0037554
1759.02525,0.0037758
1758.06088,0.0037815
1757.09650,0.0037820
1756.13212,0.0038291
1755.16774,0.0039123
1754.20336,0.0039956
1753.23899,0.0040771
1752.27461,0.0041589
1751.31023,0.0042460
1750.34585,0.0043373
1749.38147,0.0044086
1748.41710,0.0044705
1747.45272,0.0045151
1746.48834,0.0045064
1745.52396,0.0045057
1744.55959,0.0045597
1743.59521,0.0046045
1742.63083,0.0046263
1741.66645,0.0046365
1740.70207,0.0046278
1739.73770,0.0046478
1738.77332,0.0047257
1737.80894,0.0048351
1736.84456,0.0049288
1735.88018,0.0049616
1734.91581,0.0049575
1733.95143,0.0049515
1732.98705,0.0049220
1732.02267,0.0048410
1731.05829,0.0047270
1730.09392,0.0046025
1729.12954,0.0044939
1728.16516,0.0044675
1727.20078,0.0045115
1726.23641,0.0045472
1725.27203,0.0045545
1724.30765,0.0045452
1723.34327,0.0045593
1722.37889,0.0046238
1721.41452,0.0047024
1720.45014,0.0047716
1719.48576,0.0048336
1718.52138,0.0048751
1717.55700,0.0048889
1716.59263,0.0048869
1715.62825,0.0048649
1714.66387,0.0048124
1713.69949,0.0047367
1712.73512,0.0046435
1711.77074,0.0045728
1710.80636,0.0045682
1709.84198,0.0045973
1708.87760,0.0046431
1707.91323,0.0046739
1706.94885,0.0046423
1705.98447,0.0046302
1705.02009,0.0047112
1704.05571,0.0048390
1703.09134,0.0049429
1702.12696,0.0049788
1701.16258,0.0050257
1700.19820,0.0051331
1699.23382,0.0052401
1698.26945,0.0053104
1697.30507,0.0053334
1696.34069,0.0052854
1695.37631,0.0051809
1694.41194,0.0051157
1693.44756,0.0051161
1692.48318,0.0050968
1691.51880,0.0050091
1690.55442,0.0049269
1689.59005,0.0050076
1688.62567,0.0052032
1687.66129,0.0053712
1686.69691,0.0054895
1685.73253,0.0055785
1684.76816,0.0056492
1683.80378,0.0056928
1682.83940,0.0057063
1681.87502,0.0056869
1680.91065,0.0056516
1679.94627,0.0056435
1678.98189,0.0056900
1678.01751,0.0058134
1677.05313,0.0059673
1676.08876,0.0060852
1675.12438,0.0061674
1674.16000,0.0062653
1673.19562,0.0063725
1672.23124,0.0064486
1671.26687,0.0064919
1670.30249,0.0065097
1669.33811,0.0065423
1668.37373,0.0066121
1667.40935,0.0066893
1666.44498,0.0067686
1665.48060,0.0068414
1664.51622,0.0068881
1663.55184,0.0069323
1662.58747,0.0070027
1661.62309,0.0070638
1660.65871,0.0070942
1659.69433,0.0071050
1658.72995,0.0071543
1657.76558,0.0073276
1656.80120,0.0075763
1655.83682,0.0078164
1654.87244,0.0079897
1653.90806,0.0080783
1652.94369,0.0081046
1651.97931,0.0081042
1651.01493,0.0081091
1650.05055,0.0080863
1649.08618,0.0080210
1648.12180,0.0079532
1647.15742,0.0079511
1646.19304,0.0080322
1645.22866,0.0080921
1644.26429,0.0080932
1643.29991,0.0080575
1642.33553,0.0079994
1641.37115,0.0079654
1640.40677,0.0080228
1639.44240,0.0081469
1638.47802,0.0082546
1637.51364,0.0083259
1636.54926,0.0083694
1635.58488,0.0083838
1634.62051,0.0083641
1633.65613,0.0083261
1632.69175,0.0082841
1631.72737,0.0082344
1630.76300,0.0081819
1629.79862,0.0081596
1628.83424,0.0082123
1627.86986,0.0082901
1626.90548,0.0083442
1625.94111,0.0083749
1624.97673,0.0083895
1624.01235,0.0083919
1623.04797,0.0083588
1622.08359,0.0083546
1621.11922,0.0084099
1620.15484,0.0084535
1619.19046,0.0084658
1618.22608,0.0084567
1617.26171,0.0084493
1616.29733,0.0084335
1615.33295,0.0083971
1614.36857,0.0083559
1613.40419,0.0083134
1612.43982,0.0082717
1611.47544,0.0082389
1610.51106,0.0082525
1609.54668,0.0082912
1608.58230,0.0083007
1607.61793,0.0082904
1606.65355,0.0082711
1605.68917,0.0082477
1604.72479,0.0082309
1603.76041,0.0082276
1602.79604,0.0082382
1601.83166,0.0082535
1600.86728,0.0082686
1599.90290,0.0082793
1598.93853,0.0082688
1597.97415,0.0082411
1597.00977,0.0082129
1596.04539,0.0081875
1595.08101,0.0081665
1594.11664,0.0081406
1593.15226,0.0081100
1592.18788,0.0080784
1591.22350,0.0080507
1590.25912,0.0080263
1589.29475,0.0079893
1588.33037,0.0079385
1587.36599,0.0078709
1586.40161,0.0078025
1585.43724,0.0077345
1584.47286,0.0076607
1583.50848,0.0075780
1582.54410,0.0074665
1581.57972,0.0073942
1580.61535,0.0074041
1579.65097,0.0074404
1578.68659,0.0074598
1577.72221,0.0074452
1576.75783,0.0073897
1575.79346,0.0072990
1574.82908,0.0072152
1573.86470,0.0071281
1572.90032,0.0070063
1571.93594,0.0068480
1570.97157,0.0066755
1570.00719,0.0065717
1569.04281,0.0065279
1568.07843,0.0064603
1567.11406,0.0063390
1566.14968,0.0061871
1565.18530,0.0060698
1564.22092,0.0060298
1563.25654,0.0061023
1562.29217,0.0062342
1561.32779,0.0063128
1560.36341,0.0063277
1559.39903,0.0063367
1558.43465,0.0063470
1557.47028,0.0063160
1556.50590,0.0062118
1555.54152,0.0060379
1554.57714,0.0058579
1553.61276,0.0057368
1552.64839,0.0056609
1551.68401,0.0056071
1550.71963,0.0055653
1549.75525,0.0055243
1548.79088,0.0054933
1547.82650,0.0055172
1546.86212,0.0055826
1545.89774,0.0056255
1544.93336,0.0056766
1543.96899,0.0057859
1543.00461,0.0059067
1542.04023,0.0059791
1541.07585,0.0059750
1540.11147,0.0059000
1539.14710,0.0058204
1538.18272,0.0057622
1537.21834,0.0056671
1536.25396,0.0055534
1535.28959,0.0054350
1534.32521,0.0053012
1533.36083,0.0052342
1532.39645,0.0052257
1531.43207,0.0052014
1530.46770,0.0051803
1529.50332,0.0051611
1528.53894,0.0051176
1527.57456,0.0050824
1526.61018,0.0051009
1525.64581,0.0051588
1524.68143,0.0052126
1523.71705,0.0052208
1522.75267,0.0052117
1521.78829,0.0052277
1520.82392,0.0052338
1519.85954,0.0052310
1518.89516,0.0052181
1517.93078,0.0051633
1516.96641,0.0050757
1516.00203,0.0049955
1515.03765,0.0049656
1514.07327,0.0049497
1513.10889,0.0049075
1512.14452,0.0048924
1511.18014,0.0049721
1510.21576,0.0051175
1509.25138,0.0052434
1508.28700,0.0053161
1507.32263,0.0053305
1506.35825,0.0053029
1505.39387,0.0052243
1504.42949,0.0051057
1503.46512,0.0049832
1502.50074,0.0048402
1501.53636,0.0047510
1500.57198,0.0047719
1499.60760,0.0048419
1498.64323,0.0049068
1497.67885,0.0049263
1496.71447,0.0049057
1495.75009,0.0048820
1494.78571,0.0048655
1493.82134,0.0048330
1492.85696,0.0048018
1491.89258,0.0048020
1490.92820,0.0048177
1489.96382,0.0048620
1488.99945,0.0049075
1488.03507,0.0049124
1487.07069,0.0048986
1486.10631,0.0048749
1485.14194,0.0048371
1484.17756,0.0048117
1483.21318,0.0048052
1482.24880,0.0047886
1481.28442,0.0047868
1480.32005,0.0048146
1479.35567,0.0048402
1478.39129,0.0048741
1477.42691,0.0049429
1476.46253,0.0050418
1475.49816,0.0051364
1474.53378,0.0052118
1473.56940,0.0052630
1472.60502,0.0052902
1471.64065,0.0052926
1470.67627,0.0052759
1469.71189,0.0052938
1468.74751,0.0053192
1467.78313,0.0053193
1466.81876,0.0053403
1465.85438,0.0053831
1464.89000,0.0054279
1463.92562,0.0054448
1462.96124,0.0054450
1461.99687,0.0055126
1461.03249,0.0056497
1460.06811,0.0057864
1459.10373,0.0058924
1458.13935,0.0059784
1457.17498,0.0060298
1456.21060,0.0060328
1455.24622,0.0059934
1454.28184,0.0059096
1453.31747,0.0058090
1452.35309,0.0057323
1451.38871,0.0057083
1450.42433,0.0057716
1449.45995,0.0058731
1448.49558,0.0059341
1447.53120,0.0059705
1446.56682,0.0060068
1445.60244,0.0060336
1444.63806,0.0060477
1443.67369,0.0060329
1442.70931,0.0060071
1441.74493,0.0060473
1440.78055,0.0061582
1439.81618,0.0062595
1438.85180,0.0063277
1437.88742,0.0063814
1436.92304,0.0064222
1435.95866,0.0064563
1434.99429,0.0064736
1434.02991,0.0064680
1433.06553,0.0064452
1432.10115,0.0064095
1431.13677,0.0063830
1430.17240,0.0064033
1429.20802,0.0064511
1428.24364,0.0064814
1427.27926,0.0065133
1426.31488,0.0065473
1425.35051,0.0065834
1424.38613,0.0066639
1423.42175,0.0067762
1422.45737,0.0068939
1421.49300,0.0070010
1420.52862,0.0070965
1419.56424,0.0071723
1418.59986,0.0072212
1417.63548,0.0072659
1416.67111,0.0072939
1415.70673,0.0072928
1414.74235,0.0072687
1413.77797,0.0072490
1412.81359,0.0072599
1411.84922,0.0072610
1410.88484,0.0072536
1409.92046,0.0072751
1408.95608,0.0073170
1407.99171,0.0073531
1407.02733,0.0073743
1406.06295,0.0073898
1405.09857,0.0073995
1404.13419,0.0074032
1403.16982,0.0074030
1402.20544,0.0073905
1401.24106,0.0073609
1400.27668,0.0073381
1399.31230,0.0073576
1398.34793,0.0074107
1397.38355,0.0074617
1396.41917,0.0074872
1395.45479,0.0074866
1394.49041,0.0074571
1393.52604,0.0074071
1392.56166,0.0073748
1391.59728,0.0073537
1390.63290,0.0073129
1389.66853,0.0072598
1388.70415,0.0072273
1387.73977,0.0072295
1386.77539,0.0072399
1385.81101,0.0072411
1384.84664,0.0072312
1383.88226,0.0072140
1382.91788,0.0071900
1381.95350,0.0071627
1380.98912,0.0071603
1380.02475,0.0071737
1379.06037,0.0071806
1378.09599,0.0071901
1377.13161,0.0072002
1376.16724,0.0072009
1375.20286,0.0071827
1374.23848,0.0071469
1373.27410,0.0071122
1372.30972,0.0070876
1371.34535,0.0070580
1370.38097,0.0070092
1369.41659,0.0069633
1368.45221,0.0069466
1367.48783,0.0069528
1366.52346,0.0069641
1365.55908,0.0069654
1364.59470,0.0069390
1363.63032,0.0068908
1362.66594,0.0068525
1361.70157,0.0068330
1360.73719,0.0068191
1359.77281,0.0067893
1358.80843,0.0067381
1357.84406,0.0066890
1356.87968,0.0066523
1355.91530,0.0066252
1354.95092,0.0066032
1353.98654,0.0065737
1353.02217,0.0065316
1352.05779,0.0064982
1351.09341,0.0064961
1350.12903,0.0065103
1349.16465,0.0065180
1348.20028,0.0065061
1347.23590,0.0064846
1346.27152,0.0064741
1345.30714,0.0064624
1344.34276,0.0064485
1343.37839,0.0064405
1342.41401,0.0064297
1341.44963,0.0064195
1340.48525,0.0064145
1339.52088,0.0064154
1338.55650,0.0064115
1337.59212,0.0063879
1336.62774,0.0063519
1335.66336,0.0063143
1334.69899,0.0062795
1333.73461,0.0062419
1332.77023,0.0061982
1331.80585,0.0061608
1330.84147,0.0061278
1329.87710,0.0060930
1328.91272,0.0060642
1327.94834,0.0060459
1326.98396,0.0060250
1326.01959,0.0059930
1325.05521,0.0059691
1324.09083,0.0059548
1323.12645,0.0059430
1322.16207,0.0059409
1321.19770,0.0059399
1320.23332,0.0059432
1319.26894,0.0059484
1318.30456,0.0059443
1317.34018,0.0059443
1316.37581,0.0059452
1315.41143,0.0059293
1314.44705,0.0059008
1313.48267,0.0058797
1312.51829,0.0058613
1311.55392,0.0058353
1310.58954,0.0058180
1309.62516,0.0058027
1308.66078,0.0057750
1307.69641,0.0057399
1306.73203,0.0057156
1305.76765,0.0057159
1304.80327,0.0057262
1303.83889,0.0057364
1302.87452,0.0057436
1301.91014,0.0057471
1300.94576,0.0057461
1299.98138,0.0057440
1299.01700,0.0057558
1298.05263,0.0057667
1297.08825,0.0057634
1296.12387,0.0057663
1295.15949,0.0057878
1294.19512,0.0058210
1293.23074,0.0058549
1292.26636,0.0058798
1291.30198,0.0058856
1290.33760,0.0058841
1289.37323,0.0058931
1288.40885,0.0059037
1287.44447,0.0059055
1286.48009,0.0058999
1285.51571,0.0058945
1284.55134,0.0058954
1283.58696,0.0058997
1282.62258,0.0059046
1281.65820,0.0059066
1280.69382,0.0059023
1279.72945,0.0058979
1278.76507,0.0059041
1277.80069,0.0059193
1276.83631,0.0059227
1275.87194,0.0059103
1274.90756,0.0059051
1273.94318,0.0059088
1272.97880,0.0059157
1272.01442,0.0059301
1271.05005,0.0059461
1270.08567,0.0059624
1269.12129,0.0059828
1268.15691,0.0060014
1267.19253,0.0060060
1266.22816,0.0060033
1265.26378,0.0060031
1264.29940,0.0060026
1263.33502,0.0060076
1262.37065,0.0060134
1261.40627,0.0060134
1260.44189,0.0060112
1259.47751,0.0060112
1258.51313,0.0060243
1257.54876,0.0060385
1256.58438,0.0060396
1255.62000,0.0060414
1254.65562,0.0060561
1253.69124,0.0060774
1252.72687,0.0060977
1251.76249,0.0061214
1250.79811,0.0061435
1249.83373,0.0061483
1248.86935,0.0061346
1247.90498,0.0061212
1246.94060,0.0061115
1245.97622,0.0060879
1245.01184,0.0060609
1244.04747,0.0060463
1243.08309,0.0060281
1242.11871,0.0060029
1241.15433,0.0059874
1240.18995,0.0059829
1239.22558,0.0059850
1238.26120,0.0059873
1237.29682,0.0059798
1236.33244,0.0059707
1235.36806,0.0059694
1234.40369,0.0059707
1233.43931,0.0059733
1232.47493,0.0059775
1231.51055,0.0059760
1230.54618,0.0059662
1229.58180,0.0059553
1228.61742,0.0059432
1227.65304,0.0059359
1226.68866,0.0059366
1225.72429,0.0059307
1224.75991,0.0059276
1223.79553,0.0059440
1222.83115,0.0059681
1221.86677,0.0059871
1220.90240,0.0060007
1219.93802,0.0060071
1218.97364,0.0060045
1218.00926,0.0059920
1217.04488,0.0059688
1216.08051,0.0059480
1215.11613,0.0059437
1214.15175,0.0059451
1213.18737,0.0059480
1212.22300,0.0059630
1211.25862,0.0059821
1210.29424,0.0059984
1209.32986,0.0060127
1208.36548,0.0060285
1207.40111,0.0060505
1206.43673,0.0060533
1205.47235,0.0060350
1204.50797,0.0060264
1203.54359,0.0060293
1202.57922,0.0060387
1201.61484,0.0060580
1200.65046,0.0060960
1199.68608,0.0061474
1198.72171,0.0061983
1197.75733,0.0062488
1196.79295,0.0062978
1195.82857,0.0063378
1194.86419,0.0063549
1193.89982,0.0063645
1192.93544,0.0063790
1191.97106,0.0063836
1191.00668,0.0063951
1190.04230,0.0064223
1189.07793,0.0064610
1188.11355,0.0065035
1187.14917,0.0065405
1186.18479,0.0065825
1185.22041,0.0066208
1184.25604,0.0066510
1183.29166,0.0066853
1182.32728,0.0067277
1181.36290,0.0067674
1180.39853,0.0068033
1179.43415,0.0068515
1178.46977,0.0069053
1177.50539,0.0069569
1176.54101,0.0069989
1175.57664,0.0070397
1174.61226,0.0070906
1173.64788,0.0071339
1172.68350,0.0071703
1171.71912,0.0071972
1170.75475,0.0072233
1169.79037,0.0072577
1168.82599,0.0072951
1167.86161,0.0073524
1166.89724,0.0074177
1165.93286,0.0074751
1164.96848,0.0075240
1164.00410,0.0075613
1163.03972,0.0075844
1162.07535,0.0075909
1161.11097,0.0075959
1160.14659,0.0076034
1159.18221,0.0076204
1158.21783,0.0076434
1157.25346,0.0076667
1156.28908,0.0077137
1155.32470,0.0077696
1154.36032,0.0078217
1153.39594,0.0078736
1152.43157,0.0079066
1151.46719,0.0079248
1150.50281,0.0079537
1149.53843,0.0079898
1148.57406,0.0080133
1147.60968,0.0080455
1146.64530,0.0080912
1145.68092,0.0081261
1144.71654,0.0081480
1143.75217,0.0081611
1142.78779,0.0081854
1141.82341,0.0082195
1140.85903,0.0082427
1139.89465,0.0082607
1138.93028,0.0082800
1137.96590,0.0082959
1137.00152,0.0083196
1136.03714,0.0083828
1135.07276,0.0084643
1134.10839,0.0085205
1133.14401,0.0085590
1132.17963,0.0085959
1131.21525,0.0086356
1130.25088,0.0086530
1129.28650,0.0086388
1128.32212,0.0086233
1127.35774,0.0086207
1126.39336,0.0086364
1125.42899,0.0086686
1124.46461,0.0087187
1123.50023,0.0087707
1122.53585,0.0088008
1121.57147,0.0088300
1120.60710,0.0088593
1119.64272,0.0088646
1118.67834,0.0088429
1117.71396,0.0088144
1116.74959,0.0088057
1115.78521,0.0088075
1114.82083,0.0087989
1113.85645,0.0087774
1112.89207,0.0087615
1111.92770,0.0087586
1110.96332,0.0087553
1109.99894,0.0087637
1109.03456,0.0087822
1108.07018,0.0087954
1107.10581,0.0088085
1106.14143,0.0088317
1105.17705,0.0088675
1104.21267,0.0088879
1103.24829,0.0088764
1102.28392,0.0088536
1101.31954,0.0088339
1100.35516,0.0088191
1099.39078,0.0088108
1098.42641,0.0088077
1097.46203,0.0087915
1096.49765,0.0087468
1095.53327,0.0086932
1094.56889,0.0086606
1093.60452,0.0086408
1092.64014,0.0086114
1091.67576,0.0085851
1090.71138,0.0085762
1089.74700,0.0085727
1088.78263,0.0085764
1087.81825,0.0085999
1086.85387,0.0086164
1085.88949,0.0085950
1084.92512,0.0085535
1083.96074,0.0085233
1082.99636,0.0085093
1082.03198,0.0085047
1081.06760,0.0085086
1080.10323,0.0085032
1079.13885,0.0084728
1078.17447,0.0084313
1077.21009,0.0083897
1076.24571,0.0083460
1075.28134,0.0082882
1074.31696,0.0082198
1073.35258,0.0081707
1072.38820,0.0081532
1071.42382,0.0081628
1070.45945,0.0081966
1069.49507,0.0082247
1068.53069,0.0082147
1067.56631,0.0081761
1066.60194,0.0081281
1065.63756,0.0080745
1064.67318,0.0080146
1063.70880,0.0079473
1062.74442,0.0078779
1061.78005,0.0078201
1060.81567,0.0077853
1059.85129,0.0077816
1058.88691,0.0078032
1057.92253,0.0078203
1056.95816,0.0078174
1055.99378,0.0078060
1055.02940,0.0078017
1054.06502,0.0078003
1053.10065,0.0077824
1052.13627,0.0077562
1051.17189,0.0077324
1050.20751,0.0077069
1049.24313,0.0076875
1048.27876,0.0076855
1047.31438,0.0076901
1046.35000,0.0076807
1045.38562,0.0076599
1044.42124,0.0076394
1043.45687,0.0076333
1042.49249,0.0076199
1041.52811,0.0075766
1040.56373,0.0075429
1039.59935,0.0075281
1038.63498,0.0075197
1037.67060,0.0075191
1036.70622,0.0075146
1035.74184,0.0074996
1034.77747,0.0074778
1033.81309,0.0074572
1032.84871,0.0074330
1031.88433,0.0074111
1030.91995,0.0073777
1029.95558,0.0073241
1028.99120,0.0072898
1028.02682,0.0072746
1027.06244,0.0072622
1026.09806,0.0072421
1025.13369,0.0072143
1024.16931,0.0071857
1023.20493,0.0071498
1022.24055,0.0071207
1021.27618,0.0070859
1020.31180,0.0070345
1019.34742,0.0069799
1018.38304,0.0069322
1017.41866,0.0069021
1016.45429,0.0068715
1015.48991,0.0068274
1014.52553,0.0067783
1013.56115,0.0067437
1012.59677,0.0067166
1011.63240,0.0066874
1010.66802,0.0066765
1009.70364,0.0066666
1008.73926,0.0066376
1007.77488,0.0065957
1006.81051,0.0065627
1005.84613,0.0065441
1004.88175,0.0065156
1003.91737,0.0064855
1002.95300,0.0064588
1001.98862,0.0064387
1001.02424,0.0064390
1000.05986,0.0064540
999.09548,0.0064700
998.13111,0.0064622
997.16673,0.0064243
996.20235,0.0063855
995.23797,0.0063673
994.27359,0.0063477
993.30922,0.0063188
992.34484,0.0063014
991.38046,0.0062835
990.41608,0.0062667
989.45171,0.0062522
988.48733,0.0062203
987.52295,0.0061659
986.55857,0.0061035
985.59419,0.0060810
984.62982,0.0060854
983.66544,0.0060622
982.70106,0.0060362
981.73668,0.0060357
980.77230,0.0060509
979.80793,0.0060788
978.84355,0.0061038
977.87917,0.0060970
976.91479,0.0060508
975.95041,0.0059893
974.98604,0.0059495
974.02166,0.0059424
973.05728,0.0059188
972.09290,0.0058611
971.12853,0.0058295
970.16415,0.0058245
969.19977,0.0058235
968.23539,0.0058507
967.27101,0.0058817
966.30664,0.0058781
965.34226,0.0058425
964.37788,0.0058007
963.41350,0.0057718
962.44912,0.0057478
961.48475,0.0057352
960.52037,0.0057284
959.55599,0.0057136
958.59161,0.0056901
957.62724,0.0056501
956.66286,0.0056235
955.69848,0.0056204
954.73410,0.0056036
953.76972,0.0055758
952.80535,0.0055578
951.84097,0.0055624
950.87659,0.0056054
949.91221,0.0056611
948.94783,0.0056811
947.98346,0.0056775
947.01908,0.0056754
946.05470,0.0056627
945.09032,0.0056580
944.12594,0.0056694
943.16157,0.0056661
942.19719,0.0056678
941.23281,0.0056951
940.26843,0.0057240
939.30406,0.0057500
938.33968,0.0057706
937.37530,0.0057778
936.41092,0.0057748
935.44654,0.0057616
934.48217,0.0057474
933.51779,0.0057389
932.55341,0.0057386
931.58903,0.0057463
930.62465,0.0057537
929.66028,0.0057561
928.69590,0.0057350
927.73152,0.0056998
926.76714,0.0056755
925.80276,0.0056392
924.83839,0.0055914
923.87401,0.0055718
922.90963,0.0055836
921.94525,0.0056065
920.98088,0.0056462
920.01650,0.0056820
919.05212,0.0056828
918.08774,0.0056837
917.12336,0.0056758
916.15899,0.0056168
915.19461,0.0055212
914.23023,0.0054161
913.26585,0.0053546
912.30147,0.0053401
911.33710,0.0053286
910.37272,0.0053279
909.40834,0.0053402
908.44396,0.0053463
907.47959,0.0053495
906.51521,0.0053960
905.55083,0.0054646
904.58645,0.0054630
903.62207,0.0054121
902.65770,0.0053915
901.69332,0.0054184
900.72894,0.0054174
899.76456,0.0053458
898.80018,0.0052745
897.83581,0.0052163
896.87143,0.0051729
895.90705,0.0051854
894.94267,0.0052592
893.97829,0.0053579
893.01392,0.0054142
892.04954,0.0054370
891.08516,0.0054591
890.12078,0.0054661
889.15641,0.0054328
888.19203,0.0053586
887.22765,0.0053037
886.26327,0.0052686
885.29889,0.0052480
884.33452,0.0052744
883.37014,0.0053177
882.40576,0.0053584
881.44138,0.0053754
880.47700,0.0053570
879.51263,0.0053287
878.54825,0.0052968
877.58387,0.0052636
876.61949,0.0052185
875.65512,0.0051620
874.69074,0.0051197
873.72636,0.0051039
872.76198,0.0050947
871.79760,0.0050692
870.83323,0.0050438
869.86885,0.0050519
868.90447,0.0051122
867.94009,0.0051758
866.97571,0.0051855
866.01134,0.0051890
865.04696,0.0052135
864.08258,0.0052251
863.11820,0.0052314
862.15382,0.0052304
861.18945,0.0052182
860.22507,0.0052111
859.26069,0.0052026
858.29631,0.0052270
857.33194,0.0052982
856.36756,0.0053401
855.40318,0.0053170
854.43880,0.0052738
853.47442,0.0052478
852.51005,0.0052140
851.54567,0.0051410
850.58129,0.0050456
849.61691,0.0049715
848.65253,0.0049241
847.68816,0.0048703
846.72378,0.0048467
845.75940,0.0048758
844.79502,0.0049036
843.83065,0.0049154
842.86627,0.0049316
841.90189,0.0049658
840.93751,0.0049827
839.97313,0.0049500
839.00876,0.0049026
838.04438,0.0048643
837.08000,0.0048419
836.11562,0.0048288
835.15124,0.0048195
834.18687,0.0048384
833.22249,0.0048900
832.25811,0.0049440
831.29373,0.0049742
830.32935,0.0049744
829.36498,0.0049328
828.40060,0.0048784
827.43622,0.0048534
826.47184,0.0048332
825.50747,0.0048151
824.54309,0.0048113
823.57871,0.0048081
822.61433,0.0048178
821.64995,0.0048449
820.68558,0.0048431
819.72120,0.0047946
818.75682,0.0047533
817.79244,0.0047292
816.82806,0.0047321
815.86369,0.0047811
814.89931,0.0048320
813.93493,0.0048906
812.97055,0.0049631
812.00618,0.0050312
811.04180,0.0051002
810.07742,0.0051230
809.11304,0.0050649
808.14866,0.0049764
807.18429,0.0049051
806.21991,0.0048349
805.25553,0.0047883
804.29115,0.0047865
803.32677,0.0047745
802.36240,0.0047616
801.39802,0.0047773
800.43364,0.0048090
799.46926,0.0048348
798.50488,0.0048087
797.54051,0.0047401
796.57613,0.0046725
795.61175,0.0046136
794.64737,0.0045857
793.68300,0.0046102
792.71862,0.0046544
791.75424,0.0046899
790.78986,0.0047292
789.82548,0.0047840
788.86111,0.0048176
787.89673,0.0047908
786.93235,0.0047581
785.96797,0.0047408
785.00359,0.0047005
784.03922,0.0046494
783.07484,0.0046001
782.11046,0.0045735
781.14608,0.0045682
780.18171,0.0045607
779.21733,0.0045647
778.25295,0.0045895
777.28857,0.0046036
776.32419,0.0045934
775.35982,0.0046435
774.39544,0.0047393
773.43106,0.0047660
772.46668,0.0047387
771.50230,0.0047150
770.53793,0.0047226
769.57355,0.0047395
768.60917,0.0047320
767.64479,0.0047381
766.68041,0.0047732
765.71604,0.0047932
764.75166,0.0047968
763.78728,0.0048395
762.82290,0.0048792
761.85853,0.0048463
760.89415,0.0047862
759.92977,0.0047546
758.96539,0.0047608
758.00101,0.0047632
757.03664,0.0047281
756.07226,0.0046911
755.10788,0.0046826
754.14350,0.0046949
753.17912,0.0047098
752.21475,0.0047080
751.25037,0.0047066
750.28599,0.0047374
749.32161,0.0047842
748.35724,0.0048451
747.39286,0.0049030
746.42848,0.0049298
745.46410,0.0049574
744.49972,0.0049723
743.53535,0.0049640
742.57097,0.0049716
741.60659,0.0049804
740.64221,0.0049442
739.67783,0.0049288
738.71346,0.0049785
737.74908,0.0049906
736.78470,0.0049715
735.82032,0.0049578
734.85594,0.0049599
733.89157,0.0049979
732.92719,0.0049944
731.96281,0.0049683
730.99843,0.0049626
730.03406,0.0049579
729.06968,0.0049787
728.10530,0.0050430
727.14092,0.0050886
726.17654,0.0050596
725.21217,0.0050381
724.24779,0.0050276
723.28341,0.0050081
722.31903,0.0050073
721.35465,0.0049924
720.39028,0.0049917
719.42590,0.0049990
718.46152,0.0050408
717.49714,0.0051531
716.53276,0.0052403
715.56839,0.0052724
714.60401,0.0053032
713.63963,0.0053446
712.67525,0.0053482
711.71088,0.0053226
710.74650,0.0052898
709.78212,0.0052295
708.81774,0.0051651
707.85336,0.0051069
706.88899,0.0050671
705.92461,0.0050362
704.96023,0.0050151
703.99585,0.0050352
703.03147,0.0050602
702.06710,0.0050710
701.10272,0.0050673
700.13834,0.0050664
699.17396,0.0050844
698.20959,0.0050826
697.24521,0.0050765
696.28083,0.0050896
695.31645,0.0051033
694.35207,0.0051161
693.38770,0.0051288
692.42332,0.0051440
691.45894,0.0051620
690.49456,0.0051642
689.53018,0.0051463
688.56581,0.0051418
687.60143,0.0051472
686.63705,0.0051332
685.67267,0.0051204
684.70829,0.0051140
683.74392,0.0051025
682.77954,0.0051075
681.81516,0.0051355
680.85078,0.0051833
679.88641,0.0052286
678.92203,0.0052460
677.95765,0.0052666
676.99327,0.0052890
676.02889,0.0052866
675.06452,0.0052429
674.10014,0.0051643
673.13576,0.0051961
672.17138,0.0053528
671.20700,0.0055147
670.24263,0.0056496
669.27825,0.0057307
668.31387,0.0057576
667.34949,0.0057625
666.38512,0.0057346
665.42074,0.0056505
664.45636,0.0055155
663.49198,0.0053553
662.52760,0.0052409
661.56323,0.0052640
660.59885,0.0053321
659.63447,0.0053611
658.67009,0.0053847
657.70571,0.0053945
656.74134,0.0054126
655.77696,0.0054568
654.81258,0.0054908
653.84820,0.0055165
652.88382,0.0055417
651.91945,0.0055708
650.95507,0.0055924
649.99069,0.0055885
649.02631,0.0055982
648.06194,0.0056152
647.09756,0.0055731
646.13318,0.0055176
645.16880,0.0055147
644.20442,0.0055026
643.24005,0.0054586
642.27567,0.0054411
641.31129,0.0054387
640.34691,0.0054288
639.38253,0.0054614
638.41816,0.0055697
637.45378,0.0057126
636.48940,0.0058058
635.52502,0.0058112
634.56065,0.0058087
633.59627,0.0057972
632.63189,0.0056456
631.66751,0.0054600
630.70313,0.0053374
629.73876,0.0052292
628.77438,0.0052440
627.81000,0.0051570
626.84562,0.0050832
625.88124,0.0050473
624.91687,0.0049772
623.95249,0.0049347
622.98811,0.0045736
622.02373,0.0042679
621.05935,0.0044168
620.09498,0.0050194
619.13060,0.0057371
618.16622,0.0063484
617.20184,0.0072077
616.23747,0.0079682
615.27309,0.0088526
614.30871,0.0096441
613.34433,0.0098075
612.37995,0.0094086
611.41558,0.0083236
610.45120,0.0072808
609.48682,0.0064257
608.52244,0.0055692
607.55806,0.0047991
606.59369,0.0042474
605.62931,0.0043044
604.66493,0.0047684
603.70055,0.0054981
602.73618,0.0062249
601.77180,0.0066704
600.80742,0.0068751
599.84304,0.0068147
598.87866,0.0066062
597.91429,0.0061756
596.94991,0.0057129
595.98553,0.0054883
595.02115,0.0054054
594.05677,0.0053965
593.09240,0.0054382
592.12802,0.0055278
591.16364,0.0057464
590.19926,0.0059765
589.23488,0.0060356
588.27051,0.0060654
587.30613,0.0060912
586.34175,0.0059816
585.37737,0.0058563
584.41300,0.0058759
583.44862,0.0058960
582.48424,0.0057522
581.51986,0.0056119
580.55548,0.0055681
579.59111,0.0055358
578.62673,0.0054303
577.66235,0.0052694
576.69797,0.0051879
575.73359,0.0051622
574.76922,0.0051765
573.80484,0.0052612
572.84046,0.0053803
571.87608,0.0054789
570.91171,0.0055577
569.94733,0.0057190
568.98295,0.0058935
568.01857,0.0060092
567.05419,0.0060467
566.08982,0.0060073
565.12544,0.0060163
564.16106,0.0060607
563.19668,0.0060828
562.23230,0.0060721
561.26793,0.0060095
560.30355,0.0058970
559.33917,0.0057868
558.37479,0.0057026
557.41041,0.0055666
556.44604,0.0054326
555.48166,0.0053346
554.51728,0.0052772
553.55290,0.0053309
552.58853,0.0054285
551.62415,0.0055506
550.65977,0.0057061
549.69539,0.0057876
548.73101,0.0058104
547.76664,0.0058239
546.80226,0.0057500
545.83788,0.0056418
544.87350,0.0055965
543.90912,0.0055637
542.94475,0.0055051
541.98037,0.0054483
541.01599,0.0054373
540.05161,0.0054394
539.08724,0.0054399
538.12286,0.0054957
537.15848,0.0055803
536.19410,0.0056085
535.22972,0.0055988
534.26535,0.0056653
533.30097,0.0057920
532.33659,0.0058789
531.37221,0.0058611
530.40783,0.0057836
529.44346,0.0057057
528.47908,0.0055723
527.51470,0.0054797
526.55032,0.0054837
525.58594,0.0054180
524.62157,0.0052403
523.65719,0.0050997
522.69281,0.0050809
521.72843,0.0051350
520.76406,0.0051913
519.79968,0.0051736
518.83530,0.0051873
517.87092,0.0052688
516.90654,0.0052682
515.94217,0.0052438
514.97779,0.0052805
514.01341,0.0053505
513.04903,0.0054417
512.08465,0.0055811
511.12028,0.0056861
510.15590,0.0057510
509.19152,0.0058568
508.22714,0.0058607
507.26276,0.0058201
506.29839,0.0057681
505.33401,0.0055881
504.36963,0.0054537
503.40525,0.0054874
502.44088,0.0056194
501.47650,0.0057316
500.51212,0.0057801
499.54774,0.0057743
498.58336,0.0057779
497.61899,0.0057998
496.65461,0.0057359
495.69023,0.0056529
494.72585,0.0055825
493.76147,0.0055167
492.79710,0.0054667
491.83272,0.0054191
490.86834,0.0053358
489.90396,0.0051524
488.93959,0.0050436
487.97521,0.0050583
487.01083,0.0050938
486.04645,0.0051512
485.08207,0.0052255
484.11770,0.0053238
483.15332,0.0054009
482.18894,0.0054515
481.22456,0.0054544
480.26018,0.0054578
479.29581,0.0054628
478.33143,0.0053984
477.36705,0.0054119
476.40267,0.0054303
475.43829,0.0053295
474.47392,0.0052328
473.50954,0.0052261
472.54516,0.0052454
471.58078,0.0051885
470.61641,0.0051535
469.65203,0.0052335
468.68765,0.0054388
467.72327,0.0056847
466.75889,0.0058126
465.79452,0.0058077
464.83014,0.0056915
463.86576,0.0055589
462.90138,0.0054747
461.93700,0.0053823
460.97263,0.0052743
460.00825,0.0051843
459.04387,0.0051644
458.07949,0.0051970
457.11512,0.0052510
456.15074,0.0053093
455.18636,0.0052791
454.22198,0.0051429
453.25760,0.0049655
452.29323,0.0048091
451.32885,0.0046968
450.36447,0.0046099
449.40009,0.0046354
448.43571,0.0047593
447.47134,0.0048607
446.50696,0.0049767
445.54258,0.0051132
444.57820,0.0052535
443.61382,0.0053785
442.64945,0.0054403
441.68507,0.0054401
440.72069,0.0054056
439.75631,0.0054004
438.79194,0.0053564
437.82756,0.0052597
436.86318,0.0051613
435.89880,0.0050379
434.93442,0.0049545
433.97005,0.0048801
433.00567,0.0048310
432.04129,0.0048670
431.07691,0.0049156
430.11253,0.0049515
429.14816,0.0050172
428.18378,0.0051389
427.21940,0.0051795
426.25502,0.0051132
425.29065,0.0050747
424.32627,0.0051056
423.36189,0.0051701
422.39751,0.0051840
421.43313,0.0051995
420.46876,0.0052334
419.50438,0.0052206
418.54000,0.0052010
417.57562,0.0052094
416.61124,0.0052001
415.64687,0.0050693
414.68249,0.0049233
413.71811,0.0048886
412.75373,0.0048837
411.78935,0.0048444
410.82498,0.0047610
409.86060,0.0046838
408.89622,0.0046315
407.93184,0.0046057
406.96747,0.0046210
406.00309,0.0046362
405.03871,0.0046209
404.07433,0.0046209
403.10995,0.0046209
402.14558,0.0046209
401.18120,0.0046209
400.21682,0.0046209
399.25244,0.0046209
