3998.31069,-0.0085797
3997.34631,-0.0085797
3996.38194,-0.0085797
3995.41756,-0.0085797
3994.45318,-0.0085797
3993.48880,-0.0085797
3992.52442,-0.0085797
3991.56005,-0.0086118
3990.59567,-0.0085781
3989.63129,-0.0085592
3988.66691,-0.0085537
3987.70253,-0.0085872
3986.73816,-0.0085743
3985.77378,-0.0084865
3984.80940,-0.0084566
3983.84502,-0.0085041
3982.88065,-0.0085558
3981.91627,-0.0085862
3980.95189,-0.0086024
3979.98751,-0.0085473
3979.02313,-0.0084602
3978.05876,-0.0084425
3977.09438,-0.0084709
3976.13000,-0.0085051
3975.16562,-0.0085090
3974.20124,-0.0084951
3973.23687,-0.0085014
3972.27249,-0.0084981
3971.30811,-0.0084536
3970.34373,-0.0084025
3969.37935,-0.0083737
3968.41498,-0.0083164
3967.45060,-0.0082616
3966.48622,-0.0082618
3965.52184,-0.0082528
3964.55747,-0.0082476
3963.59309,-0.0082610
3962.62871,-0.0082524
3961.66433,-0.0082821
3960.69995,-0.0083296
3959.73558,-0.0083173
3958.77120,-0.0083069
3957.80682,-0.0083437
3956.84244,-0.0084073
3955.87806,-0.0084746
3954.91369,-0.0084859
3953.94931,-0.0084342
3952.98493,-0.0084094
3952.02055,-0.0084098
3951.05618,-0.0083900
3950.09180,-0.0083842
3949.12742,-0.0083679
3948.16304,-0.0083460
3947.19866,-0.0083592
3946.23429,-0.0083889
3945.26991,-0.0084189
3944.30553,-0.0084109
3943.34115,-0.0083678
3942.37677,-0.0083312
3941.41240,-0.0083346
3940.44802,-0.0083553
3939.48364,-0.0083113
3938.51926,-0.0082350
3937.55488,-0.0081861
3936.59051,-0.0081187
3935.62613,-0.0080144
3934.66175,-0.0079264
3933.69737,-0.0078776
3932.73300,-0.0079053
3931.76862,-0.0080173
3930.80424,-0.0081228
3929.83986,-0.0082084
3928.87548,-0.0082728
3927.91111,-0.0082742
3926.94673,-0.0082431
3925.98235,-0.0081741
3925.01797,-0.0080253
3924.05359,-0.0078869
3923.08922,-0.0078181
3922.12484,-0.0077507
3921.16046,-0.0077105
3920.19608,-0.0076927
3919.23171,-0.0076918
3918.26733,-0.0077756
3917.30295,-0.0078875
3916.33857,-0.0079768
3915.37419,-0.0080260
3914.40982,-0.0079951
3913.44544,-0.0079136
3912.48106,-0.0078899
3911.51668,-0.0079207
3910.55230,-0.0079327
3909.58793,-0.0079234
3908.62355,-0.0078346
3907.65917,-0.0077738
3906.69479,-0.0078088
3905.73041,-0.0078194
3904.76604,-0.0078003
3903.80166,-0.0077062
3902.83728,-0.0075654
3901.87290,-0.0074848
3900.90853,-0.0075252
3899.94415,-0.0076184
3898.97977,-0.0076387
3898.01539,-0.0076402
3897.05101,-0.0076154
3896.08664,-0.0075923
3895.12226,-0.0076312
3894.15788,-0.0077009
3893.19350,-0.0077565
3892.22912,-0.0077091
3891.26475,-0.0076392
3890.30037,-0.0075984
3889.33599,-0.0075602
3888.37161,-0.0074993
3887.40724,-0.0074174
3886.44286,-0.0074273
3885.47848,-0.0074324
3884.51410,-0.0074028
3883.54972,-0.0074726
3882.58535,-0.0076038
3881.62097,-0.0076814
3880.65659,-0.0076457
3879.69221,-0.0075831
3878.72783,-0.0075310
3877.76346,-0.0074831
3876.79908,-0.0075051
3875.83470,-0.0075662
3874.87032,-0.0075449
3873.90594,-0.0074480
3872.94157,-0.0074374
3871.97719,-0.0074895
3871.01281,-0.0074816
3870.04843,-0.0074028
3869.08406,-0.0072684
3868.11968,-0.0071786
3867.15530,-0.0071351
3866.19092,-0.0071215
3865.22654,-0.0072101
3864.26217,-0.0073024
3863.29779,-0.0073420
3862.33341,-0.0074391
3861.36903,-0.0076204
3860.40465,-0.0077928
3859.44028,-0.0078199
3858.47590,-0.0077031
3857.51152,-0.0075184
3856.54714,-0.0072997
3855.58276,-0.0070731
3854.61839,-0.0069003
3853.65401,-0.0068250
3852.68963,-0.0067880
3851.72525,-0.0067932
3850.76088,-0.0068843
3849.79650,-0.0070355
3848.83212,-0.0072007
3847.86774,-0.0072818
3846.90336,-0.0073448
3845.93899,-0.0074406
3844.97461,-0.0074549
3844.01023,-0.0074591
3843.04585,-0.0075108
3842.08147,-0.0075230
3841.11710,-0.0074632
3840.15272,-0.0073587
3839.18834,-0.0072848
3838.22396,-0.0072297
3837.25959,-0.0071526
3836.29521,-0.0071035
3835.33083,-0.0071376
3834.36645,-0.0071985
3833.40207,-0.0071879
3832.43770,-0.0071728
3831.47332,-0.0072038
3830.50894,-0.0072391
3829.54456,-0.0072514
3828.58018,-0.0072211
3827.61581,-0.0072208
3826.65143,-0.0072332
3825.68705,-0.0072045
3824.72267,-0.0071743
3823.75829,-0.0071431
3822.79392,-0.0071312
3821.82954,-0.0071176
3820.86516,-0.0070918
3819.90078,-0.0070994
3818.93641,-0.0071405
3817.97203,-0.0072138
3817.00765,-0.0072462
3816.04327,-0.0072124
3815.07889,-0.0071792
3814.11452,-0.0071824
3813.15014,-0.0072104
3812.18576,-0.0072165
3811.22138,-0.0072009
3810.25700,-0.0071508
3809.29263,-0.0071132
3808.32825,-0.0071500
3807.36387,-0.0072158
3806.39949,-0.0072374
3805.43512,-0.0071119
3804.47074,-0.0069495
3803.50636,-0.0069127
3802.54198,-0.0069429
3801.57760,-0.0069739
3800.61323,-0.0069416
3799.64885,-0.0068968
3798.68447,-0.0069347
3797.72009,-0.0070408
3796.75571,-0.0071625
3795.79134,-0.0072077
3794.82696,-0.0071580
3793.86258,-0.0070746
3792.89820,-0.0070309
3791.93382,-0.0070336
3790.96945,-0.0070413
3790.00507,-0.0070455
3789.04069,-0.0070030
3788.07631,-0.0069501
3787.11194,-0.0069275
3786.14756,-0.0069201
3785.18318,-0.0069370
3784.21880,-0.0069664
3783.25442,-0.0070087
3782.29005,-0.0070105
3781.32567,-0.0069714
3780.36129,-0.0069761
3779.39691,-0.0070120
3778.43253,-0.0070277
3777.46816,-0.0069906
3776.50378,-0.0069512
3775.53940,-0.0070256
3774.57502,-0.0071770
3773.61065,-0.0072773
3772.64627,-0.0073331
3771.68189,-0.0073295
3770.71751,-0.0071958
3769.75313,-0.0070249
3768.78876,-0.0069047
3767.82438,-0.0068101
3766.86000,-0.0067166
3765.89562,-0.0066768
3764.93124,-0.0067461
3763.96687,-0.0068896
3763.00249,-0.0070166
3762.03811,-0.0070150
3761.07373,-0.0069475
3760.10935,-0.0068921
3759.14498,-0.0068188
3758.18060,-0.0067436
3757.21622,-0.0066043
3756.25184,-0.0064175
3755.28747,-0.0062222
3754.32309,-0.0060075
3753.35871,-0.0058294
3752.39433,-0.0057233
3751.42995,-0.0057338
3750.46558,-0.0057600
3749.50120,-0.0057050
3748.53682,-0.0056886
3747.57244,-0.0057789
3746.60806,-0.0059122
3745.64369,-0.0059961
3744.67931,-0.0061135
3743.71493,-0.0062457
3742.75055,-0.0062785
3741.78618,-0.0063015
3740.82180,-0.0063607
3739.85742,-0.0063871
3738.89304,-0.0063150
3737.92866,-0.0061420
3736.96429,-0.0059957
3735.99991,-0.0059608
3735.03553,-0.0060063
3734.07115,-0.0061200
3733.10677,-0.0063041
3732.14240,-0.0064598
3731.17802,-0.0065333
3730.21364,-0.0065408
3729.24926,-0.0065077
3728.28488,-0.0064435
3727.32051,-0.0063715
3726.35613,-0.0063195
3725.39175,-0.0062478
3724.42737,-0.0061543
3723.46300,-0.0060763
3722.49862,-0.0060846
3721.53424,-0.0061954
3720.56986,-0.0063503
3719.60548,-0.0065278
3718.64111,-0.0066748
3717.67673,-0.0067940
3716.71235,-0.0068690
3715.74797,-0.0068267
3714.78359,-0.0067151
3713.81922,-0.0065934
3712.85484,-0.0064282
3711.89046,-0.0061987
3710.92608,-0.0060036
3709.96171,-0.0059013
3708.99733,-0.0058358
3708.03295,-0.0058059
3707.06857,-0.0058126
3706.10419,-0.0058058
3705.13982,-0.0057858
3704.17544,-0.0057636
3703.21106,-0.0057808
3702.24668,-0.0058934
3701.28230,-0.0059794
3700.31793,-0.0059928
3699.35355,-0.0060295
3698.38917,-0.0060734
3697.42479,-0.0061372
3696.46041,-0.0062340
3695.49604,-0.0063154
3694.53166,-0.0063584
3693.56728,-0.0063221
3692.60290,-0.0061523
3691.63853,-0.0059644
3690.67415,-0.0059104
3689.70977,-0.0058593
3688.74539,-0.0058079
3687.78101,-0.0058403
3686.81664,-0.0059100
3685.85226,-0.0060596
3684.88788,-0.0062208
3683.92350,-0.0063404
3682.95912,-0.0064464
3681.99475,-0.0064587
3681.03037,-0.0063234
3680.06599,-0.0061671
3679.10161,-0.0060928
3678.13724,-0.0059952
3677.17286,-0.0059252
3676.20848,-0.0059100
3675.24410,-0.0058570
3674.27972,-0.0058099
3673.31535,-0.0057363
3672.35097,-0.0056361
3671.38659,-0.0056153
3670.42221,-0.0056866
3669.45783,-0.0057059
3668.49346,-0.0056820
3667.52908,-0.0057270
3666.56470,-0.0057817
3665.60032,-0.0058583
3664.63594,-0.0059058
3663.67157,-0.0058798
3662.70719,-0.0058807
3661.74281,-0.0058677
3660.77843,-0.0058051
3659.81406,-0.0057508
3658.84968,-0.0057218
3657.88530,-0.0056485
3656.92092,-0.0055414
3655.95654,-0.0054525
3654.99217,-0.0053515
3654.02779,-0.0052659
3653.06341,-0.0051843
3652.09903,-0.0051237
3651.13465,-0.0051407
3650.17028,-0.0051624
3649.20590,-0.0051185
3648.24152,-0.0050523
3647.27714,-0.0050049
3646.31276,-0.0049131
3645.34839,-0.0047961
3644.38401,-0.0047543
3643.41963,-0.0047587
3642.45525,-0.0047344
3641.49088,-0.0047049
3640.52650,-0.0047049
3639.56212,-0.0047043
3638.59774,-0.0047028
3637.63336,-0.0046980
3636.66899,-0.0047005
3635.70461,-0.0046656
3634.74023,-0.0045026
3633.77585,-0.0043035
3632.81147,-0.0041721
3631.84710,-0.0040703
3630.88272,-0.0039329
3629.91834,-0.0038328
3628.95396,-0.0038180
3627.98959,-0.0038193
3627.02521,-0.0038928
3626.06083,-0.0040223
3625.09645,-0.0041356
3624.13207,-0.0042204
3623.16770,-0.0042389
3622.20332,-0.0042140
3621.23894,-0.0041553
3620.27456,-0.0040696
3619.31018,-0.0039617
3618.34581,-0.0038996
3617.38143,-0.0039102
3616.41705,-0.0039163
3615.45267,-0.0039649
3614.48829,-0.0039935
3613.52392,-0.0039286
3612.55954,-0.0038433
3611.59516,-0.0037234
3610.63078,-0.0035705
3609.66641,-0.0034276
3608.70203,-0.0033186
3607.73765,-0.0032759
3606.77327,-0.0033136
3605.80889,-0.0033687
3604.84452,-0.0034197
3603.88014,-0.0034788
3602.91576,-0.0034517
3601.95138,-0.0033674
3600.98700,-0.0033240
3600.02263,-0.0033101
3599.05825,-0.0032998
3598.09387,-0.0032909
3597.12949,-0.0032770
3596.16512,-0.0032704
3595.20074,-0.0033204
3594.23636,-0.0033941
3593.27198,-0.0034760
3592.30760,-0.0035184
3591.34323,-0.0034551
3590.37885,-0.0034084
3589.41447,-0.0034241
3588.45009,-0.0034546
3587.48571,-0.0034324
3586.52134,-0.0033500
3585.55696,-0.0033004
3584.59258,-0.0032681
3583.62820,-0.0032670
3582.66382,-0.0032938
3581.69945,-0.0032933
3580.73507,-0.0032393
3579.77069,-0.0031549
3578.80631,-0.0031567
3577.84194,-0.0032499
3576.87756,-0.0033963
3575.91318,-0.0035295
3574.94880,-0.0036019
3573.98442,-0.0036640
3573.02005,-0.0036786
3572.05567,-0.0036265
3571.09129,-0.0035011
3570.12691,-0.0033514
3569.16253,-0.0032476
3568.19816,-0.0031138
3567.23378,-0.0029635
3566.26940,-0.0028619
3565.30502,-0.0027976
3564.34065,-0.0027170
3563.37627,-0.0025923
3562.41189,-0.0025202
3561.44751,-0.0025325
3560.48313,-0.0025638
3559.51876,-0.0026230
3558.55438,-0.0027563
3557.59000,-0.0029151
3556.62562,-0.0029838
3555.66124,-0.0029781
3554.69687,-0.0029894
3553.73249,-0.0030089
3552.76811,-0.0029788
3551.80373,-0.0028781
3550.83935,-0.0027621
3549.87498,-0.0026752
3548.91060,-0.0026151
3547.94622,-0.0026122
3546.98184,-0.0026360
3546.01747,-0.0026405
3545.05309,-0.0026349
3544.08871,-0.0026202
3543.12433,-0.0026664
3542.15995,-0.0027822
3541.19558,-0.0028358
3540.23120,-0.0027815
3539.26682,-0.0026944
3538.30244,-0.0026412
3537.33806,-0.0026130
3536.37369,-0.0025707
3535.40931,-0.0024934
3534.44493,-0.0023926
3533.48055,-0.0023098
3532.51618,-0.0022478
3531.55180,-0.0022194
3530.58742,-0.0022533
3529.62304,-0.0022757
3528.65866,-0.0022411
3527.69429,-0.0021921
3526.72991,-0.0021527
3525.76553,-0.0021596
3524.80115,-0.0021919
3523.83677,-0.0021942
3522.87240,-0.0021951
3521.90802,-0.0021978
3520.94364,-0.0021514
3519.97926,-0.0020741
3519.01488,-0.0020393
3518.05051,-0.0020333
3517.08613,-0.0019856
3516.12175,-0.0018919
3515.15737,-0.0018183
3514.19300,-0.0018099
3513.22862,-0.0018213
3512.26424,-0.0018329
3511.29986,-0.0018476
3510.33548,-0.0018155
3509.37111,-0.0017486
3508.40673,-0.0017042
3507.44235,-0.0016656
3506.47797,-0.0016155
3505.51359,-0.0015609
3504.54922,-0.0014764
3503.58484,-0.0013995
3502.62046,-0.0013491
3501.65608,-0.0013138
3500.69171,-0.0013257
3499.72733,-0.0013195
3498.76295,-0.0012835
3497.79857,-0.0012676
3496.83419,-0.0012331
3495.86982,-0.0011793
3494.90544,-0.0011681
3493.94106,-0.0012088
3492.97668,-0.0012324
3492.01230,-0.0012626
3491.04793,-0.0013110
3490.08355,-0.0013155
3489.11917,-0.0012999
3488.15479,-0.0012704
3487.19041,-0.0012371
3486.22604,-0.0011730
3485.26166,-0.0010523
3484.29728,-0.0009639
3483.33290,-0.0009287
3482.36853,-0.0008929
3481.40415,-0.0008405
3480.43977,-0.0008153
3479.47539,-0.0007924
3478.51101,-0.0007184
3477.54664,-0.0006457
3476.58226,-0.0005897
3475.61788,-0.0005253
3474.65350,-0.0004511
3473.68912,-0.0003940
3472.72475,-0.0003699
3471.76037,-0.0003503
3470.79599,-0.0003282
3469.83161,-0.0003197
3468.86724,-0.0003363
3467.90286,-0.0003501
3466.93848,-0.0003514
3465.97410,-0.0003384
3465.00972,-0.0003042
3464.04535,-0.0002834
3463.08097,-0.0002709
3462.11659,-0.0002489
3461.15221,-0.0001918
3460.18783,-0.0000892
3459.22346,0.0000234
3458.25908,0.0001319
3457.29470,0.0002086
3456.33032,0.0002521
3455.36594,0.0002721
3454.40157,0.0002674
3453.43719,0.0002481
3452.47281,0.0002060
3451.50843,0.0001619
3450.54406,0.0001314
3449.57968,0.0001256
3448.61530,0.0001442
3447.65092,0.0001808
3446.68654,0.0002460
3445.72217,0.0003038
3444.75779,0.0003865
3443.79341,0.0004967
3442.82903,0.0005441
3441.86465,0.0005694
3440.90028,0.0006248
3439.93590,0.0006636
3438.97152,0.0006618
3438.00714,0.0006371
3437.04276,0.0005930
3436.07839,0.0005568
3435.11401,0.0005612
3434.14963,0.0005997
3433.18525,0.0006932
3432.22088,0.0007566
3431.25650,0.0007232
3430.29212,0.0007006
3429.32774,0.0007022
3428.36336,0.0006700
3427.39899,0.0005986
3426.43461,0.0005283
3425.47023,0.0004901
3424.50585,0.0004580
3423.54147,0.0004333
3422.57710,0.0004570
3421.61272,0.0005411
3420.64834,0.0006271
3419.68396,0.0007204
3418.71959,0.0008335
3417.75521,0.0009071
3416.79083,0.0009683
3415.82645,0.0010440
3414.86207,0.0011273
3413.89770,0.0011714
3412.93332,0.0011161
3411.96894,0.0010161
3411.00456,0.0009599
3410.04018,0.0009747
3409.07581,0.0010066
3408.11143,0.0010249
3407.14705,0.0010286
3406.18267,0.0010388
3405.21829,0.0010940
3404.25392,0.0011665
3403.28954,0.0012415
3402.32516,0.0012594
3401.36078,0.0012079
3400.39641,0.0011626
3399.43203,0.0011347
3398.46765,0.0011349
3397.50327,0.0011454
3396.53889,0.0011686
3395.57452,0.0012060
3394.61014,0.0012404
3393.64576,0.0012928
3392.68138,0.0013457
3391.71700,0.0013980
3390.75263,0.0014052
3389.78825,0.0013624
3388.82387,0.0013353
3387.85949,0.0013046
3386.89512,0.0012813
3385.93074,0.0013014
3384.96636,0.0013660
3384.00198,0.0014252
3383.03760,0.0014614
3382.07323,0.0015296
3381.10885,0.0015972
3380.14447,0.0016378
3379.18009,0.0016687
3378.21571,0.0016837
3377.25134,0.0016964
3376.28696,0.0017232
3375.32258,0.0017617
3374.35820,0.0018011
3373.39382,0.0018387
3372.42945,0.0018406
3371.46507,0.0018098
3370.50069,0.0018041
3369.53631,0.0017897
3368.57194,0.0017379
3367.60756,0.0017174
3366.64318,0.0017400
3365.67880,0.0017731
3364.71442,0.0018263
3363.75005,0.0018552
3362.78567,0.0018441
3361.82129,0.0018313
3360.85691,0.0017850
3359.89253,0.0017336
3358.92816,0.0017207
3357.96378,0.0016839
3356.99940,0.0016125
3356.03502,0.0015876
3355.07065,0.0016089
3354.10627,0.0016049
3353.14189,0.0015910
3352.17751,0.0015917
3351.21313,0.0016127
3350.24876,0.0016471
3349.28438,0.0016673
3348.32000,0.0017143
3347.35562,0.0017713
3346.39124,0.0018012
3345.42687,0.0018382
3344.46249,0.0018905
3343.49811,0.0019371
3342.53373,0.0019323
3341.56935,0.0018964
3340.60498,0.0018696
3339.64060,0.0018301
3338.67622,0.0017728
3337.71184,0.0017199
3336.74747,0.0017130
3335.78309,0.0017170
3334.81871,0.0017121
3333.85433,0.0017576
3332.88995,0.0018265
3331.92558,0.0018835
3330.96120,0.0019370
3329.99682,0.0020009
3329.03244,0.0020757
3328.06806,0.0021296
3327.10369,0.0021594
3326.13931,0.0021667
3325.17493,0.0021434
3324.21055,0.0020817
3323.24618,0.0019783
3322.28180,0.0018630
3321.31742,0.0017681
3320.35304,0.0017194
3319.38866,0.0017339
3318.42429,0.0017661
3317.45991,0.0017675
3316.49553,0.0017774
3315.53115,0.0018216
3314.56677,0.0018584
3313.60240,0.0018646
3312.63802,0.0018661
3311.67364,0.0018551
3310.70926,0.0017938
3309.74488,0.0017453
3308.78051,0.0017426
3307.81613,0.0017468
3306.85175,0.0017571
3305.88737,0.0017437
3304.92300,0.0017207
3303.95862,0.0017573
3302.99424,0.0018499
3302.02986,0.0019184
3301.06548,0.0019453
3300.10111,0.0019685
3299.13673,0.0019577
3298.17235,0.0019270
3297.20797,0.0018708
3296.24359,0.0018011
3295.27922,0.0017925
3294.31484,0.0017839
3293.35046,0.0017750
3292.38608,0.0018022
3291.42171,0.0018081
3290.45733,0.0017905
3289.49295,0.0017972
3288.52857,0.0018354
3287.56419,0.0018358
3286.59982,0.0017844
3285.63544,0.0016962
3284.67106,0.0016355
3283.70668,0.0016661
3282.74230,0.0017047
3281.77793,0.0017301
3280.81355,0.0017078
3279.84917,0.0016490
3278.88479,0.0016571
3277.92041,0.0016882
3276.95604,0.0017016
3275.99166,0.0016783
3275.02728,0.0016239
3274.06290,0.0015694
3273.09853,0.0015511
3272.13415,0.0016089
3271.16977,0.0016545
3270.20539,0.0016712
3269.24101,0.0016880
3268.27664,0.0016956
3267.31226,0.0017192
3266.34788,0.0017363
3265.38350,0.0017752
3264.41912,0.0018222
3263.45475,0.0018041
3262.49037,0.0017559
3261.52599,0.0017503
3260.56161,0.0017805
3259.59724,0.0017589
3258.63286,0.0016809
3257.66848,0.0016048
3256.70410,0.0015494
3255.73972,0.0015278
3254.77535,0.0015410
3253.81097,0.0015873
3252.84659,0.0016334
3251.88221,0.0016286
3250.91783,0.0016291
3249.95346,0.0017012
3248.98908,0.0017521
3248.02470,0.0017283
3247.06032,0.0016662
3246.09594,0.0015701
3245.13157,0.0014762
3244.16719,0.0013985
3243.20281,0.0013625
3242.23843,0.0013861
3241.27406,0.0014316
3240.30968,0.0014889
3239.34530,0.0015354
3238.38092,0.0015896
3237.41654,0.0016514
3236.45217,0.0016822
3235.48779,0.0016776
3234.52341,0.0016191
3233.55903,0.0015520
3232.59465,0.0015228
3231.63028,0.0015155
3230.66590,0.0015009
3229.70152,0.0014683
3228.73714,0.0014340
3227.77276,0.0013835
3226.80839,0.0013596
3225.84401,0.0013837
3224.87963,0.0013961
3223.91525,0.0014055
3222.95088,0.0014253
3221.98650,0.0014575
3221.02212,0.0015257
3220.05774,0.0015859
3219.09336,0.0015879
3218.12899,0.0015574
3217.16461,0.0015010
3216.20023,0.0014365
3215.23585,0.0014028
3214.27147,0.0013527
3213.30710,0.0012907
3212.34272,0.0012723
3211.37834,0.0012830
3210.41396,0.0013173
3209.44959,0.0013849
3208.48521,0.0014560
3207.52083,0.0014565
3206.55645,0.0013849
3205.59207,0.0013252
3204.62770,0.0013152
3203.66332,0.0013378
3202.69894,0.0013367
3201.73456,0.0013185
3200.77018,0.0013296
3199.80581,0.0013452
3198.84143,0.0013603
3197.87705,0.0013570
3196.91267,0.0012959
3195.94829,0.0011830
3194.98392,0.0010484
3194.01954,0.0009611
3193.05516,0.0009292
3192.09078,0.0009196
3191.12641,0.0009179
3190.16203,0.0008913
3189.19765,0.0008999
3188.23327,0.0009902
3187.26889,0.0010838
3186.30452,0.0011278
3185.34014,0.0011406
3184.37576,0.0011501
3183.41138,0.0011527
3182.44700,0.0011681
3181.48263,0.0012046
3180.51825,0.0012096
3179.55387,0.0011463
3178.58949,0.0010571
3177.62512,0.0010336
3176.66074,0.0010373
3175.69636,0.0009988
3174.73198,0.0009665
3173.76760,0.0009599
3172.80323,0.0009755
3171.83885,0.0010220
3170.87447,0.0010826
3169.91009,0.0011175
3168.94571,0.0011018
3167.98134,0.0010541
3167.01696,0.0010421
3166.05258,0.0010986
3165.08820,0.0011209
3164.12382,0.0011010
3163.15945,0.0011142
3162.19507,0.0011417
3161.23069,0.0011794
3160.26631,0.0012147
3159.30194,0.0012325
3158.33756,0.0012262
3157.37318,0.0011880
3156.40880,0.0011317
3155.44442,0.0010804
3154.48005,0.0010598
3153.51567,0.0010238
3152.55129,0.0009809
3151.58691,0.0009826
3150.62253,0.0009993
3149.65816,0.0010249
3148.69378,0.0010652
3147.72940,0.0011162
3146.76502,0.0011571
3145.80065,0.0011753
3144.83627,0.0011761
3143.87189,0.0011479
3142.90751,0.0011134
3141.94313,0.0010852
3140.97876,0.0010557
3140.01438,0.0010198
3139.05000,0.0009762
3138.08562,0.0009368
3137.12124,0.0009066
3136.15687,0.0008861
3135.19249,0.0008716
3134.22811,0.0008763
3133.26373,0.0008712
3132.29935,0.0008339
3131.33498,0.0008049
3130.37060,0.0007997
3129.40622,0.0008076
3128.44184,0.0008108
3127.47747,0.0008323
3126.51309,0.0008748
3125.54871,0.0008866
3124.58433,0.0008727
3123.61995,0.0008805
3122.65558,0.0008973
3121.69120,0.0008631
3120.72682,0.0008299
3119.76244,0.0008242
3118.79806,0.0007794
3117.83369,0.0007156
3116.86931,0.0006670
3115.90493,0.0006544
3114.94055,0.0006452
3113.97618,0.0005997
3113.01180,0.0005598
3112.04742,0.0005526
3111.08304,0.0005648
3110.11866,0.0005583
3109.15429,0.0005729
3108.18991,0.0006275
3107.22553,0.0006446
3106.26115,0.0006440
3105.29677,0.0006557
3104.33240,0.0006496
3103.36802,0.0006113
3102.40364,0.0005566
3101.43926,0.0005118
3100.47488,0.0004822
3099.51051,0.0004855
3098.54613,0.0005095
3097.58175,0.0005471
3096.61737,0.0006140
3095.65300,0.0006473
3094.68862,0.0006299
3093.72424,0.0006074
3092.75986,0.0005513
3091.79548,0.0004675
3090.83111,0.0004127
3089.86673,0.0003882
3088.90235,0.0003894
3087.93797,0.0004339
3086.97359,0.0005044
3086.00922,0.0005380
3085.04484,0.0005329
3084.08046,0.0005123
3083.11608,0.0004705
3082.15171,0.0004488
3081.18733,0.0004340
3080.22295,0.0004086
3079.25857,0.0003955
3078.29419,0.0003633
3077.32982,0.0003401
3076.36544,0.0003566
3075.40106,0.0003645
3074.43668,0.0003393
3073.47230,0.0003022
3072.50793,0.0002654
3071.54355,0.0002408
3070.57917,0.0002730
3069.61479,0.0003258
3068.65041,0.0003536
3067.68604,0.0003756
3066.72166,0.0003691
3065.75728,0.0003553
3064.79290,0.0003522
3063.82853,0.0003452
3062.86415,0.0003640
3061.89977,0.0003591
3060.93539,0.0003130
3059.97101,0.0003196
3059.00664,0.0003645
3058.04226,0.0003826
3057.07788,0.0004060
3056.11350,0.0004490
3055.14912,0.0004552
3054.18475,0.0004162
3053.22037,0.0003661
3052.25599,0.0003214
3051.29161,0.0002846
3050.32724,0.0002183
3049.36286,0.0001443
3048.39848,0.0001190
3047.43410,0.0001030
3046.46972,0.0000931
3045.50535,0.0001220
3044.54097,0.0001549
3043.57659,0.0001478
3042.61221,0.0001128
3041.64783,0.0000903
3040.68346,0.0000722
3039.71908,0.0000768
3038.75470,0.0001331
3037.79032,0.0002019
3036.82594,0.0002396
3035.86157,0.0002361
3034.89719,0.0002228
3033.93281,0.0002049
3032.96843,0.0001434
3032.00406,0.0000547
3031.03968,-0.0000160
3030.07530,-0.0000697
3029.11092,-0.0000726
3028.14654,0.0000102
3027.18217,0.0001097
3026.21779,0.0001831
3025.25341,0.0002244
3024.28903,0.0002321
3023.32465,0.0002306
3022.36028,0.0002031
3021.39590,0.0001493
3020.43152,0.0001017
3019.46714,0.0000527
3018.50276,-0.0000009
3017.53839,0.0000102
3016.57401,0.0000651
3015.60963,0.0000845
3014.64525,0.0001206
3013.68088,0.0001580
3012.71650,0.0001508
3011.75212,0.0001234
3010.78774,0.0000996
3009.82336,0.0001093
3008.85899,0.0001008
3007.89461,0.0000392
3006.93023,-0.0000357
3005.96585,-0.0000637
3005.00147,-0.0000549
3004.03710,-0.0000709
3003.07272,-0.0000760
3002.10834,-0.0000687
3001.14396,-0.0000553
3000.17959,-0.0000144
2999.21521,0.0000390
2998.25083,0.0000819
2997.28645,0.0000636
2996.32207,0.0000087
2995.35770,-0.0000362
2994.39332,-0.0000648
2993.42894,-0.0000899
2992.46456,-0.0001283
2991.50018,-0.0001546
2990.53581,-0.0001542
2989.57143,-0.0001174
2988.60705,-0.0000661
2987.64267,-0.0000300
2986.67829,-0.0000268
2985.71392,-0.0000686
2984.74954,-0.0001159
2983.78516,-0.0001532
2982.82078,-0.0001743
2981.85641,-0.0001798
2980.89203,-0.0001931
2979.92765,-0.0002190
2978.96327,-0.0002154
2977.99889,-0.0001654
2977.03452,-0.0001299
2976.07014,-0.0001039
2975.10576,-0.0000997
2974.14138,-0.0001331
2973.17700,-0.0001426
2972.21263,-0.0001188
2971.24825,-0.0000836
2970.28387,-0.0000769
2969.31949,-0.0000905
2968.35512,-0.0001031
2967.39074,-0.0001253
2966.42636,-0.0001552
2965.46198,-0.0002089
2964.49760,-0.0002431
2963.53323,-0.0002587
2962.56885,-0.0002853
2961.60447,-0.0002795
2960.64009,-0.0002446
2959.67571,-0.0002157
2958.71134,-0.0001967
2957.74696,-0.0001661
2956.78258,-0.0001503
2955.81820,-0.0001634
2954.85382,-0.0001779
2953.88945,-0.0001932
2952.92507,-0.0001808
2951.96069,-0.0001591
2950.99631,-0.0001758
2950.03194,-0.0001941
2949.06756,-0.0001758
2948.10318,-0.0001669
2947.13880,-0.0001933
2946.17442,-0.0002130
2945.21005,-0.0002198
2944.24567,-0.0002045
2943.28129,-0.0001817
2942.31691,-0.0001738
2941.35253,-0.0001676
2940.38816,-0.0001806
2939.42378,-0.0001938
2938.45940,-0.0001920
2937.49502,-0.0001893
2936.53065,-0.0002028
2935.56627,-0.0002316
2934.60189,-0.0002286
2933.63751,-0.0002082
2932.67313,-0.0001977
2931.70876,-0.0002058
2930.74438,-0.0002411
2929.78000,-0.0002837
2928.81562,-0.0003178
2927.85124,-0.0003283
2926.88687,-0.0003411
2925.92249,-0.0003595
2924.95811,-0.0003623
2923.99373,-0.0003477
2923.02935,-0.0002937
2922.06498,-0.0002415
2921.10060,-0.0002205
2920.13622,-0.0002179
2919.17184,-0.0002393
2918.20747,-0.0002590
2917.24309,-0.0002581
2916.27871,-0.0002339
2915.31433,-0.0002058
2914.34995,-0.0002022
2913.38558,-0.0002251
2912.42120,-0.0002439
2911.45682,-0.0002341
2910.49244,-0.0002234
2909.52806,-0.0002156
2908.56369,-0.0002161
2907.59931,-0.0002155
2906.63493,-0.0001904
2905.67055,-0.0001647
2904.70618,-0.0001307
2903.74180,-0.0001233
2902.77742,-0.0001704
2901.81304,-0.0002238
2900.84866,-0.0002543
2899.88429,-0.0002455
2898.91991,-0.0002276
2897.95553,-0.0002129
2896.99115,-0.0001918
2896.02677,-0.0001805
2895.06240,-0.0001839
2894.09802,-0.0001992
2893.13364,-0.0002113
2892.16926,-0.0002423
2891.20488,-0.0002726
2890.24051,-0.0002589
2889.27613,-0.0002330
2888.31175,-0.0002173
2887.34737,-0.0002164
2886.38300,-0.0002126
2885.41862,-0.0002169
2884.45424,-0.0002534
2883.48986,-0.0002813
2882.52548,-0.0002761
2881.56111,-0.0002563
2880.59673,-0.0002423
2879.63235,-0.0002227
2878.66797,-0.0001960
2877.70359,-0.0001815
2876.73922,-0.0001725
2875.77484,-0.0001618
2874.81046,-0.0001643
2873.84608,-0.0002050
2872.88171,-0.0002613
2871.91733,-0.0002917
2870.95295,-0.0003025
2869.98857,-0.0003142
2869.02419,-0.0003126
2868.05982,-0.0002823
2867.09544,-0.0002396
2866.13106,-0.0001880
2865.16668,-0.0001364
2864.20230,-0.0000832
2863.23793,-0.0000219
2862.27355,-0.0000060
2861.30917,-0.0000426
2860.34479,-0.0000769
2859.38041,-0.0001186
2858.41604,-0.0001665
2857.45166,-0.0001787
2856.48728,-0.0002026
2855.52290,-0.0002517
2854.55853,-0.0002644
2853.59415,-0.0002419
2852.62977,-0.0001962
2851.66539,-0.0001555
2850.70101,-0.0001611
2849.73664,-0.0001880
2848.77226,-0.0001831
2847.80788,-0.0001670
2846.84350,-0.0001672
2845.87912,-0.0001647
2844.91475,-0.0001881
2843.95037,-0.0002188
2842.98599,-0.0002336
2842.02161,-0.0002601
2841.05724,-0.0002936
2840.09286,-0.0003289
2839.12848,-0.0003473
2838.16410,-0.0003595
2837.19972,-0.0003505
2836.23535,-0.0003269
2835.27097,-0.0003342
2834.30659,-0.0003257
2833.34221,-0.0003033
2832.37783,-0.0002950
2831.41346,-0.0003097
2830.44908,-0.0003464
2829.48470,-0.0003656
2828.52032,-0.0003566
2827.55594,-0.0003235
2826.59157,-0.0003139
2825.62719,-0.0003308
2824.66281,-0.0003565
2823.69843,-0.0003990
2822.73406,-0.0004156
2821.76968,-0.0004181
2820.80530,-0.0004239
2819.84092,-0.0004231
2818.87654,-0.0004118
2817.91217,-0.0003733
2816.94779,-0.0003168
2815.98341,-0.0002702
2815.01903,-0.0002676
2814.05465,-0.0002829
2813.09028,-0.0002817
2812.12590,-0.0002841
2811.16152,-0.0002921
2810.19714,-0.0003064
2809.23276,-0.0003296
2808.26839,-0.0003478
2807.30401,-0.0003614
2806.33963,-0.0003686
2805.37525,-0.0003621
2804.41088,-0.0003641
2803.44650,-0.0003737
2802.48212,-0.0003615
2801.51774,-0.0003292
2800.55336,-0.0003016
2799.58899,-0.0002989
2798.62461,-0.0003087
2797.66023,-0.0003393
2796.69585,-0.0003868
2795.73147,-0.0004084
2794.76710,-0.0004055
2793.80272,-0.0003941
2792.83834,-0.0003848
2791.87396,-0.0003790
2790.90959,-0.0003669
2789.94521,-0.0003308
2788.98083,-0.0002837
2788.01645,-0.0002582
2787.05207,-0.0002414
2786.08770,-0.0002486
2785.12332,-0.0002600
2784.15894,-0.0002313
2783.19456,-0.0002065
2782.23018,-0.0002065
2781.26581,-0.0002154
2780.30143,-0.0002325
2779.33705,-0.0002582
2778.37267,-0.0002756
2777.40829,-0.0002844
2776.44392,-0.0003030
2775.47954,-0.0003301
2774.51516,-0.0003682
2773.55078,-0.0003763
2772.58641,-0.0003400
2771.62203,-0.0003098
2770.65765,-0.0002775
2769.69327,-0.0002390
2768.72889,-0.0002314
2767.76452,-0.0002460
2766.80014,-0.0002486
2765.83576,-0.0002422
2764.87138,-0.0002453
2763.90700,-0.0002567
2762.94263,-0.0002687
2761.97825,-0.0002699
2761.01387,-0.0002684
2760.04949,-0.0002782
2759.08512,-0.0002802
2758.12074,-0.0002773
2757.15636,-0.0002860
2756.19198,-0.0002820
2755.22760,-0.0002652
2754.26323,-0.0002435
2753.29885,-0.0002132
2752.33447,-0.0001958
2751.37009,-0.0001820
2750.40571,-0.0001749
2749.44134,-0.0001945
2748.47696,-0.0002252
2747.51258,-0.0002522
2746.54820,-0.0002702
2745.58382,-0.0002983
2744.61945,-0.0003404
2743.65507,-0.0003703
2742.69069,-0.0003708
2741.72631,-0.0003509
2740.76194,-0.0003420
2739.79756,-0.0003280
2738.83318,-0.0002969
2737.86880,-0.0002757
2736.90442,-0.0002718
2735.94005,-0.0002727
2734.97567,-0.0002551
2734.01129,-0.0002277
2733.04691,-0.0002036
2732.08253,-0.0001836
2731.11816,-0.0001726
2730.15378,-0.0001509
2729.18940,-0.0001400
2728.22502,-0.0001640
2727.26065,-0.0001892
2726.29627,-0.0002088
2725.33189,-0.0002279
2724.36751,-0.0002259
2723.40313,-0.0001958
2722.43876,-0.0001614
2721.47438,-0.0001530
2720.51000,-0.0001745
2719.54562,-0.0001999
2718.58124,-0.0002053
2717.61687,-0.0002197
2716.65249,-0.0002576
2715.68811,-0.0002852
2714.72373,-0.0002954
2713.75935,-0.0002818
2712.79498,-0.0002503
2711.83060,-0.0002235
2710.86622,-0.0001963
2709.90184,-0.0001684
2708.93747,-0.0001483
2707.97309,-0.0001500
2707.00871,-0.0001747
2706.04433,-0.0001985
2705.07995,-0.0002137
2704.11558,-0.0002364
2703.15120,-0.0002658
2702.18682,-0.0002713
2701.22244,-0.0002647
2700.25806,-0.0002651
2699.29369,-0.0002487
2698.32931,-0.0002231
2697.36493,-0.0002232
2696.40055,-0.0002565
2695.43618,-0.0003027
2694.47180,-0.0003431
2693.50742,-0.0003698
2692.54304,-0.0003842
2691.57866,-0.0003761
2690.61429,-0.0003397
2689.64991,-0.0003025
2688.68553,-0.0002630
2687.72115,-0.0002159
2686.75677,-0.0001702
2685.79240,-0.0001265
2684.82802,-0.0001014
2683.86364,-0.0001103
2682.89926,-0.0001509
2681.93488,-0.0001869
2680.97051,-0.0002128
2680.00613,-0.0002529
2679.04175,-0.0002950
2678.07737,-0.0003240
2677.11300,-0.0003223
2676.14862,-0.0003005
2675.18424,-0.0002682
2674.21986,-0.0002177
2673.25548,-0.0001787
2672.29111,-0.0001667
2671.32673,-0.0001692
2670.36235,-0.0001681
2669.39797,-0.0001810
2668.43359,-0.0002244
2667.46922,-0.0002436
2666.50484,-0.0002192
2665.54046,-0.0001965
2664.57608,-0.0002013
2663.61171,-0.0002224
2662.64733,-0.0002427
2661.68295,-0.0002657
2660.71857,-0.0002848
2659.75419,-0.0002849
2658.78982,-0.0002698
2657.82544,-0.0002447
2656.86106,-0.0002220
2655.89668,-0.0001965
2654.93230,-0.0001669
2653.96793,-0.0001715
2653.00355,-0.0002000
2652.03917,-0.0002280
2651.07479,-0.0002648
2650.11041,-0.0002942
2649.14604,-0.0003017
2648.18166,-0.0002898
2647.21728,-0.0002602
2646.25290,-0.0002197
2645.28853,-0.0002095
2644.32415,-0.0002330
2643.35977,-0.0002474
2642.39539,-0.0002617
2641.43101,-0.0002765
2640.46664,-0.0003006
2639.50226,-0.0003374
2638.53788,-0.0003501
2637.57350,-0.0003393
2636.60912,-0.0003177
2635.64475,-0.0003031
2634.68037,-0.0002983
2633.71599,-0.0002976
2632.75161,-0.0002982
2631.78724,-0.0003000
2630.82286,-0.0003159
2629.85848,-0.0003402
2628.89410,-0.0003839
2627.92972,-0.0004243
2626.96535,-0.0004426
2626.00097,-0.0004572
2625.03659,-0.0004506
2624.07221,-0.0004273
2623.10783,-0.0004026
2622.14346,-0.0003921
2621.17908,-0.0003964
2620.21470,-0.0003981
2619.25032,-0.0003911
2618.28594,-0.0003651
2617.32157,-0.0003266
2616.35719,-0.0002993
2615.39281,-0.0003052
2614.42843,-0.0003014
2613.46406,-0.0002659
2612.49968,-0.0002397
2611.53530,-0.0002478
2610.57092,-0.0003209
2609.60654,-0.0003952
2608.64217,-0.0003998
2607.67779,-0.0003908
2606.71341,-0.0003843
2605.74903,-0.0003292
2604.78465,-0.0002687
2603.82028,-0.0002490
2602.85590,-0.0002154
2601.89152,-0.0001788
2600.92714,-0.0001664
2599.96276,-0.0001779
2598.99839,-0.0002287
2598.03401,-0.0002851
2597.06963,-0.0003253
2596.10525,-0.0003716
2595.14088,-0.0004303
2594.17650,-0.0004475
2593.21212,-0.0004385
2592.24774,-0.0004354
2591.28336,-0.0003947
2590.31899,-0.0003459
2589.35461,-0.0003165
2588.39023,-0.0002987
2587.42585,-0.0002821
2586.46147,-0.0002780
2585.49710,-0.0002805
2584.53272,-0.0002766
2583.56834,-0.0003286
2582.60396,-0.0003598
2581.63959,-0.0003025
2580.67521,-0.0002311
2579.71083,-0.0001786
2578.74645,-0.0001691
2577.78207,-0.0001877
2576.81770,-0.0002039
2575.85332,-0.0002190
2574.88894,-0.0002453
2573.92456,-0.0002639
2572.96018,-0.0002744
2571.99581,-0.0002927
2571.03143,-0.0002426
2570.06705,-0.0001455
2569.10267,-0.0001126
2568.13829,-0.0001449
2567.17392,-0.0001876
2566.20954,-0.0002329
2565.24516,-0.0002762
2564.28078,-0.0002956
2563.31641,-0.0003007
2562.35203,-0.0002597
2561.38765,-0.0001848
2560.42327,-0.0001253
2559.45889,-0.0000614
2558.49452,0.0000080
2557.53014,0.0000337
2556.56576,-0.0000050
2555.60138,-0.0000546
2554.63700,-0.0001192
2553.67263,-0.0001979
2552.70825,-0.0002468
2551.74387,-0.0002692
2550.77949,-0.0002499
2549.81512,-0.0002125
2548.85074,-0.0001738
2547.88636,-0.0001211
2546.92198,-0.0000364
2545.95760,0.0000687
2544.99323,0.0001275
2544.02885,0.0001545
2543.06447,0.0001515
2542.10009,0.0000887
2541.13571,0.0000066
2540.17134,-0.0000699
2539.20696,-0.0001809
2538.24258,-0.0003031
2537.27820,-0.0003823
2536.31382,-0.0004453
2535.34945,-0.0004579
2534.38507,-0.0004161
2533.42069,-0.0003518
2532.45631,-0.0002730
2531.49194,-0.0002377
2530.52756,-0.0002427
2529.56318,-0.0002573
2528.59880,-0.0002893
2527.63442,-0.0003708
2526.67005,-0.0004111
2525.70567,-0.0003526
2524.74129,-0.0003067
2523.77691,-0.0002680
2522.81253,-0.0001981
2521.84816,-0.0000933
2520.88378,-0.0000503
2519.91940,-0.0001265
2518.95502,-0.0001950
2517.99065,-0.0002491
2517.02627,-0.0003266
2516.06189,-0.0004292
2515.09751,-0.0004937
2514.13313,-0.0004922
2513.16876,-0.0004893
2512.20438,-0.0004538
2511.24000,-0.0003926
2510.27562,-0.0003500
2509.31124,-0.0003737
2508.34687,-0.0003983
2507.38249,-0.0003603
2506.41811,-0.0003526
2505.45373,-0.0003577
2504.48935,-0.0003827
2503.52498,-0.0004416
2502.56060,-0.0005086
2501.59622,-0.0005623
2500.63184,-0.0005661
2499.66747,-0.0005966
2498.70309,-0.0006586
2497.73871,-0.0007100
2496.77433,-0.0007192
2495.80995,-0.0006768
2494.84558,-0.0006134
2493.88120,-0.0005309
2492.91682,-0.0004924
2491.95244,-0.0004682
2490.98806,-0.0004064
2490.02369,-0.0003206
2489.05931,-0.0002491
2488.09493,-0.0002508
2487.13055,-0.0002694
2486.16618,-0.0002922
2485.20180,-0.0003142
2484.23742,-0.0002878
2483.27304,-0.0002218
2482.30866,-0.0001635
2481.34429,-0.0001686
2480.37991,-0.0001592
2479.41553,-0.0000926
2478.45115,-0.0000709
2477.48677,-0.0001247
2476.52240,-0.0001582
2475.55802,-0.0001654
2474.59364,-0.0002118
2473.62926,-0.0002325
2472.66488,-0.0002321
2471.70051,-0.0002304
2470.73613,-0.0002139
2469.77175,-0.0002535
2468.80737,-0.0003170
2467.84300,-0.0003540
2466.87862,-0.0003809
2465.91424,-0.0003930
2464.94986,-0.0004019
2463.98548,-0.0004617
2463.02111,-0.0005332
2462.05673,-0.0005472
2461.09235,-0.0005589
2460.12797,-0.0005468
2459.16359,-0.0005050
2458.19922,-0.0004696
2457.23484,-0.0003775
2456.27046,-0.0002479
2455.30608,-0.0001374
2454.34171,-0.0000759
2453.37733,-0.0000871
2452.41295,-0.0001557
2451.44857,-0.0002342
2450.48419,-0.0003046
2449.51982,-0.0003708
2448.55544,-0.0004064
2447.59106,-0.0004502
2446.62668,-0.0004564
2445.66230,-0.0003764
2444.69793,-0.0003276
2443.73355,-0.0002969
2442.76917,-0.0002240
2441.80479,-0.0001770
2440.84041,-0.0002022
2439.87604,-0.0002715
2438.91166,-0.0003559
2437.94728,-0.0004161
2436.98290,-0.0004192
2436.01853,-0.0004056
2435.05415,-0.0003676
2434.08977,-0.0003082
2433.12539,-0.0002565
2432.16101,-0.0001641
2431.19664,-0.0000693
2430.23226,-0.0000409
2429.26788,-0.0000539
2428.30350,-0.0000851
2427.33912,-0.0001319
2426.37475,-0.0001510
2425.41037,-0.0001145
2424.44599,-0.0000733
2423.48161,-0.0000744
2422.51724,-0.0001323
2421.55286,-0.0002042
2420.58848,-0.0002697
2419.62410,-0.0003517
2418.65972,-0.0003964
2417.69535,-0.0004164
2416.73097,-0.0004425
2415.76659,-0.0004108
2414.80221,-0.0002987
2413.83783,-0.0001259
2412.87346,0.0000443
2411.90908,0.0001531
2410.94470,0.0002129
2409.98032,0.0002316
2409.01594,0.0001657
2408.05157,0.0000149
2407.08719,-0.0001275
2406.12281,-0.0002360
2405.15843,-0.0003279
2404.19406,-0.0003746
2403.22968,-0.0003558
2402.26530,-0.0002778
2401.30092,-0.0001946
2400.33654,-0.0001118
2399.37217,-0.0000123
2398.40779,0.0000378
2397.44341,-0.0000150
2396.47903,-0.0001150
2395.51465,-0.0001433
2394.55028,-0.0000881
2393.58590,-0.0000396
2392.62152,-0.0000507
2391.65714,-0.0000813
2390.69276,-0.0000912
2389.72839,-0.0001066
2388.76401,-0.0000997
2387.79963,-0.0000655
2386.83525,-0.0000643
2385.87088,-0.0000785
2384.90650,-0.0000509
2383.94212,0.0000153
2382.97774,0.0000859
2382.01336,0.0001490
2381.04899,0.0001803
2380.08461,0.0001963
2379.12023,0.0002256
2378.15585,0.0002788
2377.19147,0.0003729
2376.22710,0.0004577
2375.26272,0.0005305
2374.29834,0.0006084
2373.33396,0.0006672
2372.36959,0.0007185
2371.40521,0.0007695
2370.44083,0.0008424
2369.47645,0.0009327
2368.51207,0.0010053
2367.54770,0.0010491
2366.58332,0.0010987
2365.61894,0.0011472
2364.65456,0.0011373
2363.69018,0.0011129
2362.72581,0.0010885
2361.76143,0.0010610
2360.79705,0.0010440
2359.83267,0.0010049
2358.86829,0.0009705
2357.90392,0.0009423
2356.93954,0.0008993
2355.97516,0.0008383
2355.01078,0.0007766
2354.04641,0.0007152
2353.08203,0.0006185
2352.11765,0.0005400
2351.15327,0.0004956
2350.18889,0.0004492
2349.22452,0.0004169
2348.26014,0.0004086
2347.29576,0.0004315
2346.33138,0.0004813
2345.36700,0.0005514
2344.40263,0.0006317
2343.43825,0.0007181
2342.47387,0.0007717
2341.50949,0.0007666
2340.54512,0.0007662
2339.58074,0.0007769
2338.61636,0.0007721
2337.65198,0.0007617
2336.68760,0.0007441
2335.72323,0.0007351
2334.75885,0.0007418
2333.79447,0.0007473
2332.83009,0.0007624
2331.86571,0.0008089
2330.90134,0.0008372
2329.93696,0.0008261
2328.97258,0.0008425
2328.00820,0.0008911
2327.04382,0.0009194
2326.07945,0.0008912
2325.11507,0.0008273
2324.15069,0.0007861
2323.18631,0.0007485
2322.22194,0.0006831
2321.25756,0.0006441
2320.29318,0.0006388
2319.32880,0.0006087
2318.36442,0.0005742
2317.40005,0.0005798
2316.43567,0.0006093
2315.47129,0.0006219
2314.50691,0.0005922
2313.54253,0.0005426
2312.57816,0.0005006
2311.61378,0.0004449
2310.64940,0.0003706
2309.68502,0.0003180
2308.72065,0.0002712
2307.75627,0.0002157
2306.79189,0.0001823
2305.82751,0.0001712
2304.86313,0.0001797
2303.89876,0.0001953
2302.93438,0.0001988
2301.97000,0.0001999
2301.00562,0.0002009
2300.04124,0.0002020
2299.07687,0.0002030
2298.11249,0.0002041
2297.14811,0.0002051
2296.18373,0.0002062
2295.21935,0.0002072
2294.25498,0.0002083
2293.29060,0.0002093
2292.32622,0.0002104
2291.36184,0.0002114
2290.39747,0.0002125
2289.43309,0.0002135
2288.46871,0.0002146
2287.50433,0.0002157
2286.53995,0.0002167
2285.57558,0.0002178
2284.61120,0.0002188
2283.64682,0.0002199
2282.68244,0.0002209
2281.71806,0.0002220
2280.75369,0.0002230
2279.78931,0.0002241
2278.82493,0.0002251
2277.86055,0.0002262
2276.89618,0.0002272
2275.93180,0.0002283
2274.96742,0.0002293
2274.00304,0.0002304
2273.03866,0.0002314
2272.07429,0.0002325
2271.10991,0.0002335
2270.14553,0.0002346
2269.18115,0.0002356
2268.21677,0.0002367
2267.25240,0.0002377
2266.28802,0.0002388
2265.32364,0.0002398
2264.35926,0.0002409
2263.39488,0.0002420
2262.43051,0.0002430
2261.46613,0.0002441
2260.50175,0.0002451
2259.53737,0.0002462
2258.57300,0.0002472
2257.60862,0.0002483
2256.64424,0.0002493
2255.67986,0.0002504
2254.71548,0.0002514
2253.75111,0.0002525
2252.78673,0.0002535
2251.82235,0.0002546
2250.85797,0.0002556
2249.89359,0.0002567
2248.92922,0.0002577
2247.96484,0.0002588
2247.00046,0.0002598
2246.03608,0.0002609
2245.07171,0.0002619
2244.10733,0.0002630
2243.14295,0.0002640
2242.17857,0.0002651
2241.21419,0.0002662
2240.24982,0.0002672
2239.28544,0.0002683
2238.32106,0.0002693
2237.35668,0.0002704
2236.39230,0.0002714
2235.42793,0.0002725
2234.46355,0.0002735
2233.49917,0.0002746
2232.53479,0.0002756
2231.57041,0.0002767
2230.60604,0.0002777
2229.64166,0.0002788
2228.67728,0.0002798
2227.71290,0.0002809
2226.74853,0.0002819
2225.78415,0.0002830
2224.81977,0.0002840
2223.85539,0.0002851
2222.89101,0.0002861
2221.92664,0.0002872
2220.96226,0.0002882
2219.99788,0.0002893
2219.03350,0.0002903
2218.06912,0.0002914
2217.10475,0.0002925
2216.14037,0.0002935
2215.17599,0.0002946
2214.21161,0.0002956
2213.24724,0.0002967
2212.28286,0.0002977
2211.31848,0.0002988
2210.35410,0.0002998
2209.38972,0.0003009
2208.42535,0.0003019
2207.46097,0.0003030
2206.49659,0.0003040
2205.53221,0.0003051
2204.56783,0.0003061
2203.60346,0.0003072
2202.63908,0.0003082
2201.67470,0.0003093
2200.71032,0.0003103
2199.74594,0.0003114
2198.78157,0.0003124
2197.81719,0.0003135
2196.85281,0.0003145
2195.88843,0.0003156
2194.92406,0.0003167
2193.95968,0.0003177
2192.99530,0.0003188
2192.03092,0.0003198
2191.06654,0.0003209
2190.10217,0.0003219
2189.13779,0.0003230
2188.17341,0.0003240
2187.20903,0.0003251
2186.24465,0.0003261
2185.28028,0.0003272
2184.31590,0.0003282
2183.35152,0.0003293
2182.38714,0.0003303
2181.42276,0.0003314
2180.45839,0.0003324
2179.49401,0.0003335
2178.52963,0.0003345
2177.56525,0.0003356
2176.60088,0.0003366
2175.63650,0.0003377
2174.67212,0.0003387
2173.70774,0.0003398
2172.74336,0.0003409
2171.77899,0.0003419
2170.81461,0.0003430
2169.85023,0.0003440
2168.88585,0.0003451
2167.92147,0.0003461
2166.95710,0.0003472
2165.99272,0.0003482
2165.02834,0.0003493
2164.06396,0.0003503
2163.09959,0.0003514
2162.13521,0.0003524
2161.17083,0.0003535
2160.20645,0.0003545
2159.24207,0.0003556
2158.27770,0.0003566
2157.31332,0.0003577
2156.34894,0.0003587
2155.38456,0.0003598
2154.42018,0.0003608
2153.45581,0.0003619
2152.49143,0.0003629
2151.52705,0.0003640
2150.56267,0.0003650
2149.59829,0.0003661
2148.63392,0.0003672
2147.66954,0.0003682
2146.70516,0.0003693
2145.74078,0.0003703
2144.77641,0.0003714
2143.81203,0.0003724
2142.84765,0.0003735
2141.88327,0.0003745
2140.91889,0.0003756
2139.95452,0.0003766
2138.99014,0.0003777
2138.02576,0.0003787
2137.06138,0.0003798
2136.09700,0.0003808
2135.13263,0.0003819
2134.16825,0.0003829
2133.20387,0.0003840
2132.23949,0.0003850
2131.27512,0.0003861
2130.31074,0.0003871
2129.34636,0.0003882
2128.38198,0.0003892
2127.41760,0.0003903
2126.45323,0.0003914
2125.48885,0.0003924
2124.52447,0.0003935
2123.56009,0.0003945
2122.59571,0.0003956
2121.63134,0.0003966
2120.66696,0.0003977
2119.70258,0.0003987
2118.73820,0.0003998
2117.77382,0.0004008
2116.80945,0.0004019
2115.84507,0.0004029
2114.88069,0.0004040
2113.91631,0.0004050
2112.95194,0.0004061
2111.98756,0.0004071
2111.02318,0.0004082
2110.05880,0.0004092
2109.09442,0.0004103
2108.13005,0.0004113
2107.16567,0.0004124
2106.20129,0.0004134
2105.23691,0.0004145
2104.27253,0.0004155
2103.30816,0.0004166
2102.34378,0.0004177
2101.37940,0.0004187
2100.41502,0.0004198
2099.45065,0.0004208
2098.48627,0.0004219
2097.52189,0.0004229
2096.55751,0.0004240
2095.59313,0.0004250
2094.62876,0.0004261
2093.66438,0.0004271
2092.70000,0.0004282
2091.73562,0.0004292
2090.77124,0.0004303
2089.80687,0.0004313
2088.84249,0.0004324
2087.87811,0.0004334
2086.91373,0.0004345
2085.94935,0.0004355
2084.98498,0.0004366
2084.02060,0.0004376
2083.05622,0.0004387
2082.09184,0.0004397
2081.12747,0.0004408
2080.16309,0.0004419
2079.19871,0.0004429
2078.23433,0.0004440
2077.26995,0.0004450
2076.30558,0.0004461
2075.34120,0.0004471
2074.37682,0.0004482
2073.41244,0.0004492
2072.44806,0.0004503
2071.48369,0.0004513
2070.51931,0.0004524
2069.55493,0.0004534
2068.59055,0.0004545
2067.62618,0.0004555
2066.66180,0.0004566
2065.69742,0.0004576
2064.73304,0.0004587
2063.76866,0.0004597
2062.80429,0.0004608
2061.83991,0.0004618
2060.87553,0.0004629
2059.91115,0.0004639
2058.94677,0.0004650
2057.98240,0.0004660
2057.01802,0.0004671
2056.05364,0.0004682
2055.08926,0.0004692
2054.12488,0.0004703
2053.16051,0.0004713
2052.19613,0.0004724
2051.23175,0.0004734
2050.26737,0.0004745
2049.30300,0.0004755
2048.33862,0.0004766
2047.37424,0.0004776
2046.40986,0.0004787
2045.44548,0.0004797
2044.48111,0.0004808
2043.51673,0.0004818
2042.55235,0.0004829
2041.58797,0.0004839
2040.62359,0.0004850
2039.65922,0.0004860
2038.69484,0.0004871
2037.73046,0.0004881
2036.76608,0.0004892
2035.80171,0.0004902
2034.83733,0.0004913
2033.87295,0.0004924
2032.90857,0.0004934
2031.94419,0.0004945
2030.97982,0.0004955
2030.01544,0.0004966
2029.05106,0.0004976
2028.08668,0.0004987
2027.12230,0.0004997
2026.15793,0.0005008
2025.19355,0.0005018
2024.22917,0.0005029
2023.26479,0.0005039
2022.30041,0.0005050
2021.33604,0.0005060
2020.37166,0.0005071
2019.40728,0.0005081
2018.44290,0.0005092
2017.47853,0.0005102
2016.51415,0.0005113
2015.54977,0.0005123
2014.58539,0.0005134
2013.62101,0.0005144
2012.65664,0.0005155
2011.69226,0.0005166
2010.72788,0.0005176
2009.76350,0.0005187
2008.79912,0.0005197
2007.83475,0.0005208
2006.87037,0.0005218
2005.90599,0.0005229
2004.94161,0.0005239
2003.97724,0.0005250
2003.01286,0.0005260
2002.04848,0.0005271
2001.08410,0.0005281
2000.11972,0.0005292
1999.15535,0.0005302
1998.19097,0.0005313
1997.22659,0.0005323
1996.26221,0.0005334
1995.29783,0.0005344
1994.33346,0.0005355
1993.36908,0.0005365
1992.40470,0.0005376
1991.44032,0.0005386
1990.47594,0.0005397
1989.51157,0.0005407
1988.54719,0.0005418
1987.58281,0.0005429
1986.61843,0.0005439
1985.65406,0.0005450
1984.68968,0.0005460
1983.72530,0.0005471
1982.76092,0.0005481
1981.79654,0.0005492
1980.83217,0.0005502
1979.86779,0.0005513
1978.90341,0.0005523
1977.93903,0.0005534
1976.97465,0.0005544
1976.01028,0.0005555
1975.04590,0.0005565
1974.08152,0.0005576
1973.11714,0.0005586
1972.15276,0.0005597
1971.18839,0.0005607
1970.22401,0.0005618
1969.25963,0.0005628
1968.29525,0.0005639
1967.33088,0.0005649
1966.36650,0.0005660
1965.40212,0.0005671
1964.43774,0.0005681
1963.47336,0.0005692
1962.50899,0.0005702
1961.54461,0.0005713
1960.58023,0.0005723
1959.61585,0.0005734
1958.65147,0.0005744
1957.68710,0.0005755
1956.72272,0.0005765
1955.75834,0.0005776
1954.79396,0.0005786
1953.82959,0.0005797
1952.86521,0.0005807
1951.90083,0.0005818
1950.93645,0.0005828
1949.97207,0.0005839
1949.00770,0.0005849
1948.04332,0.0005860
1947.07894,0.0005870
1946.11456,0.0005881
1945.15018,0.0005891
1944.18581,0.0005902
1943.22143,0.0005912
1942.25705,0.0005923
1941.29267,0.0005934
1940.32829,0.0005944
1939.36392,0.0005955
1938.39954,0.0005965
1937.43516,0.0005976
1936.47078,0.0005986
1935.50641,0.0005997
1934.54203,0.0006007
1933.57765,0.0006018
1932.61327,0.0006028
1931.64889,0.0006039
1930.68452,0.0006049
1929.72014,0.0006060
1928.75576,0.0006070
1927.79138,0.0006081
1926.82700,0.0006091
1925.86263,0.0006102
1924.89825,0.0006112
1923.93387,0.0006123
1922.96949,0.0006133
1922.00512,0.0006144
1921.04074,0.0006154
1920.07636,0.0006165
1919.11198,0.0006176
1918.14760,0.0006186
1917.18323,0.0006197
1916.21885,0.0006207
1915.25447,0.0006218
1914.29009,0.0006228
1913.32571,0.0006239
1912.36134,0.0006249
1911.39696,0.0006260
1910.43258,0.0006270
1909.46820,0.0006281
1908.50382,0.0006291
1907.53945,0.0006302
1906.57507,0.0006312
1905.61069,0.0006323
1904.64631,0.0006333
1903.68194,0.0006344
1902.71756,0.0006354
1901.75318,0.0006365
1900.78880,0.0006375
1899.82442,0.0006386
1898.86005,0.0006396
1897.89567,0.0006407
1896.93129,0.0006418
1895.96691,0.0006428
1895.00253,0.0006439
1894.03816,0.0006449
1893.07378,0.0006460
1892.10940,0.0006470
1891.14502,0.0006481
1890.18065,0.0006491
1889.21627,0.0006502
1888.25189,0.0006512
1887.28751,0.0006523
1886.32313,0.0006533
1885.35876,0.0006544
1884.39438,0.0006554
1883.43000,0.0006565
1882.46562,0.0006575
1881.50124,0.0006586
1880.53687,0.0006596
1879.57249,0.0006607
1878.60811,0.0006617
1877.64373,0.0006628
1876.67935,0.0006638
1875.71498,0.0006649
1874.75060,0.0006659
1873.78622,0.0006685
1872.82184,0.0006558
1871.85747,0.0006545
1870.89309,0.0006813
1869.92871,0.0007199
1868.96433,0.0007294
1867.99995,0.0006914
1867.03558,0.0006399
1866.07120,0.0006197
1865.10682,0.0006460
1864.14244,0.0006953
1863.17806,0.0007495
1862.21369,0.0007967
1861.24931,0.0008281
1860.28493,0.0008804
1859.32055,0.0009352
1858.35618,0.0009401
1857.39180,0.0008799
1856.42742,0.0007972
1855.46304,0.0007334
1854.49866,0.0007202
1853.53429,0.0007567
1852.56991,0.0008171
1851.60553,0.0008879
1850.64115,0.0009183
1849.67677,0.0009399
1848.71240,0.0010003
1847.74802,0.0010466
1846.78364,0.0010609
1845.81926,0.0010566
1844.85488,0.0010547
1843.89051,0.0010641
1842.92613,0.0010905
1841.96175,0.0011217
1840.99737,0.0011351
1840.03300,0.0011396
1839.06862,0.0011200
1838.10424,0.0011335
1837.13986,0.0011891
1836.17548,0.0011987
1835.21111,0.0012047
1834.24673,0.0012250
1833.28235,0.0012456
1832.31797,0.0012764
1831.35359,0.0012774
1830.38922,0.0012642
1829.42484,0.0012634
1828.46046,0.0012910
1827.49608,0.0013419
1826.53171,0.0013601
1825.56733,0.0013371
1824.60295,0.0013007
1823.63857,0.0012891
1822.67419,0.0012914
1821.70982,0.0012674
1820.74544,0.0012372
1819.78106,0.0012118
1818.81668,0.0011983
1817.85230,0.0012044
1816.88793,0.0012360
1815.92355,0.0012817
1814.95917,0.0012982
1813.99479,0.0013252
1813.03041,0.0013819
1812.06604,0.0014276
1811.10166,0.0014725
1810.13728,0.0014970
1809.17290,0.0014965
1808.20853,0.0014882
1807.24415,0.0014665
1806.27977,0.0014655
1805.31539,0.0014909
1804.35101,0.0015237
1803.38664,0.0015678
1802.42226,0.0016171
1801.45788,0.0016748
1800.49350,0.0017314
1799.52912,0.0017502
1798.56475,0.0017112
1797.60037,0.0016530
1796.63599,0.0016273
1795.67161,0.0016456
1794.70724,0.0016914
1793.74286,0.0017291
1792.77848,0.0017639
1791.81410,0.0018049
1790.84972,0.0018379
1789.88535,0.0018843
1788.92097,0.0019138
1787.95659,0.0018900
1786.99221,0.0018470
1786.02783,0.0018315
1785.06346,0.0018596
1784.09908,0.0019012
1783.13470,0.0019356
1782.17032,0.0019412
1781.20594,0.0019311
1780.24157,0.0019336
1779.27719,0.0019190
1778.31281,0.0019103
1777.34843,0.0019401
1776.38406,0.0019957
1775.41968,0.0020651
1774.45530,0.0021386
1773.49092,0.0022239
1772.52654,0.0022970
1771.56217,0.0023327
1770.59779,0.0023291
1769.63341,0.0023087
1768.66903,0.0022771
1767.70465,0.0022228
1766.74028,0.0022100
1765.77590,0.0022606
1764.81152,0.0023260
1763.84714,0.0023724
1762.88276,0.0024019
1761.91839,0.0024583
1760.95401,0.0025221
1759.98963,0.0025618
1759.02525,0.0025830
1758.06088,0.0025773
1757.09650,0.0025660
1756.13212,0.0026060
1755.16774,0.0026953
1754.20336,0.0027845
1753.23899,0.0028693
1752.27461,0.0029384
1751.31023,0.0029924
1750.34585,0.0030536
1749.38147,0.0031009
1748.41710,0.0031304
1747.45272,0.0031225
1746.48834,0.0030742
1745.52396,0.0030612
1744.55959,0.0031139
1743.59521,0.0031685
1742.63083,0.0031855
1741.66645,0.0031758
1740.70207,0.0031406
1739.73770,0.0031356
1738.77332,0.0032248
1737.80894,0.0033669
1736.84456,0.0034894
1735.88018,0.0035548
1734.91581,0.0035972
1733.95143,0.0036463
1732.98705,0.0036694
1732.02267,0.0036265
1731.05829,0.0035122
1730.09392,0.0033587
1729.12954,0.0032158
1728.16516,0.0031539
1727.20078,0.0031780
1726.23641,0.0032029
1725.27203,0.0031960
1724.30765,0.0031906
1723.34327,0.0032333
1722.37889,0.0033301
1721.41452,0.0034248
1720.45014,0.0034981
1719.48576,0.0035714
1718.52138,0.0036258
1717.55700,0.0036443
1716.59263,0.0036283
1715.62825,0.0035749
1714.66387,0.0034963
1713.69949,0.0034073
1712.73512,0.0033217
1711.77074,0.0032657
1710.80636,0.0032629
1709.84198,0.0032738
1708.87760,0.0032901
1707.91323,0.0033137
1706.94885,0.0032769
1705.98447,0.0032515
1705.02009,0.0033198
1704.05571,0.0034193
1703.09134,0.0034981
1702.12696,0.0035152
1701.16258,0.0035456
1700.19820,0.0036371
1699.23382,0.0037249
1698.26945,0.0037689
1697.30507,0.0037559
1696.34069,0.0036811
1695.37631,0.0035517
1694.41194,0.0034672
1693.44756,0.0034515
1692.48318,0.0034008
1691.51880,0.0032818
1690.55442,0.0031688
1689.59005,0.0032291
1688.62567,0.0034261
1687.66129,0.0036161
1686.69691,0.0037602
1685.73253,0.0038623
1684.76816,0.0039364
1683.80378,0.0039672
1682.83940,0.0039590
1681.87502,0.0039038
1680.91065,0.0038225
1679.94627,0.0037752
1678.98189,0.0037822
1678.01751,0.0038729
1677.05313,0.0040009
1676.08876,0.0041052
1675.12438,0.0041876
1674.16000,0.0042932
1673.19562,0.0044096
1672.23124,0.0044886
1671.26687,0.0045331
1670.30249,0.0045331
1669.33811,0.0045398
1668.37373,0.0045946
1667.40935,0.0046531
1666.44498,0.0047115
1665.48060,0.0047688
1664.51622,0.0048145
1663.55184,0.0048740
1662.58747,0.0049686
1661.62309,0.0050479
1660.65871,0.0050894
1659.69433,0.0051040
1658.72995,0.0051431
1657.76558,0.0053228
1656.80120,0.0056021
1655.83682,0.0058807
1654.87244,0.0060884
1653.90806,0.0062092
1652.94369,0.0062741
1651.97931,0.0063105
1651.01493,0.0063512
1650.05055,0.0063502
1649.08618,0.0062896
1648.12180,0.0062236
1647.15742,0.0062296
1646.19304,0.0063315
1645.22866,0.0064096
1644.26429,0.0064224
1643.29991,0.0063885
1642.33553,0.0063295
1641.37115,0.0063036
1640.40677,0.0063809
1639.44240,0.0065342
1638.47802,0.0066616
1637.51364,0.0067485
1636.54926,0.0068112
1635.58488,0.0068433
1634.62051,0.0068363
1633.65613,0.0068067
1632.69175,0.0067798
1631.72737,0.0067397
1630.76300,0.0066807
1629.79862,0.0066529
1628.83424,0.0067233
1627.86986,0.0068260
1626.90548,0.0068929
1625.94111,0.0069393
1624.97673,0.0069698
1624.01235,0.0069759
1623.04797,0.0069434
1622.08359,0.0069517
1621.11922,0.0070199
1620.15484,0.0070606
1619.19046,0.0070566
1618.22608,0.0070329
1617.26171,0.0070256
1616.29733,0.0070032
1615.33295,0.0069418
1614.36857,0.0068679
1613.40419,0.0067897
1612.43982,0.0067114
1611.47544,0.0066485
1610.51106,0.0066426
1609.54668,0.0066556
1608.58230,0.0066433
1607.61793,0.0066224
1606.65355,0.0065969
1605.68917,0.0065718
1604.72479,0.0065427
1603.76041,0.0065126
1602.79604,0.0064853
1601.83166,0.0064689
1600.86728,0.0064594
1599.90290,0.0064434
1598.93853,0.0064195
1597.97415,0.0063890
1597.00977,0.0063738
1596.04539,0.0063703
1595.08101,0.0063597
1594.11664,0.0063360
1593.15226,0.0062986
1592.18788,0.0062477
1591.22350,0.0061909
1590.25912,0.0061353
1589.29475,0.0060618
1588.33037,0.0059840
1587.36599,0.0059102
1586.40161,0.0058318
1585.43724,0.0057574
1584.47286,0.0056868
1583.50848,0.0056009
1582.54410,0.0054755
1581.57972,0.0053858
1580.61535,0.0053830
1579.65097,0.0054094
1578.68659,0.0054205
1577.72221,0.0053956
1576.75783,0.0053347
1575.79346,0.0052459
1574.82908,0.0051646
1573.86470,0.0050847
1572.90032,0.0049760
1571.93594,0.0048346
1570.97157,0.0046747
1570.00719,0.0045818
1569.04281,0.0045509
1568.07843,0.0044940
1567.11406,0.0043793
1566.14968,0.0042246
1565.18530,0.0041101
1564.22092,0.0040867
1563.25654,0.0041884
1562.29217,0.0043530
1561.32779,0.0044563
1560.36341,0.0044931
1559.39903,0.0045165
1558.43465,0.0045286
1557.47028,0.0044834
1556.50590,0.0043527
1555.54152,0.0041472
1554.57714,0.0039311
1553.61276,0.0037818
1552.64839,0.0036902
1551.68401,0.0036409
1550.71963,0.0036104
1549.75525,0.0035682
1548.79088,0.0035354
1547.82650,0.0035551
1546.86212,0.0036070
1545.89774,0.0036286
1544.93336,0.0036620
1543.96899,0.0037616
1543.00461,0.0038693
1542.04023,0.0039287
1541.07585,0.0039195
1540.11147,0.0038543
1539.14710,0.0037921
1538.18272,0.0037466
1537.21834,0.0036624
1536.25396,0.0035559
1535.28959,0.0034442
1534.32521,0.0033211
1533.36083,0.0032697
1532.39645,0.0032853
1531.43207,0.0032941
1530.46770,0.0033084
1529.50332,0.0033218
1528.53894,0.0033096
1527.57456,0.0032962
1526.61018,0.0033270
1525.64581,0.0034029
1524.68143,0.0034784
1523.71705,0.0035005
1522.75267,0.0035004
1521.78829,0.0035230
1520.82392,0.0035375
1519.85954,0.0035508
1518.89516,0.0035432
1517.93078,0.0034850
1516.96641,0.0034007
1516.00203,0.0033224
1515.03765,0.0032970
1514.07327,0.0032974
1513.10889,0.0032734
1512.14452,0.0032708
1511.18014,0.0033700
1510.21576,0.0035418
1509.25138,0.0036915
1508.28700,0.0037836
1507.32263,0.0038004
1506.35825,0.0037751
1505.39387,0.0037147
1504.42949,0.0036114
1503.46512,0.0034966
1502.50074,0.0033584
1501.53636,0.0032719
1500.57198,0.0032986
1499.60760,0.0033862
1498.64323,0.0034714
1497.67885,0.0035010
1496.71447,0.0034799
1495.75009,0.0034488
1494.78571,0.0034314
1493.82134,0.0034044
1492.85696,0.0033821
1491.89258,0.0033907
1490.92820,0.0034057
1489.96382,0.0034476
1488.99945,0.0034890
1488.03507,0.0034920
1487.07069,0.0034822
1486.10631,0.0034613
1485.14194,0.0034302
1484.17756,0.0034152
1483.21318,0.0034147
1482.24880,0.0034009
1481.28442,0.0034114
1480.32005,0.0034548
1479.35567,0.0034847
1478.39129,0.0035203
1477.42691,0.0035947
1476.46253,0.0037080
1475.49816,0.0038199
1474.53378,0.0039033
1473.56940,0.0039576
1472.60502,0.0039750
1471.64065,0.0039475
1470.67627,0.0038971
1469.71189,0.0038888
1468.74751,0.0038843
1467.78313,0.0038466
1466.81876,0.0038430
1465.85438,0.0038858
1464.89000,0.0039462
1463.92562,0.0039808
1462.96124,0.0039982
1461.99687,0.0040899
1461.03249,0.0042518
1460.06811,0.0044059
1459.10373,0.0045278
1458.13935,0.0046317
1457.17498,0.0046936
1456.21060,0.0047056
1455.24622,0.0046841
1454.28184,0.0046147
1453.31747,0.0045214
1452.35309,0.0044395
1451.38871,0.0044014
1450.42433,0.0044626
1449.45995,0.0045719
1448.49558,0.0046388
1447.53120,0.0046749
1446.56682,0.0047104
1445.60244,0.0047388
1444.63806,0.0047570
1443.67369,0.0047442
1442.70931,0.0047125
1441.74493,0.0047544
1440.78055,0.0048755
1439.81618,0.0049970
1438.85180,0.0051001
1437.88742,0.0051857
1436.92304,0.0052434
1435.95866,0.0052825
1434.99429,0.0053071
1434.02991,0.0053092
1433.06553,0.0052910
1432.10115,0.0052625
1431.13677,0.0052522
1430.17240,0.0053036
1429.20802,0.0053822
1428.24364,0.0054429
1427.27926,0.0054962
1426.31488,0.0055243
1425.35051,0.0055486
1424.38613,0.0056346
1423.42175,0.0057662
1422.45737,0.0058982
1421.49300,0.0060106
1420.52862,0.0061045
1419.56424,0.0061753
1418.59986,0.0062273
1417.63548,0.0062703
1416.67111,0.0062901
1415.70673,0.0062739
1414.74235,0.0062245
1413.77797,0.0061994
1412.81359,0.0062341
1411.84922,0.0062705
1410.88484,0.0062939
1409.92046,0.0063281
1408.95608,0.0063680
1407.99171,0.0064027
1407.02733,0.0064297
1406.06295,0.0064416
1405.09857,0.0064387
1404.13419,0.0064381
1403.16982,0.0064363
1402.20544,0.0064318
1401.24106,0.0064211
1400.27668,0.0064117
1399.31230,0.0064390
1398.34793,0.0064884
1397.38355,0.0065305
1396.41917,0.0065554
1395.45479,0.0065565
1394.49041,0.0065279
1393.52604,0.0064809
1392.56166,0.0064626
1391.59728,0.0064591
1390.63290,0.0064344
1389.66853,0.0063938
1388.70415,0.0063577
1387.73977,0.0063496
1386.77539,0.0063486
1385.81101,0.0063475
1384.84664,0.0063480
1383.88226,0.0063360
1382.91788,0.0063181
1381.95350,0.0062999
1380.98912,0.0063034
1380.02475,0.0063196
1379.06037,0.0063343
1378.09599,0.0063599
1377.13161,0.0063803
1376.16724,0.0063880
1375.20286,0.0063879
1374.23848,0.0063875
1373.27410,0.0063895
1372.30972,0.0063849
1371.34535,0.0063665
1370.38097,0.0063152
1369.41659,0.0062511
1368.45221,0.0062228
1367.48783,0.0062246
1366.52346,0.0062263
1365.55908,0.0062208
1364.59470,0.0062042
1363.63032,0.0061844
1362.66594,0.0061804
1361.70157,0.0061835
1360.73719,0.0061769
1359.77281,0.0061526
1358.80843,0.0061144
1357.84406,0.0060787
1356.87968,0.0060503
1355.91530,0.0060179
1354.95092,0.0059860
1353.98654,0.0059637
1353.02217,0.0059345
1352.05779,0.0059047
1351.09341,0.0058873
1350.12903,0.0058738
1349.16465,0.0058634
1348.20028,0.0058464
1347.23590,0.0058288
1346.27152,0.0058181
1345.30714,0.0058053
1344.34276,0.0058034
1343.37839,0.0058164
1342.41401,0.0058272
1341.44963,0.0058387
1340.48525,0.0058583
1339.52088,0.0058667
1338.55650,0.0058591
1337.59212,0.0058389
1336.62774,0.0058030
1335.66336,0.0057692
1334.69899,0.0057409
1333.73461,0.0057084
1332.77023,0.0056745
1331.80585,0.0056541
1330.84147,0.0056521
1329.87710,0.0056577
1328.91272,0.0056649
1327.94834,0.0056628
1326.98396,0.0056494
1326.01959,0.0056240
1325.05521,0.0055937
1324.09083,0.0055725
1323.12645,0.0055589
1322.16207,0.0055532
1321.19770,0.0055488
1320.23332,0.0055559
1319.26894,0.0055722
1318.30456,0.0055758
1317.34018,0.0055779
1316.37581,0.0055744
1315.41143,0.0055524
1314.44705,0.0055158
1313.48267,0.0054775
1312.51829,0.0054488
1311.55392,0.0054288
1310.58954,0.0054159
1309.62516,0.0053979
1308.66078,0.0053803
1307.69641,0.0053707
1306.73203,0.0053615
1305.76765,0.0053568
1304.80327,0.0053495
1303.83889,0.0053356
1302.87452,0.0053190
1301.91014,0.0053051
1300.94576,0.0052970
1299.98138,0.0052938
1299.01700,0.0052941
1298.05263,0.0052906
1297.08825,0.0052977
1296.12387,0.0053213
1295.15949,0.0053404
1294.19512,0.0053496
1293.23074,0.0053584
1292.26636,0.0053617
1291.30198,0.0053557
1290.33760,0.0053623
1289.37323,0.0053809
1288.40885,0.0053966
1287.44447,0.0054038
1286.48009,0.0054049
1285.51571,0.0054173
1284.55134,0.0054331
1283.58696,0.0054405
1282.62258,0.0054465
1281.65820,0.0054522
1280.69382,0.0054484
1279.72945,0.0054357
1278.76507,0.0054355
1277.80069,0.0054458
1276.83631,0.0054543
1275.87194,0.0054584
1274.90756,0.0054658
1273.94318,0.0054865
1272.97880,0.0055072
1272.01442,0.0055227
1271.05005,0.0055289
1270.08567,0.0055292
1269.12129,0.0055311
1268.15691,0.0055220
1267.19253,0.0055017
1266.22816,0.0054789
1265.26378,0.0054637
1264.29940,0.0054544
1263.33502,0.0054510
1262.37065,0.0054535
1261.40627,0.0054455
1260.44189,0.0054353
1259.47751,0.0054379
1258.51313,0.0054590
1257.54876,0.0054810
1256.58438,0.0054858
1255.62000,0.0054889
1254.65562,0.0054966
1253.69124,0.0055023
1252.72687,0.0054966
1251.76249,0.0054866
1250.79811,0.0054841
1249.83373,0.0054823
1248.86935,0.0054833
1247.90498,0.0054899
1246.94060,0.0054976
1245.97622,0.0054916
1245.01184,0.0054735
1244.04747,0.0054597
1243.08309,0.0054419
1242.11871,0.0054112
1241.15433,0.0053670
1240.18995,0.0053240
1239.22558,0.0052986
1238.26120,0.0052784
1237.29682,0.0052525
1236.33244,0.0052288
1235.36806,0.0052165
1234.40369,0.0052064
1233.43931,0.0051908
1232.47493,0.0051812
1231.51055,0.0051834
1230.54618,0.0051820
1229.58180,0.0051654
1228.61742,0.0051492
1227.65304,0.0051466
1226.68866,0.0051522
1225.72429,0.0051563
1224.75991,0.0051621
1223.79553,0.0051767
1222.83115,0.0051849
1221.86677,0.0051793
1220.90240,0.0051724
1219.93802,0.0051660
1218.97364,0.0051450
1218.00926,0.0051111
1217.04488,0.0050785
1216.08051,0.0050509
1215.11613,0.0050350
1214.15175,0.0050162
1213.18737,0.0049893
1212.22300,0.0049773
1211.25862,0.0049766
1210.29424,0.0049800
1209.32986,0.0049831
1208.36548,0.0049878
1207.40111,0.0050026
1206.43673,0.0050117
1205.47235,0.0050073
1204.50797,0.0049933
1203.54359,0.0049711
1202.57922,0.0049436
1201.61484,0.0049192
1200.65046,0.0049138
1199.68608,0.0049196
1198.72171,0.0049268
1197.75733,0.0049354
1196.79295,0.0049460
1195.82857,0.0049595
1194.86419,0.0049629
1193.89982,0.0049530
1192.93544,0.0049349
1191.97106,0.0049170
1191.00668,0.0049079
1190.04230,0.0049078
1189.07793,0.0049237
1188.11355,0.0049588
1187.14917,0.0050088
1186.18479,0.0050518
1185.22041,0.0050731
1184.25604,0.0050866
1183.29166,0.0050895
1182.32728,0.0050786
1181.36290,0.0050688
1180.39853,0.0050699
1179.43415,0.0050787
1178.46977,0.0050968
1177.50539,0.0051291
1176.54101,0.0051731
1175.57664,0.0052287
1174.61226,0.0052763
1173.64788,0.0053081
1172.68350,0.0053317
1171.71912,0.0053485
1170.75475,0.0053816
1169.79037,0.0054315
1168.82599,0.0054839
1167.86161,0.0055414
1166.89724,0.0055975
1165.93286,0.0056377
1164.96848,0.0056699
1164.00410,0.0057111
1163.03972,0.0057392
1162.07535,0.0057449
1161.11097,0.0057501
1160.14659,0.0057743
1159.18221,0.0058145
1158.21783,0.0058418
1157.25346,0.0058598
1156.28908,0.0058821
1155.32470,0.0059036
1154.36032,0.0059216
1153.39594,0.0059452
1152.43157,0.0059713
1151.46719,0.0059759
1150.50281,0.0059699
1149.53843,0.0059650
1148.57406,0.0059661
1147.60968,0.0059784
1146.64530,0.0059857
1145.68092,0.0059789
1144.71654,0.0059569
1143.75217,0.0059417
1142.78779,0.0059462
1141.82341,0.0059659
1140.85903,0.0059841
1139.89465,0.0059829
1138.93028,0.0059825
1137.96590,0.0059974
1137.00152,0.0060392
1136.03714,0.0061043
1135.07276,0.0061712
1134.10839,0.0062295
1133.14401,0.0062738
1132.17963,0.0063109
1131.21525,0.0063437
1130.25088,0.0063725
1129.28650,0.0063713
1128.32212,0.0063518
1127.35774,0.0063541
1126.39336,0.0063651
1125.42899,0.0063972
1124.46461,0.0064587
1123.50023,0.0065325
1122.53585,0.0066029
1121.57147,0.0066602
1120.60710,0.0067036
1119.64272,0.0067323
1118.67834,0.0067505
1117.71396,0.0067368
1116.74959,0.0067286
1115.78521,0.0067487
1114.82083,0.0067598
1113.85645,0.0067891
1112.89207,0.0068376
1111.92770,0.0068799
1110.96332,0.0069099
1109.99894,0.0069357
1109.03456,0.0069655
1108.07018,0.0069842
1107.10581,0.0069821
1106.14143,0.0069510
1105.17705,0.0069256
1104.21267,0.0069151
1103.24829,0.0068953
1102.28392,0.0068841
1101.31954,0.0068921
1100.35516,0.0069191
1099.39078,0.0069415
1098.42641,0.0069555
1097.46203,0.0069711
1096.49765,0.0069628
1095.53327,0.0069341
1094.56889,0.0069167
1093.60452,0.0069185
1092.64014,0.0069238
1091.67576,0.0069325
1090.71138,0.0069472
1089.74700,0.0069678
1088.78263,0.0069897
1087.81825,0.0069926
1086.85387,0.0069831
1085.88949,0.0069649
1084.92512,0.0069362
1083.96074,0.0069275
1082.99636,0.0069504
1082.03198,0.0069828
1081.06760,0.0070216
1080.10323,0.0070589
1079.13885,0.0070647
1078.17447,0.0070487
1077.21009,0.0070394
1076.24571,0.0070386
1075.28134,0.0070304
1074.31696,0.0070168
1073.35258,0.0070199
1072.38820,0.0070418
1071.42382,0.0070689
1070.45945,0.0070970
1069.49507,0.0071346
1068.53069,0.0071532
1067.56631,0.0071368
1066.60194,0.0071257
1065.63756,0.0071379
1064.67318,0.0071543
1063.70880,0.0071527
1062.74442,0.0071569
1061.78005,0.0071833
1060.81567,0.0072136
1059.85129,0.0072478
1058.88691,0.0072903
1057.92253,0.0073364
1056.95816,0.0073563
1055.99378,0.0073552
1055.02940,0.0073621
1054.06502,0.0073680
1053.10065,0.0073555
1052.13627,0.0073274
1051.17189,0.0073108
1050.20751,0.0072947
1049.24313,0.0072784
1048.27876,0.0072726
1047.31438,0.0072617
1046.35000,0.0072490
1045.38562,0.0072262
1044.42124,0.0072098
1043.45687,0.0072181
1042.49249,0.0072385
1041.52811,0.0072595
1040.56373,0.0072755
1039.59935,0.0072991
1038.63498,0.0073227
1037.67060,0.0073517
1036.70622,0.0073788
1035.74184,0.0073857
1034.77747,0.0073850
1033.81309,0.0073761
1032.84871,0.0073722
1031.88433,0.0073657
1030.91995,0.0073421
1029.95558,0.0073084
1028.99120,0.0072718
1028.02682,0.0072454
1027.06244,0.0072153
1026.09806,0.0071919
1025.13369,0.0071757
1024.16931,0.0071352
1023.20493,0.0070917
1022.24055,0.0070625
1021.27618,0.0070269
1020.31180,0.0069776
1019.34742,0.0069304
1018.38304,0.0068928
1017.41866,0.0068708
1016.45429,0.0068507
1015.48991,0.0068099
1014.52553,0.0067707
1013.56115,0.0067256
1012.59677,0.0066594
1011.63240,0.0066053
1010.66802,0.0065606
1009.70364,0.0065043
1008.73926,0.0064453
1007.77488,0.0063930
1006.81051,0.0063557
1005.84613,0.0063299
1004.88175,0.0062882
1003.91737,0.0062386
1002.95300,0.0062050
1001.98862,0.0061799
1001.02424,0.0061656
1000.05986,0.0061682
999.09548,0.0061729
998.13111,0.0061532
997.16673,0.0061177
996.20235,0.0061087
995.23797,0.0061079
994.27359,0.0060736
993.30922,0.0060172
992.34484,0.0059639
991.38046,0.0059298
990.41608,0.0059010
989.45171,0.0058591
988.48733,0.0058220
987.52295,0.0057922
986.55857,0.0057617
985.59419,0.0057552
984.62982,0.0057718
983.66544,0.0057634
982.70106,0.0057312
981.73668,0.0057046
980.77230,0.0056789
979.80793,0.0056689
978.84355,0.0056551
977.87917,0.0056126
976.91479,0.0055741
975.95041,0.0055313
974.98604,0.0054725
974.02166,0.0054266
973.05728,0.0054019
972.09290,0.0053697
971.12853,0.0053233
970.16415,0.0052863
969.19977,0.0052596
968.23539,0.0052495
967.27101,0.0052428
966.30664,0.0052160
965.34226,0.0051659
964.37788,0.0050951
963.41350,0.0050366
962.44912,0.0050212
961.48475,0.0050401
960.52037,0.0050368
959.55599,0.0050040
958.59161,0.0049858
957.62724,0.0049611
956.66286,0.0049211
955.69848,0.0048955
954.73410,0.0048804
953.76972,0.0048493
952.80535,0.0048141
951.84097,0.0047997
950.87659,0.0048102
949.91221,0.0048367
948.94783,0.0048285
947.98346,0.0048009
947.01908,0.0047843
946.05470,0.0047365
945.09032,0.0046840
944.12594,0.0046676
943.16157,0.0046644
942.19719,0.0046569
941.23281,0.0046602
940.26843,0.0046782
939.30406,0.0047097
938.33968,0.0047470
937.37530,0.0047555
936.41092,0.0047493
935.44654,0.0047378
934.48217,0.0046996
933.51779,0.0046479
932.55341,0.0045988
931.58903,0.0045658
930.62465,0.0045515
929.66028,0.0045469
928.69590,0.0045311
927.73152,0.0045093
926.76714,0.0045139
925.80276,0.0045262
924.83839,0.0045315
923.87401,0.0045474
922.90963,0.0045659
921.94525,0.0045636
920.98088,0.0045655
920.01650,0.0045880
919.05212,0.0045933
918.08774,0.0045824
917.12336,0.0045447
916.15899,0.0044670
915.19461,0.0043878
914.23023,0.0043303
913.26585,0.0043167
912.30147,0.0043302
911.33710,0.0043314
910.37272,0.0043250
909.40834,0.0043309
908.44396,0.0043450
907.47959,0.0043445
906.51521,0.0043626
905.55083,0.0043854
904.58645,0.0043529
903.62207,0.0043233
902.65770,0.0043522
901.69332,0.0044198
900.72894,0.0044677
899.76456,0.0044728
898.80018,0.0044669
897.83581,0.0044480
896.87143,0.0044420
895.90705,0.0044654
894.94267,0.0045225
893.97829,0.0046001
893.01392,0.0046300
892.04954,0.0046397
891.08516,0.0046523
890.12078,0.0046443
889.15641,0.0046134
888.19203,0.0045580
887.22765,0.0045032
886.26327,0.0044497
885.29889,0.0044357
884.33452,0.0044584
883.37014,0.0044772
882.40576,0.0045107
881.44138,0.0045225
880.47700,0.0045137
879.51263,0.0045002
878.54825,0.0044659
877.58387,0.0044185
876.61949,0.0043579
875.65512,0.0043075
874.69074,0.0042826
873.72636,0.0042939
872.76198,0.0043178
871.79760,0.0043377
870.83323,0.0043761
869.86885,0.0044246
868.90447,0.0045002
867.94009,0.0045720
866.97571,0.0045937
866.01134,0.0045787
865.04696,0.0045478
864.08258,0.0045409
863.11820,0.0045524
862.15382,0.0045578
861.18945,0.0045706
860.22507,0.0045905
859.26069,0.0045936
858.29631,0.0046068
857.33194,0.0046683
856.36756,0.0047277
855.40318,0.0047351
854.43880,0.0046883
853.47442,0.0046384
852.51005,0.0046220
851.54567,0.0045915
850.58129,0.0045376
849.61691,0.0044919
848.65253,0.0044664
847.68816,0.0044505
846.72378,0.0044551
845.75940,0.0044996
844.79502,0.0045458
843.83065,0.0045602
842.86627,0.0045443
841.90189,0.0045429
840.93751,0.0045700
839.97313,0.0045821
839.00876,0.0045837
838.04438,0.0045857
837.08000,0.0045913
836.11562,0.0045933
835.15124,0.0045871
834.18687,0.0045926
833.22249,0.0045950
832.25811,0.0045916
831.29373,0.0045830
830.32935,0.0045783
829.36498,0.0045839
828.40060,0.0045634
827.43622,0.0045276
826.47184,0.0044968
825.50747,0.0044791
824.54309,0.0044786
823.57871,0.0044722
822.61433,0.0044542
821.64995,0.0044331
820.68558,0.0044186
819.72120,0.0044160
818.75682,0.0044309
817.79244,0.0044310
816.82806,0.0044052
815.86369,0.0044177
814.89931,0.0044696
813.93493,0.0045185
812.97055,0.0045588
812.00618,0.0045985
811.04180,0.0046261
810.07742,0.0046219
809.11304,0.0045967
808.14866,0.0045899
807.18429,0.0046198
806.21991,0.0046335
805.25553,0.0046328
804.29115,0.0046579
803.32677,0.0046725
802.36240,0.0046537
801.39802,0.0046220
800.43364,0.0045925
799.46926,0.0045355
798.50488,0.0044468
797.54051,0.0043804
796.57613,0.0043611
795.61175,0.0043610
794.64737,0.0043487
793.68300,0.0043522
792.71862,0.0043678
791.75424,0.0043721
790.78986,0.0043802
789.82548,0.0044042
788.86111,0.0044562
787.89673,0.0045054
786.93235,0.0045443
785.96797,0.0045915
785.00359,0.0046280
784.03922,0.0046307
783.07484,0.0046004
782.11046,0.0045653
781.14608,0.0045087
780.18171,0.0044548
779.21733,0.0044525
778.25295,0.0044767
777.28857,0.0044999
776.32419,0.0045151
775.35982,0.0045540
774.39544,0.0046087
773.43106,0.0046293
772.46668,0.0046088
771.50230,0.0045821
770.53793,0.0045779
769.57355,0.0045727
768.60917,0.0045787
767.64479,0.0045997
766.68041,0.0046028
765.71604,0.0045967
764.75166,0.0046152
763.78728,0.0046769
762.82290,0.0047257
761.85853,0.0047121
760.89415,0.0046678
759.92977,0.0046388
758.96539,0.0046128
758.00101,0.0045597
757.03664,0.0044977
756.07226,0.0044415
755.10788,0.0044117
754.14350,0.0044204
753.17912,0.0044336
752.21475,0.0044306
751.25037,0.0044753
750.28599,0.0045948
749.32161,0.0047050
748.35724,0.0047844
747.39286,0.0048161
746.42848,0.0047867
745.46410,0.0047442
744.49972,0.0046877
743.53535,0.0046187
742.57097,0.0045478
741.60659,0.0044828
740.64221,0.0044455
739.67783,0.0045154
738.71346,0.0046618
737.74908,0.0047464
736.78470,0.0048098
735.82032,0.0048555
734.85594,0.0048545
733.89157,0.0048495
732.92719,0.0048201
731.96281,0.0047796
730.99843,0.0047473
730.03406,0.0047619
729.06968,0.0048335
728.10530,0.0049181
727.14092,0.0049902
726.17654,0.0050410
725.21217,0.0051005
724.24779,0.0051227
723.28341,0.0050917
722.31903,0.0050622
721.35465,0.0050455
720.39028,0.0050581
719.42590,0.0050815
718.46152,0.0051296
717.49714,0.0052243
716.53276,0.0053102
715.56839,0.0053699
714.60401,0.0054270
713.63963,0.0054617
712.67525,0.0054432
711.71088,0.0053892
710.74650,0.0053216
709.78212,0.0052653
708.81774,0.0052299
707.85336,0.0051841
706.88899,0.0051280
705.92461,0.0050821
704.96023,0.0050595
703.99585,0.0050633
703.03147,0.0050879
702.06710,0.0051076
701.10272,0.0051193
700.13834,0.0051550
699.17396,0.0051847
698.20959,0.0051978
697.24521,0.0052181
696.28083,0.0052355
695.31645,0.0052409
694.35207,0.0052217
693.38770,0.0051847
692.42332,0.0051492
691.45894,0.0051245
690.49456,0.0051057
689.53018,0.0051121
688.56581,0.0051635
687.60143,0.0052119
686.63705,0.0052489
685.67267,0.0052974
684.70829,0.0053531
683.74392,0.0053979
682.77954,0.0053950
681.81516,0.0053515
680.85078,0.0053189
679.88641,0.0052967
678.92203,0.0052439
677.95765,0.0051980
676.99327,0.0051855
676.02889,0.0051801
675.06452,0.0051800
674.10014,0.0051907
673.13576,0.0052957
672.17138,0.0054687
671.20700,0.0056101
670.24263,0.0057360
669.27825,0.0058478
668.31387,0.0058958
667.34949,0.0058557
666.38512,0.0057906
665.42074,0.0057255
664.45636,0.0056311
663.49198,0.0055468
662.52760,0.0054993
661.56323,0.0055097
660.59885,0.0055302
659.63447,0.0055233
658.67009,0.0055160
657.70571,0.0055027
656.74134,0.0054967
655.77696,0.0054971
654.81258,0.0055100
653.84820,0.0055535
652.88382,0.0056064
651.91945,0.0056587
650.95507,0.0056884
649.99069,0.0056850
649.02631,0.0056740
648.06194,0.0056497
647.09756,0.0055943
646.13318,0.0055509
645.16880,0.0055678
644.20442,0.0056019
643.24005,0.0056268
642.27567,0.0056942
641.31129,0.0057812
640.34691,0.0058392
639.38253,0.0059101
638.41816,0.0059768
637.45378,0.0060032
636.48940,0.0060052
635.52502,0.0059497
634.56065,0.0058445
633.59627,0.0057201
632.63189,0.0055785
631.66751,0.0054879
630.70313,0.0054285
629.73876,0.0054059
628.77438,0.0054086
627.81000,0.0053678
626.84562,0.0055330
625.88124,0.0057964
624.91687,0.0058806
623.95249,0.0056268
622.98811,0.0052546
622.02373,0.0054571
621.05935,0.0063607
620.09498,0.0074946
619.13060,0.0085620
618.16622,0.0094159
617.20184,0.0096760
616.23747,0.0094042
615.27309,0.0093838
614.30871,0.0094960
613.34433,0.0091382
612.37995,0.0084939
611.41558,0.0083609
610.45120,0.0088694
609.48682,0.0094051
608.52244,0.0097448
607.55806,0.0099069
606.59369,0.0096855
605.62931,0.0089225
604.66493,0.0080127
603.70055,0.0075175
602.73618,0.0072844
601.77180,0.0069615
600.80742,0.0067651
599.84304,0.0067589
598.87866,0.0065467
597.91429,0.0062192
596.94991,0.0060749
595.98553,0.0060093
595.02115,0.0059379
594.05677,0.0058665
593.09240,0.0058322
592.12802,0.0059149
591.16364,0.0061138
590.19926,0.0063295
589.23488,0.0064636
588.27051,0.0065341
587.30613,0.0065978
586.34175,0.0065972
585.37737,0.0064878
584.41300,0.0063958
583.44862,0.0063570
582.48424,0.0063037
581.51986,0.0062733
580.55548,0.0062690
579.59111,0.0062451
578.62673,0.0061753
577.66235,0.0061096
576.69797,0.0060934
575.73359,0.0060720
574.76922,0.0060031
573.80484,0.0058839
572.84046,0.0057886
571.87608,0.0057040
570.91171,0.0056318
569.94733,0.0057113
568.98295,0.0058840
568.01857,0.0060279
567.05419,0.0061774
566.08982,0.0063542
565.12544,0.0064722
564.16106,0.0065118
563.19668,0.0064768
562.23230,0.0063621
561.26793,0.0062674
560.30355,0.0061872
559.33917,0.0061781
558.37479,0.0062530
557.41041,0.0062489
556.44604,0.0062141
555.48166,0.0062589
554.51728,0.0063744
553.55290,0.0064568
552.58853,0.0064613
551.62415,0.0064600
550.65977,0.0065075
549.69539,0.0065300
548.73101,0.0064174
547.76664,0.0062544
546.80226,0.0060666
545.83788,0.0059067
544.87350,0.0059061
543.90912,0.0060245
542.94475,0.0061922
541.98037,0.0063375
541.01599,0.0064266
540.05161,0.0064396
539.08724,0.0064194
538.12286,0.0063809
537.15848,0.0062911
536.19410,0.0062409
535.22972,0.0062271
534.26535,0.0062408
533.30097,0.0062782
532.33659,0.0062780
531.37221,0.0062182
530.40783,0.0061592
529.44346,0.0061558
528.47908,0.0060630
527.51470,0.0059401
526.55032,0.0059356
525.58594,0.0059383
524.62157,0.0059051
523.65719,0.0058862
522.69281,0.0058921
521.72843,0.0059269
520.76406,0.0059546
519.79968,0.0059153
518.83530,0.0059652
517.87092,0.0061373
516.90654,0.0062208
515.94217,0.0062245
514.97779,0.0061957
514.01341,0.0061354
513.04903,0.0060767
512.08465,0.0061060
511.12028,0.0061984
510.15590,0.0062547
509.19152,0.0063004
508.22714,0.0062719
507.26276,0.0062403
506.29839,0.0062395
505.33401,0.0061637
504.36963,0.0060558
503.40525,0.0059460
502.44088,0.0059219
501.47650,0.0060008
500.51212,0.0061295
499.54774,0.0062371
498.58336,0.0062606
497.61899,0.0062692
496.65461,0.0062106
495.69023,0.0060676
494.72585,0.0059494
493.76147,0.0058816
492.79710,0.0058773
491.83272,0.0059395
490.86834,0.0060064
489.90396,0.0060727
488.93959,0.0061617
487.97521,0.0062365
487.01083,0.0062849
486.04645,0.0062812
485.08207,0.0062422
484.11770,0.0061501
483.15332,0.0060338
482.18894,0.0060092
481.22456,0.0060210
480.26018,0.0060189
479.29581,0.0059319
478.33143,0.0057928
477.36705,0.0057284
476.40267,0.0056767
475.43829,0.0056051
474.47392,0.0055514
473.50954,0.0055739
472.54516,0.0056016
471.58078,0.0056162
470.61641,0.0056747
469.65203,0.0056820
468.68765,0.0057134
467.72327,0.0057925
466.75889,0.0058250
465.79452,0.0057947
464.83014,0.0056993
463.86576,0.0056486
462.90138,0.0056511
461.93700,0.0056574
460.97263,0.0057064
460.00825,0.0057400
459.04387,0.0057160
458.07949,0.0057024
457.11512,0.0057247
456.15074,0.0057887
455.18636,0.0058516
454.22198,0.0058352
453.25760,0.0057702
452.29323,0.0056917
451.32885,0.0055860
450.36447,0.0054704
449.40009,0.0054380
448.43571,0.0054898
447.47134,0.0055522
446.50696,0.0055919
445.54258,0.0055669
444.57820,0.0056283
443.61382,0.0057864
442.64945,0.0058694
441.68507,0.0058878
440.72069,0.0058549
439.75631,0.0057901
438.79194,0.0056816
437.82756,0.0055885
436.86318,0.0055670
435.89880,0.0055385
434.93442,0.0054930
433.97005,0.0054406
433.00567,0.0054419
432.04129,0.0054708
431.07691,0.0055084
430.11253,0.0056006
429.14816,0.0057021
428.18378,0.0058185
427.21940,0.0058735
426.25502,0.0058214
425.29065,0.0057265
424.32627,0.0056822
423.36189,0.0056970
422.39751,0.0056671
421.43313,0.0056641
420.46876,0.0056997
419.50438,0.0057172
418.54000,0.0057263
417.57562,0.0057316
416.61124,0.0057411
415.64687,0.0056617
414.68249,0.0055315
413.71811,0.0054383
412.75373,0.0053877
411.78935,0.0053725
410.82498,0.0053610
409.86060,0.0053832
408.89622,0.0053657
407.93184,0.0052902
406.96747,0.0052456
406.00309,0.0052104
405.03871,0.0051736
404.07433,0.0051736
403.10995,0.0051736
402.14558,0.0051736
401.18120,0.0051736
400.21682,0.0051736
399.25244,0.0051736
