3998.31069,0.0060809
3997.34631,0.0060809
3996.38194,0.0060809
3995.41756,0.0060809
3994.45318,0.0060809
3993.48880,0.0060809
3992.52442,0.0060809
3991.56005,0.0060883
3990.59567,0.0061386
3989.63129,0.0061797
3988.66691,0.0061931
3987.70253,0.0062088
3986.73816,0.0062126
3985.77378,0.0062117
3984.80940,0.0062245
3983.84502,0.0062420
3982.88065,0.0062752
3981.91627,0.0062558
3980.95189,0.0061905
3979.98751,0.0061080
3979.02313,0.0059588
3978.05876,0.0058327
3977.09438,0.0058030
3976.13000,0.0058343
3975.16562,0.0058876
3974.20124,0.0059718
3973.23687,0.0061048
3972.27249,0.0062333
3971.30811,0.0063226
3970.34373,0.0063905
3969.37935,0.0064655
3968.41498,0.0064947
3967.45060,0.0064675
3966.48622,0.0064619
3965.52184,0.0064273
3964.55747,0.0063248
3963.59309,0.0062058
3962.62871,0.0061313
3961.66433,0.0061014
3960.69995,0.0060532
3959.73558,0.0060221
3958.77120,0.0060448
3957.80682,0.0061032
3956.84244,0.0061871
3955.87806,0.0062697
3954.91369,0.0062978
3953.94931,0.0062553
3952.98493,0.0062432
3952.02055,0.0062751
3951.05618,0.0062870
3950.09180,0.0062863
3949.12742,0.0062649
3948.16304,0.0062382
3947.19866,0.0062052
3946.23429,0.0061719
3945.26991,0.0061657
3944.30553,0.0061480
3943.34115,0.0061211
3942.37677,0.0060971
3941.41240,0.0060859
3940.44802,0.0060959
3939.48364,0.0060990
3938.51926,0.0061167
3937.55488,0.0061735
3936.59051,0.0062446
3935.62613,0.0062799
3934.66175,0.0062884
3933.69737,0.0062943
3932.73300,0.0062431
3931.76862,0.0061650
3930.80424,0.0061180
3929.83986,0.0060577
3928.87548,0.0059965
3927.91111,0.0059650
3926.94673,0.0059420
3925.98235,0.0059686
3925.01797,0.0060328
3924.05359,0.0060945
3923.08922,0.0061764
3922.12484,0.0061927
3921.16046,0.0061205
3920.19608,0.0060874
3919.23171,0.0060924
3918.26733,0.0060292
3917.30295,0.0059454
3916.33857,0.0059012
3915.37419,0.0058256
3914.40982,0.0057533
3913.44544,0.0057255
3912.48106,0.0057575
3911.51668,0.0058384
3910.55230,0.0058985
3909.58793,0.0060283
3908.62355,0.0062138
3907.65917,0.0063690
3906.69479,0.0065046
3905.73041,0.0066219
3904.76604,0.0066939
3903.80166,0.0066337
3902.83728,0.0064856
3901.87290,0.0063041
3900.90853,0.0061492
3899.94415,0.0060629
3898.97977,0.0059659
3898.01539,0.0058971
3897.05101,0.0058826
3896.08664,0.0059619
3895.12226,0.0061118
3894.15788,0.0062535
3893.19350,0.0063642
3892.22912,0.0063679
3891.26475,0.0063816
3890.30037,0.0064477
3889.33599,0.0065034
3888.37161,0.0065301
3887.40724,0.0064043
3886.44286,0.0062294
3885.47848,0.0061703
3884.51410,0.0061872
3883.54972,0.0062159
3882.58535,0.0062102
3881.62097,0.0061499
3880.65659,0.0060867
3879.69221,0.0061066
3878.72783,0.0061675
3877.76346,0.0061694
3876.79908,0.0060638
3875.83470,0.0059201
3874.87032,0.0058817
3873.90594,0.0059193
3872.94157,0.0059459
3871.97719,0.0059921
3871.01281,0.0060685
3870.04843,0.0061626
3869.08406,0.0062553
3868.11968,0.0062892
3867.15530,0.0062913
3866.19092,0.0062478
3865.22654,0.0061687
3864.26217,0.0061625
3863.29779,0.0061653
3862.33341,0.0060812
3861.36903,0.0059109
3860.40465,0.0058151
3859.44028,0.0059392
3858.47590,0.0061201
3857.51152,0.0062926
3856.54714,0.0064111
3855.58276,0.0064377
3854.61839,0.0064558
3853.65401,0.0064906
3852.68963,0.0064907
3851.72525,0.0063792
3850.76088,0.0061646
3849.79650,0.0059142
3848.83212,0.0057560
3847.86774,0.0057066
3846.90336,0.0056269
3845.93899,0.0055841
3844.97461,0.0055290
3844.01023,0.0054479
3843.04585,0.0055648
3842.08147,0.0058142
3841.11710,0.0060436
3840.15272,0.0062563
3839.18834,0.0064171
3838.22396,0.0065305
3837.25959,0.0065883
3836.29521,0.0065482
3835.33083,0.0064480
3834.36645,0.0062971
3833.40207,0.0060847
3832.43770,0.0059393
3831.47332,0.0059493
3830.50894,0.0059163
3829.54456,0.0057938
3828.58018,0.0057055
3827.61581,0.0056188
3826.65143,0.0056048
3825.68705,0.0056848
3824.72267,0.0057432
3823.75829,0.0057293
3822.79392,0.0056401
3821.82954,0.0056127
3820.86516,0.0056971
3819.90078,0.0057501
3818.93641,0.0056722
3817.97203,0.0055556
3817.00765,0.0054743
3816.04327,0.0054062
3815.07889,0.0054021
3814.11452,0.0053885
3813.15014,0.0053559
3812.18576,0.0054152
3811.22138,0.0055376
3810.25700,0.0056858
3809.29263,0.0057784
3808.32825,0.0057954
3807.36387,0.0058722
3806.39949,0.0060671
3805.43512,0.0062176
3804.47074,0.0062621
3803.50636,0.0062606
3802.54198,0.0062148
3801.57760,0.0062336
3800.61323,0.0062694
3799.64885,0.0061383
3798.68447,0.0058720
3797.72009,0.0055661
3796.75571,0.0053356
3795.79134,0.0053053
3794.82696,0.0054035
3793.86258,0.0054040
3792.89820,0.0053384
3791.93382,0.0053225
3790.96945,0.0053511
3790.00507,0.0054025
3789.04069,0.0053766
3788.07631,0.0052843
3787.11194,0.0051709
3786.14756,0.0050600
3785.18318,0.0050587
3784.21880,0.0051772
3783.25442,0.0053213
3782.29005,0.0054051
3781.32567,0.0054551
3780.36129,0.0055121
3779.39691,0.0055907
3778.43253,0.0056952
3777.46816,0.0057512
3776.50378,0.0057023
3775.53940,0.0055683
3774.57502,0.0054836
3773.61065,0.0054752
3772.64627,0.0054237
3771.68189,0.0053234
3770.71751,0.0052263
3769.75313,0.0051574
3768.78876,0.0051159
3767.82438,0.0051216
3766.86000,0.0051640
3765.89562,0.0052069
3764.93124,0.0052611
3763.96687,0.0052812
3763.00249,0.0052867
3762.03811,0.0052868
3761.07373,0.0052234
3760.10935,0.0051729
3759.14498,0.0051453
3758.18060,0.0051609
3757.21622,0.0052920
3756.25184,0.0053588
3755.28747,0.0053807
3754.32309,0.0055462
3753.35871,0.0057172
3752.39433,0.0057285
3751.42995,0.0056201
3750.46558,0.0055939
3749.50120,0.0057360
3748.53682,0.0058548
3747.57244,0.0058749
3746.60806,0.0059037
3745.64369,0.0059036
3744.67931,0.0057334
3743.71493,0.0055889
3742.75055,0.0055667
3741.78618,0.0054745
3740.82180,0.0053163
3739.85742,0.0051718
3738.89304,0.0051828
3737.92866,0.0053685
3736.96429,0.0055342
3735.99991,0.0056378
3735.03553,0.0056424
3734.07115,0.0055423
3733.10677,0.0054448
3732.14240,0.0054066
3731.17802,0.0054221
3730.21364,0.0054443
3729.24926,0.0054125
3728.28488,0.0053943
3727.32051,0.0054333
3726.35613,0.0054519
3725.39175,0.0054635
3724.42737,0.0054348
3723.46300,0.0053554
3722.49862,0.0053246
3721.53424,0.0053213
3720.56986,0.0053224
3719.60548,0.0052915
3718.64111,0.0051915
3717.67673,0.0051677
3716.71235,0.0052695
3715.74797,0.0053490
3714.78359,0.0053377
3713.81922,0.0053085
3712.85484,0.0053231
3711.89046,0.0053787
3710.92608,0.0054413
3709.96171,0.0054841
3708.99733,0.0054615
3708.03295,0.0053338
3707.06857,0.0052309
3706.10419,0.0052572
3705.13982,0.0052703
3704.17544,0.0052442
3703.21106,0.0052568
3702.24668,0.0052629
3701.28230,0.0052574
3700.31793,0.0052001
3699.35355,0.0051032
3698.38917,0.0050591
3697.42479,0.0050281
3696.46041,0.0050171
3695.49604,0.0049801
3694.53166,0.0049003
3693.56728,0.0049490
3692.60290,0.0050658
3691.63853,0.0051470
3690.67415,0.0052245
3689.70977,0.0052672
3688.74539,0.0052384
3687.78101,0.0051723
3686.81664,0.0051101
3685.85226,0.0050709
3684.88788,0.0050324
3683.92350,0.0049442
3682.95912,0.0048936
3681.99475,0.0049735
3681.03037,0.0051290
3680.06599,0.0053341
3679.10161,0.0055312
3678.13724,0.0056286
3677.17286,0.0056348
3676.20848,0.0056528
3675.24410,0.0056978
3674.27972,0.0057237
3673.31535,0.0057130
3672.35097,0.0056135
3671.38659,0.0054496
3670.42221,0.0053143
3669.45783,0.0052609
3668.49346,0.0052363
3667.52908,0.0051541
3666.56470,0.0050224
3665.60032,0.0049273
3664.63594,0.0049364
3663.67157,0.0049321
3662.70719,0.0048766
3661.74281,0.0048454
3660.77843,0.0048125
3659.81406,0.0048059
3658.84968,0.0047799
3657.88530,0.0047758
3656.92092,0.0049175
3655.95654,0.0051023
3654.99217,0.0052534
3654.02779,0.0053557
3653.06341,0.0054404
3652.09903,0.0055577
3651.13465,0.0056768
3650.17028,0.0057693
3649.20590,0.0058478
3648.24152,0.0058737
3647.27714,0.0057545
3646.31276,0.0055921
3645.34839,0.0054617
3644.38401,0.0053467
3643.41963,0.0052572
3642.45525,0.0051423
3641.49088,0.0051097
3640.52650,0.0051674
3639.56212,0.0051751
3638.59774,0.0051341
3637.63336,0.0051018
3636.66899,0.0050799
3635.70461,0.0050002
3634.74023,0.0049565
3633.77585,0.0050552
3632.81147,0.0052535
3631.84710,0.0054664
3630.88272,0.0056338
3629.91834,0.0058009
3628.95396,0.0059175
3627.98959,0.0058949
3627.02521,0.0057405
3626.06083,0.0055625
3625.09645,0.0054335
3624.13207,0.0053273
3623.16770,0.0053402
3622.20332,0.0054583
3621.23894,0.0055469
3620.27456,0.0055821
3619.31018,0.0055921
3618.34581,0.0056242
3617.38143,0.0056525
3616.41705,0.0055830
3615.45267,0.0054258
3614.48829,0.0053318
3613.52392,0.0053263
3612.55954,0.0053725
3611.59516,0.0054737
3610.63078,0.0055513
3609.66641,0.0055438
3608.70203,0.0054396
3607.73765,0.0053209
3606.77327,0.0052473
3605.80889,0.0052322
3604.84452,0.0052536
3603.88014,0.0052779
3602.91576,0.0053739
3601.95138,0.0054826
3600.98700,0.0055820
3600.02263,0.0056838
3599.05825,0.0057345
3598.09387,0.0057609
3597.12949,0.0057124
3596.16512,0.0056153
3595.20074,0.0055493
3594.23636,0.0055370
3593.27198,0.0055500
3592.30760,0.0055310
3591.34323,0.0054814
3590.37885,0.0053918
3589.41447,0.0053559
3588.45009,0.0053825
3587.48571,0.0054241
3586.52134,0.0055181
3585.55696,0.0055917
3584.59258,0.0056338
3583.62820,0.0056630
3582.66382,0.0056503
3581.69945,0.0055815
3580.73507,0.0054692
3579.77069,0.0053535
3578.80631,0.0052918
3577.84194,0.0053371
3576.87756,0.0054282
3575.91318,0.0055189
3574.94880,0.0055748
3573.98442,0.0055907
3573.02005,0.0056164
3572.05567,0.0056361
3571.09129,0.0056359
3570.12691,0.0055887
3569.16253,0.0055326
3568.19816,0.0054738
3567.23378,0.0054088
3566.26940,0.0054158
3565.30502,0.0054619
3564.34065,0.0055041
3563.37627,0.0055036
3562.41189,0.0054984
3561.44751,0.0055482
3560.48313,0.0055742
3559.51876,0.0055523
3558.55438,0.0055234
3557.59000,0.0055217
3556.62562,0.0055193
3555.66124,0.0055226
3554.69687,0.0055677
3553.73249,0.0056196
3552.76811,0.0056665
3551.80373,0.0056769
3550.83935,0.0056594
3549.87498,0.0056196
3548.91060,0.0055360
3547.94622,0.0054993
3546.98184,0.0055124
3546.01747,0.0054834
3545.05309,0.0054481
3544.08871,0.0054258
3543.12433,0.0053815
3542.15995,0.0053761
3541.19558,0.0054399
3540.23120,0.0055105
3539.26682,0.0055204
3538.30244,0.0055009
3537.33806,0.0055349
3536.37369,0.0056016
3535.40931,0.0056224
3534.44493,0.0055675
3533.48055,0.0055423
3532.51618,0.0055534
3531.55180,0.0055385
3530.58742,0.0055827
3529.62304,0.0056694
3528.65866,0.0056953
3527.69429,0.0056191
3526.72991,0.0055629
3525.76553,0.0055952
3524.80115,0.0056219
3523.83677,0.0056474
3522.87240,0.0056336
3521.90802,0.0055848
3520.94364,0.0055388
3519.97926,0.0055217
3519.01488,0.0055854
3518.05051,0.0056371
3517.08613,0.0056406
3516.12175,0.0056225
3515.15737,0.0056420
3514.19300,0.0057084
3513.22862,0.0057382
3512.26424,0.0057169
3511.29986,0.0056365
3510.33548,0.0055791
3509.37111,0.0055983
3508.40673,0.0056783
3507.44235,0.0057456
3506.47797,0.0057265
3505.51359,0.0057244
3504.54922,0.0057426
3503.58484,0.0057680
3502.62046,0.0058204
3501.65608,0.0058210
3500.69171,0.0057678
3499.72733,0.0057443
3498.76295,0.0057932
3497.79857,0.0058472
3496.83419,0.0058761
3495.86982,0.0058472
3494.90544,0.0057691
3493.94106,0.0057475
3492.97668,0.0057535
3492.01230,0.0057431
3491.04793,0.0057285
3490.08355,0.0057132
3489.11917,0.0057069
3488.15479,0.0057155
3487.19041,0.0057325
3486.22604,0.0057474
3485.26166,0.0057749
3484.29728,0.0058083
3483.33290,0.0058372
3482.36853,0.0058517
3481.40415,0.0058623
3480.43977,0.0058609
3479.47539,0.0058430
3478.51101,0.0058531
3477.54664,0.0058618
3476.58226,0.0058662
3475.61788,0.0058760
3474.65350,0.0058669
3473.68912,0.0058534
3472.72475,0.0058737
3471.76037,0.0059293
3470.79599,0.0059387
3469.83161,0.0059166
3468.86724,0.0058848
3467.90286,0.0058256
3466.93848,0.0057770
3465.97410,0.0057280
3465.00972,0.0056947
3464.04535,0.0056920
3463.08097,0.0057186
3462.11659,0.0057958
3461.15221,0.0059324
3460.18783,0.0060746
3459.22346,0.0061288
3458.25908,0.0061215
3457.29470,0.0060799
3456.33032,0.0059944
3455.36594,0.0058947
3454.40157,0.0058025
3453.43719,0.0057473
3452.47281,0.0057484
3451.50843,0.0058036
3450.54406,0.0058861
3449.57968,0.0059717
3448.61530,0.0060277
3447.65092,0.0060679
3446.68654,0.0061024
3445.72217,0.0060785
3444.75779,0.0060450
3443.79341,0.0060374
3442.82903,0.0060308
3441.86465,0.0060160
3440.90028,0.0059925
3439.93590,0.0059893
3438.97152,0.0059782
3438.00714,0.0059387
3437.04276,0.0059113
3436.07839,0.0059108
3435.11401,0.0058988
3434.14963,0.0058692
3433.18525,0.0058757
3432.22088,0.0059163
3431.25650,0.0059409
3430.29212,0.0059268
3429.32774,0.0059004
3428.36336,0.0058774
3427.39899,0.0058741
3426.43461,0.0058973
3425.47023,0.0059049
3424.50585,0.0059056
3423.54147,0.0059290
3422.57710,0.0059739
3421.61272,0.0060016
3420.64834,0.0059902
3419.68396,0.0059572
3418.71959,0.0059160
3417.75521,0.0059040
3416.79083,0.0059273
3415.82645,0.0059913
3414.86207,0.0060570
3413.89770,0.0060832
3412.93332,0.0061231
3411.96894,0.0061598
3411.00456,0.0061630
3410.04018,0.0061411
3409.07581,0.0060911
3408.11143,0.0060539
3407.14705,0.0060705
3406.18267,0.0060839
3405.21829,0.0060496
3404.25392,0.0060384
3403.28954,0.0060471
3402.32516,0.0060453
3401.36078,0.0060396
3400.39641,0.0060078
3399.43203,0.0059843
3398.46765,0.0059717
3397.50327,0.0059251
3396.53889,0.0058692
3395.57452,0.0058466
3394.61014,0.0058079
3393.64576,0.0057582
3392.68138,0.0057610
3391.71700,0.0057593
3390.75263,0.0057442
3389.78825,0.0057500
3388.82387,0.0057826
3387.85949,0.0058635
3386.89512,0.0059537
3385.93074,0.0060116
3384.96636,0.0060536
3384.00198,0.0060950
3383.03760,0.0060989
3382.07323,0.0060709
3381.10885,0.0060445
3380.14447,0.0060212
3379.18009,0.0060219
3378.21571,0.0060537
3377.25134,0.0060973
3376.28696,0.0061154
3375.32258,0.0061198
3374.35820,0.0061030
3373.39382,0.0060382
3372.42945,0.0059457
3371.46507,0.0058283
3370.50069,0.0057631
3369.53631,0.0057500
3368.57194,0.0057230
3367.60756,0.0057127
3366.64318,0.0057316
3365.67880,0.0057702
3364.71442,0.0057965
3363.75005,0.0058345
3362.78567,0.0058705
3361.82129,0.0058545
3360.85691,0.0058497
3359.89253,0.0058803
3358.92816,0.0059182
3357.96378,0.0059166
3356.99940,0.0058888
3356.03502,0.0058887
3355.07065,0.0059161
3354.10627,0.0059449
3353.14189,0.0059371
3352.17751,0.0059437
3351.21313,0.0059564
3350.24876,0.0059183
3349.28438,0.0058768
3348.32000,0.0058447
3347.35562,0.0058121
3346.39124,0.0057888
3345.42687,0.0057864
3344.46249,0.0058023
3343.49811,0.0058072
3342.53373,0.0057727
3341.56935,0.0057567
3340.60498,0.0058130
3339.64060,0.0058397
3338.67622,0.0058165
3337.71184,0.0058073
3336.74747,0.0058192
3335.78309,0.0058491
3334.81871,0.0058778
3333.85433,0.0059174
3332.88995,0.0059426
3331.92558,0.0059192
3330.96120,0.0058626
3329.99682,0.0058045
3329.03244,0.0057874
3328.06806,0.0057832
3327.10369,0.0057620
3326.13931,0.0057392
3325.17493,0.0057270
3324.21055,0.0057138
3323.24618,0.0057113
3322.28180,0.0057365
3321.31742,0.0057227
3320.35304,0.0056882
3319.38866,0.0056707
3318.42429,0.0056264
3317.45991,0.0055803
3316.49553,0.0055418
3315.53115,0.0055225
3314.56677,0.0055562
3313.60240,0.0055874
3312.63802,0.0055574
3311.67364,0.0055125
3310.70926,0.0055047
3309.74488,0.0054997
3308.78051,0.0054961
3307.81613,0.0055013
3306.85175,0.0054905
3305.88737,0.0054982
3304.92300,0.0055661
3303.95862,0.0056913
3302.99424,0.0058014
3302.02986,0.0058362
3301.06548,0.0058330
3300.10111,0.0058396
3299.13673,0.0058556
3298.17235,0.0058355
3297.20797,0.0057685
3296.24359,0.0056933
3295.27922,0.0056282
3294.31484,0.0055689
3293.35046,0.0055095
3292.38608,0.0054542
3291.42171,0.0054009
3290.45733,0.0053730
3289.49295,0.0053829
3288.52857,0.0053747
3287.56419,0.0053554
3286.59982,0.0053914
3285.63544,0.0054558
3284.67106,0.0055193
3283.70668,0.0055952
3282.74230,0.0056372
3281.77793,0.0056741
3280.81355,0.0057323
3279.84917,0.0057406
3278.88479,0.0057263
3277.92041,0.0056950
3276.95604,0.0056158
3275.99166,0.0055510
3275.02728,0.0055405
3274.06290,0.0055299
3273.09853,0.0054895
3272.13415,0.0054844
3271.16977,0.0054767
3270.20539,0.0054373
3269.24101,0.0054084
3268.27664,0.0053607
3267.31226,0.0053435
3266.34788,0.0053716
3265.38350,0.0054027
3264.41912,0.0054446
3263.45475,0.0054951
3262.49037,0.0055208
3261.52599,0.0054846
3260.56161,0.0054649
3259.59724,0.0054541
3258.63286,0.0053943
3257.66848,0.0053354
3256.70410,0.0052718
3255.73972,0.0052334
3254.77535,0.0052269
3253.81097,0.0052153
3252.84659,0.0052131
3251.88221,0.0052098
3250.91783,0.0051859
3249.95346,0.0051540
3248.98908,0.0051751
3248.02470,0.0052305
3247.06032,0.0052673
3246.09594,0.0052924
3245.13157,0.0053157
3244.16719,0.0053517
3243.20281,0.0053662
3242.23843,0.0053499
3241.27406,0.0053024
3240.30968,0.0052227
3239.34530,0.0051681
3238.38092,0.0051579
3237.41654,0.0051776
3236.45217,0.0051963
3235.48779,0.0052110
3234.52341,0.0052354
3233.55903,0.0052817
3232.59465,0.0053583
3231.63028,0.0054282
3230.66590,0.0054842
3229.70152,0.0054899
3228.73714,0.0054481
3227.77276,0.0054248
3226.80839,0.0054173
3225.84401,0.0054354
3224.87963,0.0054607
3223.91525,0.0054637
3222.95088,0.0054485
3221.98650,0.0054198
3221.02212,0.0053966
3220.05774,0.0053673
3219.09336,0.0053079
3218.12899,0.0051817
3217.16461,0.0050219
3216.20023,0.0048974
3215.23585,0.0048160
3214.27147,0.0048004
3213.30710,0.0048254
3212.34272,0.0048783
3211.37834,0.0049575
3210.41396,0.0050107
3209.44959,0.0050455
3208.48521,0.0050606
3207.52083,0.0050437
3206.55645,0.0050098
3205.59207,0.0049888
3204.62770,0.0050081
3203.66332,0.0050448
3202.69894,0.0050961
3201.73456,0.0051537
3200.77018,0.0052004
3199.80581,0.0052056
3198.84143,0.0051317
3197.87705,0.0050241
3196.91267,0.0049224
3195.94829,0.0048439
3194.98392,0.0048084
3194.01954,0.0048219
3193.05516,0.0048651
3192.09078,0.0048863
3191.12641,0.0048984
3190.16203,0.0049275
3189.19765,0.0049489
3188.23327,0.0049177
3187.26889,0.0048376
3186.30452,0.0047855
3185.34014,0.0047855
3184.37576,0.0048041
3183.41138,0.0048092
3182.44700,0.0048272
3181.48263,0.0048692
3180.51825,0.0048905
3179.55387,0.0049249
3178.58949,0.0049886
3177.62512,0.0050263
3176.66074,0.0049960
3175.69636,0.0049495
3174.73198,0.0049622
3173.76760,0.0049777
3172.80323,0.0049614
3171.83885,0.0049585
3170.87447,0.0049884
3169.91009,0.0050030
3168.94571,0.0049676
3167.98134,0.0049415
3167.01696,0.0049145
3166.05258,0.0048408
3165.08820,0.0047301
3164.12382,0.0046276
3163.15945,0.0045760
3162.19507,0.0045426
3161.23069,0.0045454
3160.26631,0.0045937
3159.30194,0.0046205
3158.33756,0.0046354
3157.37318,0.0046732
3156.40880,0.0047293
3155.44442,0.0047617
3154.48005,0.0047487
3153.51567,0.0047085
3152.55129,0.0046475
3151.58691,0.0046023
3150.62253,0.0045745
3149.65816,0.0045324
3148.69378,0.0044952
3147.72940,0.0044762
3146.76502,0.0044839
3145.80065,0.0045044
3144.83627,0.0044874
3143.87189,0.0044269
3142.90751,0.0043726
3141.94313,0.0043470
3140.97876,0.0043273
3140.01438,0.0043350
3139.05000,0.0043618
3138.08562,0.0043673
3137.12124,0.0043952
3136.15687,0.0044484
3135.19249,0.0044802
3134.22811,0.0044822
3133.26373,0.0044450
3132.29935,0.0043946
3131.33498,0.0043771
3130.37060,0.0043810
3129.40622,0.0043845
3128.44184,0.0044058
3127.47747,0.0044329
3126.51309,0.0044408
3125.54871,0.0044604
3124.58433,0.0045114
3123.61995,0.0045638
3122.65558,0.0045965
3121.69120,0.0046351
3120.72682,0.0046851
3119.76244,0.0047095
3118.79806,0.0047073
3117.83369,0.0046778
3116.86931,0.0046044
3115.90493,0.0045209
3114.94055,0.0044501
3113.97618,0.0043852
3113.01180,0.0043546
3112.04742,0.0043640
3111.08304,0.0043943
3110.11866,0.0044462
3109.15429,0.0044980
3108.18991,0.0045301
3107.22553,0.0045497
3106.26115,0.0045396
3105.29677,0.0044874
3104.33240,0.0044292
3103.36802,0.0043745
3102.40364,0.0043152
3101.43926,0.0042951
3100.47488,0.0043312
3099.51051,0.0043641
3098.54613,0.0043549
3097.58175,0.0043621
3096.61737,0.0043910
3095.65300,0.0043650
3094.68862,0.0043084
3093.72424,0.0042594
3092.75986,0.0042175
3091.79548,0.0041907
3090.83111,0.0041565
3089.86673,0.0041126
3088.90235,0.0040636
3087.93797,0.0040067
3086.97359,0.0039797
3086.00922,0.0039976
3085.04484,0.0039992
3084.08046,0.0039543
3083.11608,0.0039220
3082.15171,0.0039473
3081.18733,0.0040137
3080.22295,0.0040668
3079.25857,0.0040630
3078.29419,0.0040279
3077.32982,0.0040173
3076.36544,0.0040390
3075.40106,0.0040876
3074.43668,0.0041584
3073.47230,0.0042092
3072.50793,0.0042294
3071.54355,0.0042534
3070.57917,0.0043104
3069.61479,0.0043620
3068.65041,0.0043357
3067.68604,0.0042718
3066.72166,0.0042436
3065.75728,0.0042561
3064.79290,0.0042761
3063.82853,0.0042789
3062.86415,0.0042531
3061.89977,0.0041738
3060.93539,0.0040893
3059.97101,0.0040623
3059.00664,0.0040562
3058.04226,0.0040215
3057.07788,0.0039601
3056.11350,0.0039170
3055.14912,0.0039143
3054.18475,0.0039254
3053.22037,0.0039280
3052.25599,0.0039083
3051.29161,0.0038693
3050.32724,0.0038447
3049.36286,0.0038634
3048.39848,0.0039104
3047.43410,0.0039320
3046.46972,0.0039294
3045.50535,0.0039424
3044.54097,0.0039440
3043.57659,0.0039096
3042.61221,0.0038517
3041.64783,0.0037949
3040.68346,0.0037642
3039.71908,0.0037590
3038.75470,0.0037827
3037.79032,0.0038193
3036.82594,0.0038524
3035.86157,0.0038729
3034.89719,0.0038809
3033.93281,0.0039208
3032.96843,0.0039586
3032.00406,0.0039248
3031.03968,0.0038554
3030.07530,0.0038155
3029.11092,0.0038092
3028.14654,0.0038090
3027.18217,0.0038062
3026.21779,0.0037896
3025.25341,0.0037870
3024.28903,0.0038218
3023.32465,0.0038556
3022.36028,0.0038929
3021.39590,0.0039375
3020.43152,0.0039486
3019.46714,0.0039255
3018.50276,0.0039039
3017.53839,0.0038924
3016.57401,0.0038823
3015.60963,0.0038959
3014.64525,0.0039287
3013.68088,0.0039792
3012.71650,0.0040503
3011.75212,0.0040779
3010.78774,0.0040620
3009.82336,0.0040624
3008.85899,0.0040691
3007.89461,0.0040386
3006.93023,0.0039794
3005.96585,0.0039400
3005.00147,0.0039140
3004.03710,0.0039028
3003.07272,0.0039111
3002.10834,0.0038931
3001.14396,0.0038674
3000.17959,0.0038595
2999.21521,0.0038563
2998.25083,0.0038692
2997.28645,0.0038939
2996.32207,0.0038965
2995.35770,0.0038763
2994.39332,0.0038615
2993.42894,0.0038241
2992.46456,0.0037736
2991.50018,0.0037375
2990.53581,0.0036851
2989.57143,0.0036553
2988.60705,0.0036584
2987.64267,0.0036627
2986.67829,0.0036912
2985.71392,0.0037370
2984.74954,0.0037816
2983.78516,0.0038383
2982.82078,0.0039185
2981.85641,0.0039847
2980.89203,0.0040262
2979.92765,0.0040673
2978.96327,0.0040872
2977.99889,0.0040953
2977.03452,0.0041063
2976.07014,0.0041230
2975.10576,0.0041425
2974.14138,0.0041363
2973.17700,0.0041232
2972.21263,0.0041312
2971.24825,0.0041620
2970.28387,0.0041978
2969.31949,0.0042366
2968.35512,0.0042914
2967.39074,0.0043342
2966.42636,0.0043791
2965.46198,0.0044590
2964.49760,0.0045670
2963.53323,0.0046794
2962.56885,0.0047714
2961.60447,0.0048578
2960.64009,0.0049330
2959.67571,0.0049781
2958.71134,0.0049985
2957.74696,0.0049920
2956.78258,0.0049626
2955.81820,0.0049029
2954.85382,0.0048299
2953.88945,0.0047782
2952.92507,0.0047351
2951.96069,0.0046926
2950.99631,0.0046632
2950.03194,0.0046423
2949.06756,0.0046250
2948.10318,0.0046250
2947.13880,0.0046460
2946.17442,0.0046973
2945.21005,0.0048178
2944.24567,0.0049917
2943.28129,0.0051427
2942.31691,0.0052517
2941.35253,0.0053621
2940.38816,0.0054962
2939.42378,0.0056266
2938.45940,0.0057269
2937.49502,0.0058080
2936.53065,0.0058741
2935.56627,0.0059344
2934.60189,0.0060326
2933.63751,0.0061933
2932.67313,0.0063762
2931.70876,0.0065245
2930.74438,0.0066736
2929.78000,0.0068652
2928.81562,0.0070530
2927.85124,0.0072133
2926.88687,0.0073465
2925.92249,0.0074444
2924.95811,0.0075114
2923.99373,0.0075509
2923.02935,0.0075551
2922.06498,0.0075181
2921.10060,0.0074391
2920.13622,0.0073155
2919.17184,0.0071750
2918.20747,0.0070109
2917.24309,0.0068124
2916.27871,0.0066152
2915.31433,0.0064117
2914.34995,0.0062230
2913.38558,0.0060788
2912.42120,0.0059450
2911.45682,0.0058068
2910.49244,0.0056823
2909.52806,0.0055752
2908.56369,0.0054731
2907.59931,0.0053976
2906.63493,0.0053305
2905.67055,0.0052378
2904.70618,0.0051410
2903.74180,0.0050447
2902.77742,0.0049677
2901.81304,0.0049137
2900.84866,0.0048526
2899.88429,0.0047905
2898.91991,0.0047523
2897.95553,0.0047315
2896.99115,0.0047012
2896.02677,0.0046685
2895.06240,0.0046161
2894.09802,0.0045296
2893.13364,0.0044575
2892.16926,0.0044268
2891.20488,0.0044134
2890.24051,0.0043731
2889.27613,0.0043011
2888.31175,0.0042381
2887.34737,0.0042124
2886.38300,0.0042104
2885.41862,0.0042006
2884.45424,0.0041701
2883.48986,0.0041353
2882.52548,0.0041244
2881.56111,0.0041491
2880.59673,0.0042078
2879.63235,0.0042490
2878.66797,0.0042312
2877.70359,0.0041927
2876.73922,0.0041725
2875.77484,0.0041925
2874.81046,0.0042285
2873.84608,0.0042239
2872.88171,0.0041816
2871.91733,0.0041442
2870.95295,0.0041255
2869.98857,0.0041252
2869.02419,0.0041443
2868.05982,0.0041540
2867.09544,0.0041679
2866.13106,0.0042234
2865.16668,0.0043096
2864.20230,0.0044145
2863.23793,0.0045032
2862.27355,0.0045469
2861.30917,0.0045936
2860.34479,0.0046948
2859.38041,0.0048357
2858.41604,0.0049945
2857.45166,0.0051512
2856.48728,0.0052915
2855.52290,0.0054353
2854.55853,0.0055547
2853.59415,0.0056049
2852.62977,0.0055807
2851.66539,0.0054785
2850.70101,0.0053138
2849.73664,0.0051335
2848.77226,0.0049719
2847.80788,0.0048020
2846.84350,0.0046146
2845.87912,0.0044326
2844.91475,0.0042601
2843.95037,0.0041069
2842.98599,0.0039733
2842.02161,0.0038684
2841.05724,0.0037922
2840.09286,0.0037363
2839.12848,0.0036981
2838.16410,0.0036554
2837.19972,0.0036143
2836.23535,0.0035764
2835.27097,0.0035334
2834.30659,0.0034920
2833.34221,0.0034542
2832.37783,0.0034248
2831.41346,0.0034002
2830.44908,0.0033858
2829.48470,0.0033767
2828.52032,0.0033672
2827.55594,0.0033651
2826.59157,0.0033506
2825.62719,0.0033427
2824.66281,0.0033623
2823.69843,0.0033750
2822.73406,0.0033740
2821.76968,0.0033643
2820.80530,0.0033341
2819.84092,0.0032842
2818.87654,0.0032386
2817.91217,0.0031987
2816.94779,0.0031497
2815.98341,0.0031094
2815.01903,0.0030809
2814.05465,0.0030798
2813.09028,0.0031063
2812.12590,0.0031024
2811.16152,0.0030809
2810.19714,0.0030797
2809.23276,0.0030911
2808.26839,0.0031057
2807.30401,0.0031147
2806.33963,0.0031037
2805.37525,0.0030687
2804.41088,0.0030467
2803.44650,0.0030440
2802.48212,0.0030502
2801.51774,0.0030645
2800.55336,0.0030565
2799.58899,0.0030472
2798.62461,0.0030602
2797.66023,0.0030704
2796.69585,0.0030624
2795.73147,0.0030398
2794.76710,0.0030149
2793.80272,0.0029948
2792.83834,0.0029934
2791.87396,0.0029990
2790.90959,0.0030005
2789.94521,0.0030024
2788.98083,0.0029871
2788.01645,0.0029582
2787.05207,0.0029297
2786.08770,0.0029093
2785.12332,0.0028993
2784.15894,0.0029102
2783.19456,0.0029420
2782.23018,0.0029640
2781.26581,0.0029776
2780.30143,0.0029894
2779.33705,0.0029994
2778.37267,0.0030107
2777.40829,0.0030087
2776.44392,0.0029880
2775.47954,0.0029544
2774.51516,0.0029311
2773.55078,0.0029326
2772.58641,0.0029416
2771.62203,0.0029362
2770.65765,0.0029204
2769.69327,0.0029119
2768.72889,0.0029082
2767.76452,0.0029165
2766.80014,0.0029339
2765.83576,0.0029328
2764.87138,0.0029069
2763.90700,0.0028682
2762.94263,0.0028474
2761.97825,0.0028418
2761.01387,0.0028231
2760.04949,0.0028103
2759.08512,0.0028107
2758.12074,0.0028051
2757.15636,0.0028043
2756.19198,0.0028176
2755.22760,0.0028234
2754.26323,0.0028053
2753.29885,0.0027731
2752.33447,0.0027504
2751.37009,0.0027601
2750.40571,0.0027966
2749.44134,0.0028284
2748.47696,0.0028364
2747.51258,0.0028091
2746.54820,0.0027669
2745.58382,0.0027484
2744.61945,0.0027443
2743.65507,0.0027359
2742.69069,0.0027227
2741.72631,0.0027165
2740.76194,0.0027319
2739.79756,0.0027626
2738.83318,0.0027915
2737.86880,0.0027848
2736.90442,0.0027283
2735.94005,0.0026533
2734.97567,0.0026006
2734.01129,0.0025896
2733.04691,0.0025944
2732.08253,0.0025979
2731.11816,0.0026149
2730.15378,0.0026514
2729.18940,0.0026917
2728.22502,0.0027242
2727.26065,0.0027552
2726.29627,0.0027691
2725.33189,0.0027573
2724.36751,0.0027447
2723.40313,0.0027457
2722.43876,0.0027413
2721.47438,0.0027044
2720.51000,0.0026569
2719.54562,0.0026240
2718.58124,0.0025940
2717.61687,0.0025643
2716.65249,0.0025443
2715.68811,0.0025463
2714.72373,0.0025592
2713.75935,0.0025702
2712.79498,0.0026040
2711.83060,0.0026570
2710.86622,0.0026962
2709.90184,0.0027207
2708.93747,0.0027370
2707.97309,0.0027425
2707.00871,0.0027404
2706.04433,0.0027307
2705.07995,0.0027156
2704.11558,0.0027028
2703.15120,0.0026774
2702.18682,0.0026333
2701.22244,0.0025994
2700.25806,0.0025694
2699.29369,0.0025278
2698.32931,0.0024968
2697.36493,0.0024846
2696.40055,0.0024949
2695.43618,0.0025163
2694.47180,0.0025334
2693.50742,0.0025570
2692.54304,0.0025813
2691.57866,0.0025878
2690.61429,0.0025661
2689.64991,0.0025296
2688.68553,0.0024936
2687.72115,0.0024692
2686.75677,0.0024748
2685.79240,0.0024938
2684.82802,0.0025064
2683.86364,0.0025179
2682.89926,0.0025350
2681.93488,0.0025465
2680.97051,0.0025399
2680.00613,0.0025210
2679.04175,0.0024870
2678.07737,0.0024565
2677.11300,0.0024521
2676.14862,0.0024601
2675.18424,0.0024598
2674.21986,0.0024444
2673.25548,0.0024336
2672.29111,0.0024363
2671.32673,0.0024383
2670.36235,0.0024303
2669.39797,0.0024237
2668.43359,0.0024348
2667.46922,0.0024493
2666.50484,0.0024470
2665.54046,0.0024300
2664.57608,0.0024041
2663.61171,0.0023763
2662.64733,0.0023687
2661.68295,0.0023825
2660.71857,0.0023996
2659.75419,0.0024220
2658.78982,0.0024533
2657.82544,0.0025017
2656.86106,0.0025594
2655.89668,0.0025911
2654.93230,0.0025742
2653.96793,0.0025329
2653.00355,0.0025068
2652.03917,0.0024928
2651.07479,0.0024812
2650.11041,0.0024703
2649.14604,0.0024596
2648.18166,0.0024409
2647.21728,0.0024186
2646.25290,0.0024233
2645.28853,0.0024392
2644.32415,0.0024384
2643.35977,0.0024257
2642.39539,0.0024179
2641.43101,0.0024212
2640.46664,0.0024319
2639.50226,0.0024599
2638.53788,0.0024930
2637.57350,0.0025102
2636.60912,0.0025031
2635.64475,0.0024874
2634.68037,0.0024670
2633.71599,0.0024254
2632.75161,0.0023912
2631.78724,0.0023648
2630.82286,0.0023355
2629.85848,0.0023269
2628.89410,0.0023332
2627.92972,0.0023353
2626.96535,0.0023222
2626.00097,0.0022980
2625.03659,0.0022775
2624.07221,0.0022607
2623.10783,0.0022395
2622.14346,0.0022297
2621.17908,0.0022280
2620.21470,0.0022256
2619.25032,0.0022419
2618.28594,0.0022731
2617.32157,0.0023129
2616.35719,0.0023359
2615.39281,0.0023368
2614.42843,0.0023425
2613.46406,0.0023498
2612.49968,0.0023647
2611.53530,0.0023819
2610.57092,0.0023714
2609.60654,0.0023071
2608.64217,0.0022311
2607.67779,0.0021761
2606.71341,0.0021350
2605.74903,0.0021430
2604.78465,0.0021395
2603.82028,0.0021018
2602.85590,0.0020819
2601.89152,0.0020592
2600.92714,0.0020614
2599.96276,0.0020752
2598.99839,0.0020641
2598.03401,0.0020699
2597.06963,0.0021034
2596.10525,0.0021542
2595.14088,0.0022217
2594.17650,0.0022857
2593.21212,0.0023210
2592.24774,0.0023500
2591.28336,0.0023593
2590.31899,0.0023029
2589.35461,0.0022295
2588.39023,0.0021755
2587.42585,0.0021388
2586.46147,0.0021254
2585.49710,0.0021115
2584.53272,0.0020984
2583.56834,0.0020908
2582.60396,0.0020791
2581.63959,0.0020838
2580.67521,0.0020995
2579.71083,0.0020792
2578.74645,0.0020190
2577.78207,0.0019872
2576.81770,0.0020079
2575.85332,0.0020423
2574.88894,0.0020873
2573.92456,0.0021316
2572.96018,0.0021532
2571.99581,0.0021707
2571.03143,0.0022058
2570.06705,0.0022352
2569.10267,0.0022402
2568.13829,0.0022112
2567.17392,0.0021040
2566.20954,0.0019845
2565.24516,0.0019479
2564.28078,0.0019402
2563.31641,0.0018955
2562.35203,0.0018300
2561.38765,0.0018012
2560.42327,0.0018286
2559.45889,0.0018889
2558.49452,0.0019542
2557.53014,0.0020273
2556.56576,0.0020799
2555.60138,0.0020428
2554.63700,0.0020021
2553.67263,0.0020190
2552.70825,0.0020023
2551.74387,0.0019324
2550.77949,0.0018516
2549.81512,0.0018136
2548.85074,0.0018271
2547.88636,0.0018464
2546.92198,0.0019000
2545.95760,0.0020125
2544.99323,0.0020785
2544.02885,0.0020900
2543.06447,0.0021616
2542.10009,0.0022283
2541.13571,0.0022049
2540.17134,0.0021344
2539.20696,0.0020571
2538.24258,0.0020160
2537.27820,0.0019874
2536.31382,0.0019191
2535.34945,0.0018750
2534.38507,0.0018945
2533.42069,0.0019129
2532.45631,0.0019673
2531.49194,0.0020879
2530.52756,0.0021481
2529.56318,0.0021257
2528.59880,0.0021351
2527.63442,0.0022023
2526.67005,0.0022304
2525.70567,0.0021893
2524.74129,0.0021098
2523.77691,0.0019968
2522.81253,0.0019213
2521.84816,0.0018885
2520.88378,0.0018599
2519.91940,0.0018655
2518.95502,0.0019080
2517.99065,0.0019646
2517.02627,0.0020153
2516.06189,0.0020494
2515.09751,0.0020431
2514.13313,0.0020472
2513.16876,0.0020563
2512.20438,0.0020063
2511.24000,0.0020065
2510.27562,0.0020502
2509.31124,0.0020595
2508.34687,0.0020653
2507.38249,0.0020716
2506.41811,0.0020397
2505.45373,0.0019222
2504.48935,0.0018101
2503.52498,0.0017519
2502.56060,0.0017152
2501.59622,0.0016728
2500.63184,0.0015990
2499.66747,0.0015830
2498.70309,0.0015801
2497.73871,0.0015400
2496.77433,0.0015236
2495.80995,0.0015335
2494.84558,0.0015520
2493.88120,0.0015520
2492.91682,0.0016299
2491.95244,0.0017576
2490.98806,0.0018383
2490.02369,0.0019333
2489.05931,0.0020247
2488.09493,0.0020790
2487.13055,0.0020479
2486.16618,0.0019642
2485.20180,0.0019439
2484.23742,0.0019648
2483.27304,0.0019371
2482.30866,0.0018605
2481.34429,0.0018434
2480.37991,0.0018487
2479.41553,0.0018546
2478.45115,0.0019096
2477.48677,0.0019125
2476.52240,0.0018462
2475.55802,0.0017693
2474.59364,0.0017374
2473.62926,0.0017700
2472.66488,0.0017966
2471.70051,0.0017942
2470.73613,0.0018146
2469.77175,0.0018712
2468.80737,0.0019157
2467.84300,0.0019669
2466.87862,0.0020080
2465.91424,0.0019977
2464.94986,0.0019866
2463.98548,0.0019827
2463.02111,0.0019552
2462.05673,0.0018759
2461.09235,0.0017620
2460.12797,0.0016633
2459.16359,0.0016039
2458.19922,0.0015690
2457.23484,0.0015202
2456.27046,0.0014895
2455.30608,0.0015056
2454.34171,0.0015491
2453.37733,0.0016068
2452.41295,0.0016606
2451.44857,0.0016732
2450.48419,0.0016451
2449.51982,0.0016115
2448.55544,0.0015679
2447.59106,0.0015702
2446.62668,0.0016353
2445.66230,0.0016874
2444.69793,0.0017395
2443.73355,0.0017886
2442.76917,0.0018062
2441.80479,0.0017927
2440.84041,0.0017290
2439.87604,0.0016622
2438.91166,0.0016628
2437.94728,0.0016970
2436.98290,0.0017036
2436.01853,0.0017142
2435.05415,0.0017590
2434.08977,0.0017955
2433.12539,0.0018029
2432.16101,0.0017663
2431.19664,0.0016723
2430.23226,0.0015496
2429.26788,0.0014502
2428.30350,0.0014445
2427.33912,0.0015056
2426.37475,0.0015539
2425.41037,0.0015809
2424.44599,0.0015813
2423.48161,0.0015944
2422.51724,0.0016388
2421.55286,0.0016636
2420.58848,0.0016383
2419.62410,0.0015827
2418.65972,0.0015558
2417.69535,0.0015503
2416.73097,0.0015754
2415.76659,0.0016154
2414.80221,0.0016213
2413.83783,0.0016370
2412.87346,0.0016496
2411.90908,0.0016548
2410.94470,0.0016659
2409.98032,0.0016600
2409.01594,0.0016468
2408.05157,0.0016309
2407.08719,0.0016262
2406.12281,0.0016135
2405.15843,0.0015896
2404.19406,0.0015445
2403.22968,0.0014863
2402.26530,0.0014824
2401.30092,0.0015071
2400.33654,0.0015291
2399.37217,0.0015197
2398.40779,0.0014884
2397.44341,0.0014755
2396.47903,0.0014720
2395.51465,0.0015235
2394.55028,0.0015715
2393.58590,0.0015525
2392.62152,0.0015294
2391.65714,0.0015103
2390.69276,0.0015106
2389.72839,0.0015389
2388.76401,0.0015540
2387.79963,0.0015474
2386.83525,0.0015651
2385.87088,0.0016396
2384.90650,0.0017716
2383.94212,0.0019611
2382.97774,0.0021558
2382.01336,0.0023647
2381.04899,0.0026168
2380.08461,0.0028649
2379.12023,0.0031622
2378.15585,0.0035308
2377.19147,0.0039209
2376.22710,0.0043747
2375.26272,0.0048912
2374.29834,0.0054472
2373.33396,0.0060421
2372.36959,0.0066313
2371.40521,0.0071983
2370.44083,0.0077382
2369.47645,0.0082293
2368.51207,0.0086514
2367.54770,0.0090082
2366.58332,0.0093035
2365.61894,0.0095276
2364.65456,0.0097051
2363.69018,0.0098380
2362.72581,0.0099414
2361.76143,0.0100245
2360.79705,0.0100569
2359.83267,0.0100449
2358.86829,0.0099603
2357.90392,0.0097758
2356.93954,0.0094762
2355.97516,0.0090435
2355.01078,0.0084640
2354.04641,0.0076832
2353.08203,0.0067583
2352.11765,0.0058557
2351.15327,0.0051224
2350.18889,0.0046567
2349.22452,0.0044919
2348.26014,0.0046321
2347.29576,0.0050157
2346.33138,0.0055536
2345.36700,0.0061835
2344.40263,0.0068330
2343.43825,0.0073684
2342.47387,0.0076909
2341.50949,0.0078615
2340.54512,0.0079336
2339.58074,0.0079180
2338.61636,0.0078749
2337.65198,0.0078472
2336.68760,0.0078252
2335.72323,0.0077689
2334.75885,0.0076742
2333.79447,0.0075746
2332.83009,0.0075073
2331.86571,0.0074456
2330.90134,0.0073568
2329.93696,0.0072654
2328.97258,0.0071441
2328.00820,0.0069875
2327.04382,0.0068321
2326.07945,0.0066845
2325.11507,0.0065065
2324.15069,0.0062606
2323.18631,0.0059955
2322.22194,0.0057583
2321.25756,0.0055657
2320.29318,0.0053631
2319.32880,0.0051089
2318.36442,0.0048601
2317.40005,0.0046206
2316.43567,0.0043988
2315.47129,0.0041995
2314.50691,0.0039885
2313.54253,0.0037697
2312.57816,0.0035537
2311.61378,0.0033513
2310.64940,0.0031849
2309.68502,0.0030658
2308.72065,0.0029163
2307.75627,0.0027394
2306.79189,0.0025869
2305.82751,0.0024687
2304.86313,0.0023921
2303.89876,0.0023444
2302.93438,0.0023010
2301.97000,0.0022801
2301.00562,0.0022757
2300.04124,0.0022586
2299.07687,0.0022496
2298.11249,0.0022633
2297.14811,0.0022594
2296.18373,0.0022556
2295.21935,0.0022517
2294.25498,0.0022478
2293.29060,0.0022440
2292.32622,0.0022401
2291.36184,0.0022362
2290.39747,0.0022324
2289.43309,0.0022285
2288.46871,0.0022247
2287.50433,0.0022208
2286.53995,0.0022169
2285.57558,0.0022131
2284.61120,0.0022092
2283.64682,0.0022053
2282.68244,0.0022015
2281.71806,0.0021976
2280.75369,0.0021937
2279.78931,0.0021899
2278.82493,0.0021860
2277.86055,0.0021822
2276.89618,0.0021783
2275.93180,0.0021744
2274.96742,0.0021706
2274.00304,0.0021667
2273.03866,0.0021628
2272.07429,0.0021590
2271.10991,0.0021551
2270.14553,0.0021512
2269.18115,0.0021474
2268.21677,0.0021435
2267.25240,0.0021396
2266.28802,0.0021358
2265.32364,0.0021319
2264.35926,0.0021281
2263.39488,0.0021242
2262.43051,0.0021203
2261.46613,0.0021165
2260.50175,0.0021126
2259.53737,0.0021087
2258.57300,0.0021049
2257.60862,0.0021010
2256.64424,0.0020971
2255.67986,0.0020933
2254.71548,0.0020894
2253.75111,0.0020855
2252.78673,0.0020817
2251.82235,0.0020778
2250.85797,0.0020740
2249.89359,0.0020701
2248.92922,0.0020662
2247.96484,0.0020624
2247.00046,0.0020585
2246.03608,0.0020546
2245.07171,0.0020508
2244.10733,0.0020469
2243.14295,0.0020430
2242.17857,0.0020392
2241.21419,0.0020353
2240.24982,0.0020314
2239.28544,0.0020276
2238.32106,0.0020237
2237.35668,0.0020199
2236.39230,0.0020160
2235.42793,0.0020121
2234.46355,0.0020083
2233.49917,0.0020044
2232.53479,0.0020005
2231.57041,0.0019967
2230.60604,0.0019928
2229.64166,0.0019889
2228.67728,0.0019851
2227.71290,0.0019812
2226.74853,0.0019773
2225.78415,0.0019735
2224.81977,0.0019696
2223.85539,0.0019658
2222.89101,0.0019619
2221.92664,0.0019580
2220.96226,0.0019542
2219.99788,0.0019503
2219.03350,0.0019464
2218.06912,0.0019426
2217.10475,0.0019387
2216.14037,0.0019348
2215.17599,0.0019310
2214.21161,0.0019271
2213.24724,0.0019232
2212.28286,0.0019194
2211.31848,0.0019155
2210.35410,0.0019117
2209.38972,0.0019078
2208.42535,0.0019039
2207.46097,0.0019001
2206.49659,0.0018962
2205.53221,0.0018923
2204.56783,0.0018885
2203.60346,0.0018846
2202.63908,0.0018807
2201.67470,0.0018769
2200.71032,0.0018730
2199.74594,0.0018691
2198.78157,0.0018653
2197.81719,0.0018614
2196.85281,0.0018576
2195.88843,0.0018537
2194.92406,0.0018498
2193.95968,0.0018460
2192.99530,0.0018421
2192.03092,0.0018382
2191.06654,0.0018344
2190.10217,0.0018305
2189.13779,0.0018266
2188.17341,0.0018228
2187.20903,0.0018189
2186.24465,0.0018150
2185.28028,0.0018112
2184.31590,0.0018073
2183.35152,0.0018035
2182.38714,0.0017996
2181.42276,0.0017957
2180.45839,0.0017919
2179.49401,0.0017880
2178.52963,0.0017841
2177.56525,0.0017803
2176.60088,0.0017764
2175.63650,0.0017725
2174.67212,0.0017687
2173.70774,0.0017648
2172.74336,0.0017609
2171.77899,0.0017571
2170.81461,0.0017532
2169.85023,0.0017494
2168.88585,0.0017455
2167.92147,0.0017416
2166.95710,0.0017378
2165.99272,0.0017339
2165.02834,0.0017300
2164.06396,0.0017262
2163.09959,0.0017223
2162.13521,0.0017184
2161.17083,0.0017146
2160.20645,0.0017107
2159.24207,0.0017068
2158.27770,0.0017030
2157.31332,0.0016991
2156.34894,0.0016953
2155.38456,0.0016914
2154.42018,0.0016875
2153.45581,0.0016837
2152.49143,0.0016798
2151.52705,0.0016759
2150.56267,0.0016721
2149.59829,0.0016682
2148.63392,0.0016643
2147.66954,0.0016605
2146.70516,0.0016566
2145.74078,0.0016527
2144.77641,0.0016489
2143.81203,0.0016450
2142.84765,0.0016412
2141.88327,0.0016373
2140.91889,0.0016334
2139.95452,0.0016296
2138.99014,0.0016257
2138.02576,0.0016218
2137.06138,0.0016180
2136.09700,0.0016141
2135.13263,0.0016102
2134.16825,0.0016064
2133.20387,0.0016025
2132.23949,0.0015986
2131.27512,0.0015948
2130.31074,0.0015909
2129.34636,0.0015871
2128.38198,0.0015832
2127.41760,0.0015793
2126.45323,0.0015755
2125.48885,0.0015716
2124.52447,0.0015677
2123.56009,0.0015639
2122.59571,0.0015600
2121.63134,0.0015561
2120.66696,0.0015523
2119.70258,0.0015484
2118.73820,0.0015445
2117.77382,0.0015407
2116.80945,0.0015368
2115.84507,0.0015330
2114.88069,0.0015291
2113.91631,0.0015252
2112.95194,0.0015214
2111.98756,0.0015175
2111.02318,0.0015136
2110.05880,0.0015098
2109.09442,0.0015059
2108.13005,0.0015020
2107.16567,0.0014982
2106.20129,0.0014943
2105.23691,0.0014905
2104.27253,0.0014866
2103.30816,0.0014827
2102.34378,0.0014789
2101.37940,0.0014750
2100.41502,0.0014711
2099.45065,0.0014673
2098.48627,0.0014634
2097.52189,0.0014595
2096.55751,0.0014557
2095.59313,0.0014518
2094.62876,0.0014479
2093.66438,0.0014441
2092.70000,0.0014402
2091.73562,0.0014364
2090.77124,0.0014325
2089.80687,0.0014286
2088.84249,0.0014248
2087.87811,0.0014209
2086.91373,0.0014170
2085.94935,0.0014132
2084.98498,0.0014093
2084.02060,0.0014054
2083.05622,0.0014016
2082.09184,0.0013977
2081.12747,0.0013938
2080.16309,0.0013900
2079.19871,0.0013861
2078.23433,0.0013823
2077.26995,0.0013784
2076.30558,0.0013745
2075.34120,0.0013707
2074.37682,0.0013668
2073.41244,0.0013629
2072.44806,0.0013591
2071.48369,0.0013552
2070.51931,0.0013513
2069.55493,0.0013475
2068.59055,0.0013436
2067.62618,0.0013397
2066.66180,0.0013359
2065.69742,0.0013320
2064.73304,0.0013282
2063.76866,0.0013243
2062.80429,0.0013204
2061.83991,0.0013166
2060.87553,0.0013127
2059.91115,0.0013088
2058.94677,0.0013050
2057.98240,0.0013011
2057.01802,0.0012972
2056.05364,0.0012934
2055.08926,0.0012895
2054.12488,0.0012856
2053.16051,0.0012818
2052.19613,0.0012779
2051.23175,0.0012741
2050.26737,0.0012702
2049.30300,0.0012663
2048.33862,0.0012625
2047.37424,0.0012586
2046.40986,0.0012547
2045.44548,0.0012509
2044.48111,0.0012470
2043.51673,0.0012431
2042.55235,0.0012393
2041.58797,0.0012354
2040.62359,0.0012315
2039.65922,0.0012277
2038.69484,0.0012238
2037.73046,0.0012200
2036.76608,0.0012161
2035.80171,0.0012122
2034.83733,0.0012084
2033.87295,0.0012045
2032.90857,0.0012006
2031.94419,0.0011968
2030.97982,0.0011929
2030.01544,0.0011890
2029.05106,0.0011852
2028.08668,0.0011813
2027.12230,0.0011774
2026.15793,0.0011736
2025.19355,0.0011697
2024.22917,0.0011659
2023.26479,0.0011620
2022.30041,0.0011581
2021.33604,0.0011543
2020.37166,0.0011504
2019.40728,0.0011465
2018.44290,0.0011427
2017.47853,0.0011388
2016.51415,0.0011349
2015.54977,0.0011311
2014.58539,0.0011272
2013.62101,0.0011233
2012.65664,0.0011195
2011.69226,0.0011156
2010.72788,0.0011118
2009.76350,0.0011079
2008.79912,0.0011040
2007.83475,0.0011002
2006.87037,0.0010963
2005.90599,0.0010924
2004.94161,0.0010886
2003.97724,0.0010847
2003.01286,0.0010808
2002.04848,0.0010770
2001.08410,0.0010731
2000.11972,0.0010692
1999.15535,0.0010654
1998.19097,0.0010615
1997.22659,0.0010577
1996.26221,0.0010538
1995.29783,0.0010499
1994.33346,0.0010461
1993.36908,0.0010422
1992.40470,0.0010383
1991.44032,0.0010345
1990.47594,0.0010306
1989.51157,0.0010267
1988.54719,0.0010229
1987.58281,0.0010190
1986.61843,0.0010151
1985.65406,0.0010113
1984.68968,0.0010074
1983.72530,0.0010036
1982.76092,0.0009997
1981.79654,0.0009958
1980.83217,0.0009920
1979.86779,0.0009881
1978.90341,0.0009842
1977.93903,0.0009804
1976.97465,0.0009765
1976.01028,0.0009726
1975.04590,0.0009688
1974.08152,0.0009649
1973.11714,0.0009610
1972.15276,0.0009572
1971.18839,0.0009533
1970.22401,0.0009495
1969.25963,0.0009456
1968.29525,0.0009417
1967.33088,0.0009379
1966.36650,0.0009340
1965.40212,0.0009301
1964.43774,0.0009263
1963.47336,0.0009224
1962.50899,0.0009185
1961.54461,0.0009147
1960.58023,0.0009108
1959.61585,0.0009069
1958.65147,0.0009031
1957.68710,0.0008992
1956.72272,0.0008954
1955.75834,0.0008915
1954.79396,0.0008876
1953.82959,0.0008838
1952.86521,0.0008799
1951.90083,0.0008760
1950.93645,0.0008722
1949.97207,0.0008683
1949.00770,0.0008644
1948.04332,0.0008606
1947.07894,0.0008567
1946.11456,0.0008529
1945.15018,0.0008490
1944.18581,0.0008451
1943.22143,0.0008413
1942.25705,0.0008374
1941.29267,0.0008335
1940.32829,0.0008297
1939.36392,0.0008258
1938.39954,0.0008219
1937.43516,0.0008181
1936.47078,0.0008142
1935.50641,0.0008103
1934.54203,0.0008065
1933.57765,0.0008026
1932.61327,0.0007988
1931.64889,0.0007949
1930.68452,0.0007910
1929.72014,0.0007872
1928.75576,0.0007833
1927.79138,0.0007794
1926.82700,0.0007756
1925.86263,0.0007717
1924.89825,0.0007678
1923.93387,0.0007640
1922.96949,0.0007601
1922.00512,0.0007562
1921.04074,0.0007524
1920.07636,0.0007485
1919.11198,0.0007447
1918.14760,0.0007408
1917.18323,0.0007369
1916.21885,0.0007331
1915.25447,0.0007292
1914.29009,0.0007253
1913.32571,0.0007215
1912.36134,0.0007176
1911.39696,0.0007137
1910.43258,0.0007099
1909.46820,0.0007060
1908.50382,0.0007021
1907.53945,0.0006983
1906.57507,0.0006944
1905.61069,0.0006906
1904.64631,0.0006867
1903.68194,0.0006828
1902.71756,0.0006790
1901.75318,0.0006751
1900.78880,0.0006712
1899.82442,0.0006674
1898.86005,0.0006635
1897.89567,0.0006596
1896.93129,0.0006558
1895.96691,0.0006519
1895.00253,0.0006480
1894.03816,0.0006442
1893.07378,0.0006403
1892.10940,0.0006365
1891.14502,0.0006326
1890.18065,0.0006287
1889.21627,0.0006249
1888.25189,0.0006210
1887.28751,0.0006171
1886.32313,0.0005972
1885.35876,0.0005964
1884.39438,0.0006104
1883.43000,0.0006244
1882.46562,0.0006502
1881.50124,0.0007138
1880.53687,0.0007420
1879.57249,0.0007047
1878.60811,0.0006235
1877.64373,0.0004937
1876.67935,0.0003684
1875.71498,0.0002589
1874.75060,0.0002014
1873.78622,0.0002796
1872.82184,0.0003894
1871.85747,0.0004714
1870.89309,0.0005634
1869.92871,0.0006881
1868.96433,0.0007662
1867.99995,0.0007625
1867.03558,0.0006867
1866.07120,0.0005675
1865.10682,0.0004949
1864.14244,0.0004543
1863.17806,0.0004547
1862.21369,0.0005113
1861.24931,0.0005231
1860.28493,0.0004790
1859.32055,0.0004349
1858.35618,0.0004343
1857.39180,0.0004814
1856.42742,0.0005177
1855.46304,0.0005006
1854.49866,0.0004784
1853.53429,0.0005174
1852.56991,0.0005646
1851.60553,0.0005790
1850.64115,0.0005792
1849.67677,0.0005845
1848.71240,0.0006272
1847.74802,0.0006783
1846.78364,0.0007099
1845.81926,0.0007360
1844.85488,0.0007457
1843.89051,0.0007183
1842.92613,0.0006991
1841.96175,0.0007237
1840.99737,0.0007242
1840.03300,0.0006808
1839.06862,0.0006330
1838.10424,0.0006294
1837.13986,0.0006646
1836.17548,0.0006471
1835.21111,0.0006008
1834.24673,0.0005919
1833.28235,0.0006113
1832.31797,0.0006319
1831.35359,0.0006472
1830.38922,0.0006978
1829.42484,0.0007644
1828.46046,0.0008066
1827.49608,0.0008402
1826.53171,0.0008636
1825.56733,0.0008479
1824.60295,0.0008032
1823.63857,0.0007787
1822.67419,0.0007509
1821.70982,0.0006850
1820.74544,0.0006037
1819.78106,0.0005308
1818.81668,0.0004998
1817.85230,0.0004927
1816.88793,0.0004748
1815.92355,0.0004737
1814.95917,0.0004975
1813.99479,0.0005273
1813.03041,0.0005755
1812.06604,0.0006410
1811.10166,0.0006925
1810.13728,0.0007262
1809.17290,0.0007425
1808.20853,0.0007431
1807.24415,0.0007548
1806.27977,0.0007734
1805.31539,0.0007833
1804.35101,0.0008030
1803.38664,0.0008371
1802.42226,0.0008652
1801.45788,0.0008910
1800.49350,0.0009083
1799.52912,0.0008741
1798.56475,0.0008049
1797.60037,0.0007711
1796.63599,0.0007858
1795.67161,0.0008253
1794.70724,0.0008613
1793.74286,0.0008785
1792.77848,0.0008949
1791.81410,0.0009026
1790.84972,0.0008890
1789.88535,0.0008834
1788.92097,0.0008786
1787.95659,0.0008306
1786.99221,0.0007735
1786.02783,0.0007850
1785.06346,0.0008227
1784.09908,0.0008347
1783.13470,0.0008483
1782.17032,0.0008447
1781.20594,0.0008322
1780.24157,0.0008273
1779.27719,0.0008090
1778.31281,0.0008279
1777.34843,0.0009065
1776.38406,0.0010015
1775.41968,0.0010854
1774.45530,0.0011572
1773.49092,0.0012276
1772.52654,0.0012860
1771.56217,0.0013191
1770.59779,0.0013131
1769.63341,0.0012786
1768.66903,0.0012131
1767.70465,0.0011225
1766.74028,0.0010961
1765.77590,0.0011487
1764.81152,0.0012098
1763.84714,0.0012291
1762.88276,0.0012146
1761.91839,0.0012395
1760.95401,0.0012844
1759.98963,0.0013014
1759.02525,0.0013100
1758.06088,0.0012956
1757.09650,0.0012856
1756.13212,0.0013604
1755.16774,0.0015049
1754.20336,0.0016628
1753.23899,0.0018209
1752.27461,0.0019567
1751.31023,0.0020617
1750.34585,0.0021647
1749.38147,0.0022534
1748.41710,0.0023096
1747.45272,0.0023302
1746.48834,0.0022944
1745.52396,0.0022786
1744.55959,0.0023484
1743.59521,0.0024107
1742.63083,0.0024392
1741.66645,0.0024379
1740.70207,0.0023743
1739.73770,0.0023460
1738.77332,0.0024415
1737.80894,0.0025994
1736.84456,0.0027225
1735.88018,0.0027693
1734.91581,0.0027716
1733.95143,0.0027744
1732.98705,0.0027607
1732.02267,0.0026673
1731.05829,0.0024915
1730.09392,0.0022489
1729.12954,0.0020025
1728.16516,0.0018808
1727.20078,0.0018730
1726.23641,0.0018649
1725.27203,0.0018086
1724.30765,0.0017432
1723.34327,0.0017668
1722.37889,0.0019003
1721.41452,0.0020422
1720.45014,0.0021531
1719.48576,0.0022605
1718.52138,0.0023349
1717.55700,0.0023690
1716.59263,0.0023598
1715.62825,0.0022915
1714.66387,0.0021754
1713.69949,0.0020116
1712.73512,0.0018521
1711.77074,0.0017849
1710.80636,0.0018181
1709.84198,0.0018578
1708.87760,0.0019062
1707.91323,0.0019691
1706.94885,0.0019427
1705.98447,0.0019400
1705.02009,0.0020837
1704.05571,0.0022695
1703.09134,0.0023810
1702.12696,0.0023744
1701.16258,0.0024060
1700.19820,0.0025252
1699.23382,0.0026179
1698.26945,0.0026293
1697.30507,0.0025434
1696.34069,0.0023608
1695.37631,0.0021350
1694.41194,0.0020263
1693.44756,0.0020504
1692.48318,0.0020365
1691.51880,0.0019038
1690.55442,0.0017832
1689.59005,0.0019136
1688.62567,0.0021902
1687.66129,0.0024212
1686.69691,0.0025752
1685.73253,0.0026708
1684.76816,0.0027420
1683.80378,0.0027771
1682.83940,0.0027528
1681.87502,0.0026453
1680.91065,0.0025028
1679.94627,0.0024091
1678.98189,0.0024084
1678.01751,0.0025076
1677.05313,0.0026216
1676.08876,0.0027066
1675.12438,0.0027646
1674.16000,0.0028589
1673.19562,0.0029729
1672.23124,0.0030323
1671.26687,0.0030439
1670.30249,0.0030041
1669.33811,0.0029787
1668.37373,0.0030194
1667.40935,0.0030658
1666.44498,0.0030783
1665.48060,0.0030702
1664.51622,0.0030559
1663.55184,0.0030484
1662.58747,0.0030845
1661.62309,0.0031096
1660.65871,0.0030792
1659.69433,0.0030086
1658.72995,0.0029817
1657.76558,0.0031548
1656.80120,0.0034688
1655.83682,0.0037734
1654.87244,0.0039681
1653.90806,0.0040529
1652.94369,0.0040554
1651.97931,0.0039911
1651.01493,0.0039238
1650.05055,0.0038188
1649.08618,0.0036323
1648.12180,0.0034294
1647.15742,0.0033444
1646.19304,0.0034177
1645.22866,0.0034785
1644.26429,0.0034477
1643.29991,0.0033570
1642.33553,0.0032308
1641.37115,0.0031242
1640.40677,0.0031704
1639.44240,0.0033533
1638.47802,0.0035215
1637.51364,0.0036203
1636.54926,0.0036665
1635.58488,0.0036712
1634.62051,0.0036270
1633.65613,0.0035618
1632.69175,0.0034872
1631.72737,0.0033918
1630.76300,0.0032812
1629.79862,0.0032169
1628.83424,0.0032979
1627.86986,0.0034148
1626.90548,0.0034835
1625.94111,0.0035265
1624.97673,0.0035368
1624.01235,0.0035143
1623.04797,0.0034396
1622.08359,0.0034348
1621.11922,0.0035433
1620.15484,0.0036443
1619.19046,0.0037035
1618.22608,0.0037336
1617.26171,0.0037743
1616.29733,0.0037960
1615.33295,0.0037743
1614.36857,0.0037209
1613.40419,0.0036313
1612.43982,0.0035147
1611.47544,0.0034039
1610.51106,0.0034025
1609.54668,0.0034706
1608.58230,0.0035023
1607.61793,0.0035203
1606.65355,0.0035380
1605.68917,0.0035500
1604.72479,0.0035551
1603.76041,0.0035550
1602.79604,0.0035472
1601.83166,0.0035390
1600.86728,0.0035309
1599.90290,0.0035150
1598.93853,0.0034959
1597.97415,0.0034685
1597.00977,0.0034450
1596.04539,0.0034311
1595.08101,0.0034144
1594.11664,0.0033922
1593.15226,0.0033745
1592.18788,0.0033552
1591.22350,0.0033345
1590.25912,0.0033188
1589.29475,0.0032826
1588.33037,0.0032293
1587.36599,0.0031716
1586.40161,0.0031199
1585.43724,0.0030755
1584.47286,0.0030410
1583.50848,0.0030008
1582.54410,0.0029295
1581.57972,0.0029343
1580.61535,0.0030494
1579.65097,0.0031679
1578.68659,0.0032366
1577.72221,0.0032469
1576.75783,0.0032037
1575.79346,0.0031110
1574.82908,0.0030165
1573.86470,0.0029263
1572.90032,0.0028113
1571.93594,0.0026504
1570.97157,0.0024783
1570.00719,0.0024263
1569.04281,0.0024512
1568.07843,0.0024317
1567.11406,0.0023429
1566.14968,0.0022128
1565.18530,0.0021416
1564.22092,0.0021880
1563.25654,0.0024042
1562.29217,0.0027071
1561.32779,0.0029160
1560.36341,0.0030122
1559.39903,0.0030748
1558.43465,0.0031124
1557.47028,0.0030601
1556.50590,0.0028872
1555.54152,0.0026172
1554.57714,0.0023476
1553.61276,0.0021723
1552.64839,0.0020790
1551.68401,0.0020520
1550.71963,0.0020428
1549.75525,0.0020098
1548.79088,0.0019691
1547.82650,0.0019859
1546.86212,0.0020668
1545.89774,0.0021234
1544.93336,0.0022164
1543.96899,0.0024321
1543.00461,0.0026732
1542.04023,0.0028289
1541.07585,0.0028609
1540.11147,0.0027901
1539.14710,0.0026961
1538.18272,0.0026083
1537.21834,0.0024595
1536.25396,0.0022907
1535.28959,0.0021345
1534.32521,0.0019640
1533.36083,0.0018901
1532.39645,0.0019066
1531.43207,0.0019071
1530.46770,0.0019019
1529.50332,0.0018820
1528.53894,0.0018365
1527.57456,0.0018175
1526.61018,0.0018881
1525.64581,0.0020284
1524.68143,0.0021561
1523.71705,0.0021984
1522.75267,0.0021945
1521.78829,0.0022078
1520.82392,0.0021959
1519.85954,0.0021646
1518.89516,0.0021101
1517.93078,0.0020067
1516.96641,0.0018843
1516.00203,0.0017790
1515.03765,0.0017492
1514.07327,0.0017538
1513.10889,0.0017120
1512.14452,0.0016822
1511.18014,0.0017927
1510.21576,0.0020109
1509.25138,0.0021862
1508.28700,0.0022775
1507.32263,0.0022851
1506.35825,0.0022407
1505.39387,0.0021447
1504.42949,0.0019935
1503.46512,0.0018299
1502.50074,0.0016302
1501.53636,0.0014863
1500.57198,0.0014936
1499.60760,0.0016012
1498.64323,0.0017155
1497.67885,0.0017475
1496.71447,0.0017204
1495.75009,0.0016907
1494.78571,0.0016687
1493.82134,0.0016328
1492.85696,0.0016107
1491.89258,0.0016240
1490.92820,0.0016210
1489.96382,0.0016436
1488.99945,0.0016776
1488.03507,0.0016619
1487.07069,0.0016212
1486.10631,0.0015637
1485.14194,0.0015117
1484.17756,0.0014839
1483.21318,0.0014649
1482.24880,0.0014519
1481.28442,0.0014872
1480.32005,0.0015589
1479.35567,0.0016121
1478.39129,0.0016766
1477.42691,0.0017902
1476.46253,0.0019472
1475.49816,0.0020937
1474.53378,0.0022002
1473.56940,0.0022749
1472.60502,0.0023064
1471.64065,0.0022909
1470.67627,0.0022668
1469.71189,0.0022973
1468.74751,0.0023273
1467.78313,0.0023279
1466.81876,0.0023482
1465.85438,0.0023767
1464.89000,0.0024023
1463.92562,0.0023784
1462.96124,0.0023381
1461.99687,0.0024009
1461.03249,0.0025417
1460.06811,0.0026761
1459.10373,0.0027917
1458.13935,0.0029027
1457.17498,0.0029633
1456.21060,0.0029670
1455.24622,0.0029068
1454.28184,0.0027674
1453.31747,0.0026117
1452.35309,0.0024555
1451.38871,0.0023425
1450.42433,0.0023377
1449.45995,0.0023732
1448.49558,0.0023812
1447.53120,0.0023755
1446.56682,0.0023780
1445.60244,0.0023907
1444.63806,0.0024177
1443.67369,0.0024075
1442.70931,0.0023797
1441.74493,0.0024461
1440.78055,0.0025627
1439.81618,0.0026483
1438.85180,0.0027042
1437.88742,0.0027402
1436.92304,0.0027512
1435.95866,0.0027360
1434.99429,0.0027151
1434.02991,0.0026869
1433.06553,0.0026350
1432.10115,0.0025630
1431.13677,0.0025195
1430.17240,0.0025560
1429.20802,0.0026130
1428.24364,0.0026425
1427.27926,0.0026593
1426.31488,0.0026416
1425.35051,0.0026133
1424.38613,0.0026557
1423.42175,0.0027679
1422.45737,0.0028937
1421.49300,0.0029943
1420.52862,0.0030713
1419.56424,0.0031214
1418.59986,0.0031410
1417.63548,0.0031419
1416.67111,0.0031130
1415.70673,0.0030467
1414.74235,0.0029532
1413.77797,0.0028874
1412.81359,0.0028893
1411.84922,0.0029061
1410.88484,0.0029142
1409.92046,0.0029318
1408.95608,0.0029568
1407.99171,0.0029796
1407.02733,0.0029985
1406.06295,0.0030080
1405.09857,0.0030234
1404.13419,0.0030737
1403.16982,0.0031326
1402.20544,0.0031646
1401.24106,0.0031614
1400.27668,0.0031474
1399.31230,0.0031573
1398.34793,0.0031820
1397.38355,0.0031996
1396.41917,0.0031976
1395.45479,0.0031839
1394.49041,0.0031509
1393.52604,0.0031133
1392.56166,0.0031178
1391.59728,0.0031365
1390.63290,0.0031336
1389.66853,0.0031065
1388.70415,0.0030813
1387.73977,0.0030751
1386.77539,0.0030553
1385.81101,0.0030262
1384.84664,0.0029978
1383.88226,0.0029660
1382.91788,0.0029302
1381.95350,0.0028965
1380.98912,0.0028902
1380.02475,0.0029007
1379.06037,0.0029133
1378.09599,0.0029240
1377.13161,0.0029227
1376.16724,0.0029150
1375.20286,0.0029013
1374.23848,0.0028850
1373.27410,0.0028713
1372.30972,0.0028533
1371.34535,0.0028293
1370.38097,0.0027929
1369.41659,0.0027404
1368.45221,0.0027067
1367.48783,0.0027056
1366.52346,0.0027094
1365.55908,0.0027112
1364.59470,0.0027060
1363.63032,0.0026935
1362.66594,0.0026801
1361.70157,0.0026541
1360.73719,0.0026131
1359.77281,0.0025634
1358.80843,0.0025062
1357.84406,0.0024551
1356.87968,0.0024374
1355.91530,0.0024359
1354.95092,0.0024213
1353.98654,0.0024102
1353.02217,0.0024035
1352.05779,0.0024007
1351.09341,0.0024063
1350.12903,0.0024007
1349.16465,0.0023866
1348.20028,0.0023731
1347.23590,0.0023559
1346.27152,0.0023385
1345.30714,0.0023237
1344.34276,0.0023029
1343.37839,0.0022750
1342.41401,0.0022651
1341.44963,0.0022740
1340.48525,0.0022746
1339.52088,0.0022712
1338.55650,0.0022697
1337.59212,0.0022596
1336.62774,0.0022423
1335.66336,0.0022140
1334.69899,0.0021765
1333.73461,0.0021435
1332.77023,0.0021156
1331.80585,0.0020955
1330.84147,0.0020959
1329.87710,0.0021073
1328.91272,0.0021105
1327.94834,0.0021097
1326.98396,0.0021052
1326.01959,0.0020971
1325.05521,0.0020900
1324.09083,0.0020801
1323.12645,0.0020721
1322.16207,0.0020655
1321.19770,0.0020606
1320.23332,0.0020626
1319.26894,0.0020747
1318.30456,0.0020962
1317.34018,0.0021113
1316.37581,0.0021144
1315.41143,0.0021078
1314.44705,0.0020939
1313.48267,0.0020829
1312.51829,0.0020810
1311.55392,0.0020862
1310.58954,0.0020955
1309.62516,0.0021047
1308.66078,0.0021029
1307.69641,0.0020949
1306.73203,0.0020833
1305.76765,0.0020651
1304.80327,0.0020527
1303.83889,0.0020348
1302.87452,0.0020091
1301.91014,0.0019972
1300.94576,0.0019945
1299.98138,0.0019926
1299.01700,0.0019925
1298.05263,0.0019891
1297.08825,0.0019754
1296.12387,0.0019525
1295.15949,0.0019325
1294.19512,0.0019275
1293.23074,0.0019322
1292.26636,0.0019400
1291.30198,0.0019542
1290.33760,0.0019643
1289.37323,0.0019636
1288.40885,0.0019595
1287.44447,0.0019610
1286.48009,0.0019719
1285.51571,0.0019777
1284.55134,0.0019752
1283.58696,0.0019789
1282.62258,0.0019822
1281.65820,0.0019777
1280.69382,0.0019813
1279.72945,0.0019914
1278.76507,0.0019939
1277.80069,0.0019965
1276.83631,0.0020061
1275.87194,0.0020200
1274.90756,0.0020361
1273.94318,0.0020489
1272.97880,0.0020569
1272.01442,0.0020713
1271.05005,0.0020896
1270.08567,0.0020992
1269.12129,0.0021136
1268.15691,0.0021363
1267.19253,0.0021529
1266.22816,0.0021652
1265.26378,0.0021761
1264.29940,0.0021784
1263.33502,0.0021698
1262.37065,0.0021603
1261.40627,0.0021558
1260.44189,0.0021546
1259.47751,0.0021411
1258.51313,0.0021160
1257.54876,0.0021041
1256.58438,0.0020948
1255.62000,0.0020841
1254.65562,0.0020869
1253.69124,0.0020930
1252.72687,0.0020943
1251.76249,0.0020985
1250.79811,0.0021182
1249.83373,0.0021419
1248.86935,0.0021540
1247.90498,0.0021639
1246.94060,0.0021863
1245.97622,0.0022210
1245.01184,0.0022464
1244.04747,0.0022624
1243.08309,0.0022771
1242.11871,0.0022824
1241.15433,0.0022822
1240.18995,0.0022819
1239.22558,0.0022795
1238.26120,0.0022751
1237.29682,0.0022719
1236.33244,0.0022682
1235.36806,0.0022683
1234.40369,0.0022796
1233.43931,0.0022895
1232.47493,0.0022943
1231.51055,0.0023052
1230.54618,0.0023241
1229.58180,0.0023446
1228.61742,0.0023609
1227.65304,0.0023785
1226.68866,0.0024021
1225.72429,0.0024204
1224.75991,0.0024227
1223.79553,0.0024221
1222.83115,0.0024294
1221.86677,0.0024463
1220.90240,0.0024744
1219.93802,0.0025030
1218.97364,0.0025262
1218.00926,0.0025422
1217.04488,0.0025534
1216.08051,0.0025629
1215.11613,0.0025694
1214.15175,0.0025693
1213.18737,0.0025550
1212.22300,0.0025388
1211.25862,0.0025347
1210.29424,0.0025403
1209.32986,0.0025497
1208.36548,0.0025566
1207.40111,0.0025631
1206.43673,0.0025749
1205.47235,0.0025946
1204.50797,0.0026095
1203.54359,0.0026202
1202.57922,0.0026431
1201.61484,0.0026710
1200.65046,0.0027002
1199.68608,0.0027239
1198.72171,0.0027339
1197.75733,0.0027476
1196.79295,0.0027674
1195.82857,0.0027808
1194.86419,0.0028023
1193.89982,0.0028408
1192.93544,0.0028699
1191.97106,0.0028833
1191.00668,0.0028964
1190.04230,0.0029136
1189.07793,0.0029296
1188.11355,0.0029366
1187.14917,0.0029458
1186.18479,0.0029674
1185.22041,0.0029900
1184.25604,0.0030061
1183.29166,0.0030354
1182.32728,0.0030895
1181.36290,0.0031393
1180.39853,0.0031630
1179.43415,0.0031644
1178.46977,0.0031639
1177.50539,0.0031705
1176.54101,0.0031725
1175.57664,0.0031668
1174.61226,0.0031560
1173.64788,0.0031542
1172.68350,0.0031586
1171.71912,0.0031625
1170.75475,0.0031843
1169.79037,0.0032126
1168.82599,0.0032250
1167.86161,0.0032289
1166.89724,0.0032431
1165.93286,0.0032694
1164.96848,0.0032950
1164.00410,0.0033156
1163.03972,0.0033370
1162.07535,0.0033662
1161.11097,0.0033882
1160.14659,0.0033951
1159.18221,0.0033979
1158.21783,0.0033919
1157.25346,0.0033733
1156.28908,0.0033513
1155.32470,0.0033436
1154.36032,0.0033574
1153.39594,0.0033777
1152.43157,0.0033898
1151.46719,0.0033951
1150.50281,0.0034013
1149.53843,0.0034163
1148.57406,0.0034417
1147.60968,0.0034599
1146.64530,0.0034689
1145.68092,0.0034781
1144.71654,0.0034924
1143.75217,0.0035270
1142.78779,0.0035629
1141.82341,0.0035738
1140.85903,0.0035745
1139.89465,0.0035739
1138.93028,0.0035650
1137.96590,0.0035532
1137.00152,0.0035400
1136.03714,0.0035310
1135.07276,0.0035335
1134.10839,0.0035349
1133.14401,0.0035392
1132.17963,0.0035436
1131.21525,0.0035467
1130.25088,0.0035729
1129.28650,0.0036089
1128.32212,0.0036417
1127.35774,0.0036771
1126.39336,0.0037039
1125.42899,0.0037253
1124.46461,0.0037548
1123.50023,0.0037733
1122.53585,0.0037660
1121.57147,0.0037597
1120.60710,0.0037590
1119.64272,0.0037692
1118.67834,0.0037928
1117.71396,0.0038012
1116.74959,0.0038108
1115.78521,0.0038336
1114.82083,0.0038493
1113.85645,0.0038648
1112.89207,0.0038904
1111.92770,0.0039244
1110.96332,0.0039650
1109.99894,0.0040033
1109.03456,0.0040407
1108.07018,0.0040840
1107.10581,0.0041117
1106.14143,0.0041249
1105.17705,0.0041407
1104.21267,0.0041556
1103.24829,0.0041609
1102.28392,0.0041475
1101.31954,0.0041438
1100.35516,0.0041629
1099.39078,0.0041841
1098.42641,0.0042027
1097.46203,0.0042270
1096.49765,0.0042587
1095.53327,0.0042761
1094.56889,0.0042918
1093.60452,0.0043102
1092.64014,0.0043098
1091.67576,0.0042932
1090.71138,0.0042618
1089.74700,0.0042389
1088.78263,0.0042296
1087.81825,0.0042260
1086.85387,0.0042345
1085.88949,0.0042498
1084.92512,0.0042731
1083.96074,0.0042967
1082.99636,0.0043268
1082.03198,0.0043581
1081.06760,0.0043766
1080.10323,0.0043930
1079.13885,0.0043992
1078.17447,0.0043967
1077.21009,0.0043960
1076.24571,0.0043969
1075.28134,0.0044049
1074.31696,0.0044193
1073.35258,0.0044232
1072.38820,0.0044156
1071.42382,0.0044264
1070.45945,0.0044462
1069.49507,0.0044494
1068.53069,0.0044454
1067.56631,0.0044445
1066.60194,0.0044551
1065.63756,0.0044711
1064.67318,0.0044746
1063.70880,0.0044618
1062.74442,0.0044410
1061.78005,0.0044151
1060.81567,0.0043824
1059.85129,0.0043611
1058.88691,0.0043486
1057.92253,0.0043174
1056.95816,0.0042836
1055.99378,0.0042526
1055.02940,0.0042111
1054.06502,0.0041701
1053.10065,0.0041115
1052.13627,0.0040410
1051.17189,0.0039876
1050.20751,0.0039282
1049.24313,0.0038550
1048.27876,0.0037847
1047.31438,0.0037134
1046.35000,0.0036392
1045.38562,0.0035762
1044.42124,0.0035132
1043.45687,0.0034407
1042.49249,0.0033764
1041.52811,0.0033151
1040.56373,0.0032652
1039.59935,0.0032213
1038.63498,0.0031663
1037.67060,0.0031226
1036.70622,0.0030728
1035.74184,0.0030128
1034.77747,0.0029720
1033.81309,0.0029476
1032.84871,0.0029246
1031.88433,0.0028885
1030.91995,0.0028590
1029.95558,0.0028459
1028.99120,0.0028273
1028.02682,0.0028015
1027.06244,0.0027684
1026.09806,0.0027258
1025.13369,0.0026672
1024.16931,0.0025950
1023.20493,0.0025265
1022.24055,0.0024680
1021.27618,0.0024171
1020.31180,0.0023674
1019.34742,0.0023276
1018.38304,0.0023060
1017.41866,0.0022920
1016.45429,0.0022788
1015.48991,0.0022688
1014.52553,0.0022671
1013.56115,0.0022661
1012.59677,0.0022582
1011.63240,0.0022417
1010.66802,0.0022199
1009.70364,0.0022021
1008.73926,0.0021724
1007.77488,0.0021190
1006.81051,0.0020519
1005.84613,0.0019774
1004.88175,0.0019160
1003.91737,0.0018993
1002.95300,0.0019077
1001.98862,0.0018969
1001.02424,0.0018911
1000.05986,0.0018995
999.09548,0.0018963
998.13111,0.0018897
997.16673,0.0018698
996.20235,0.0018359
995.23797,0.0018076
994.27359,0.0017996
993.30922,0.0018271
992.34484,0.0018760
991.38046,0.0019089
990.41608,0.0019106
989.45171,0.0019132
988.48733,0.0019050
987.52295,0.0018635
986.55857,0.0018295
985.59419,0.0018198
984.62982,0.0018435
983.66544,0.0018897
982.70106,0.0019271
981.73668,0.0019570
980.77230,0.0019841
979.80793,0.0020107
978.84355,0.0020330
977.87917,0.0020465
976.91479,0.0020342
975.95041,0.0020090
974.98604,0.0019986
974.02166,0.0019893
973.05728,0.0019847
972.09290,0.0019761
971.12853,0.0019485
970.16415,0.0019246
969.19977,0.0019262
968.23539,0.0019462
967.27101,0.0019816
966.30664,0.0020308
965.34226,0.0020553
964.37788,0.0020676
963.41350,0.0020742
962.44912,0.0020561
961.48475,0.0020403
960.52037,0.0020023
959.55599,0.0019373
958.59161,0.0018855
957.62724,0.0018433
956.66286,0.0018035
955.69848,0.0017862
954.73410,0.0017899
953.76972,0.0017804
952.80535,0.0017685
951.84097,0.0017575
950.87659,0.0017505
949.91221,0.0017566
948.94783,0.0017448
947.98346,0.0017347
947.01908,0.0017439
946.05470,0.0017562
945.09032,0.0017608
944.12594,0.0017677
943.16157,0.0018024
942.19719,0.0018312
941.23281,0.0018317
940.26843,0.0018198
939.30406,0.0018085
938.33968,0.0017951
937.37530,0.0017808
936.41092,0.0017911
935.44654,0.0018049
934.48217,0.0018030
933.51779,0.0017949
932.55341,0.0017927
931.58903,0.0018106
930.62465,0.0018231
929.66028,0.0018074
928.69590,0.0017817
927.73152,0.0017788
926.76714,0.0017806
925.80276,0.0017594
924.83839,0.0017337
923.87401,0.0017059
922.90963,0.0016882
921.94525,0.0016856
920.98088,0.0016741
920.01650,0.0016546
919.05212,0.0016384
918.08774,0.0016164
917.12336,0.0015812
916.15899,0.0015491
915.19461,0.0015158
914.23023,0.0014731
913.26585,0.0014438
912.30147,0.0014319
911.33710,0.0014234
910.37272,0.0014265
909.40834,0.0014409
908.44396,0.0014506
907.47959,0.0014677
906.51521,0.0014810
905.55083,0.0014686
904.58645,0.0014381
903.62207,0.0014054
902.65770,0.0014036
901.69332,0.0014108
900.72894,0.0013802
899.76456,0.0013230
898.80018,0.0012712
897.83581,0.0012383
896.87143,0.0012204
895.90705,0.0012302
894.94267,0.0012569
893.97829,0.0012519
893.01392,0.0012018
892.04954,0.0011775
891.08516,0.0012258
890.12078,0.0012679
889.15641,0.0012645
888.19203,0.0012526
887.22765,0.0012536
886.26327,0.0012744
885.29889,0.0013020
884.33452,0.0013335
883.37014,0.0013513
882.40576,0.0013263
881.44138,0.0012816
880.47700,0.0012608
879.51263,0.0012523
878.54825,0.0012339
877.58387,0.0012314
876.61949,0.0012535
875.65512,0.0012821
874.69074,0.0012790
873.72636,0.0012397
872.76198,0.0012073
871.79760,0.0011732
870.83323,0.0011259
869.86885,0.0010725
868.90447,0.0010246
867.94009,0.0010025
866.97571,0.0010078
866.01134,0.0010333
865.04696,0.0010476
864.08258,0.0010334
863.11820,0.0009881
862.15382,0.0009430
861.18945,0.0009396
860.22507,0.0009522
859.26069,0.0009576
858.29631,0.0009459
857.33194,0.0009367
856.36756,0.0009455
855.40318,0.0009550
854.43880,0.0009740
853.47442,0.0009774
852.51005,0.0009750
851.54567,0.0009906
850.58129,0.0010058
849.61691,0.0010324
848.65253,0.0010493
847.68816,0.0010263
846.72378,0.0009785
845.75940,0.0009624
844.79502,0.0009827
843.83065,0.0009834
842.86627,0.0009670
841.90189,0.0009519
840.93751,0.0009516
839.97313,0.0009441
839.00876,0.0009190
838.04438,0.0009097
837.08000,0.0008898
836.11562,0.0008581
835.15124,0.0008558
834.18687,0.0008940
833.22249,0.0009376
832.25811,0.0009640
831.29373,0.0010076
830.32935,0.0010592
829.36498,0.0010861
828.40060,0.0010872
827.43622,0.0010958
826.47184,0.0011168
825.50747,0.0011144
824.54309,0.0011067
823.57871,0.0010971
822.61433,0.0010503
821.64995,0.0009819
820.68558,0.0009583
819.72120,0.0009754
818.75682,0.0009715
817.79244,0.0009586
816.82806,0.0009536
815.86369,0.0009518
814.89931,0.0009631
813.93493,0.0009777
812.97055,0.0009704
812.00618,0.0009350
811.04180,0.0008857
810.07742,0.0008479
809.11304,0.0008393
808.14866,0.0008346
807.18429,0.0008406
806.21991,0.0008717
805.25553,0.0008942
804.29115,0.0008984
803.32677,0.0009031
802.36240,0.0009056
801.39802,0.0008918
800.43364,0.0009017
799.46926,0.0009179
798.50488,0.0008921
797.54051,0.0008674
796.57613,0.0008448
795.61175,0.0008201
794.64737,0.0008122
793.68300,0.0008138
792.71862,0.0008366
791.75424,0.0008839
790.78986,0.0009354
789.82548,0.0009806
788.86111,0.0010134
787.89673,0.0010014
786.93235,0.0009872
785.96797,0.0010183
785.00359,0.0010214
784.03922,0.0009765
783.07484,0.0009389
782.11046,0.0009394
781.14608,0.0009562
780.18171,0.0009513
779.21733,0.0009265
778.25295,0.0008828
777.28857,0.0008124
776.32419,0.0007374
775.35982,0.0007004
774.39544,0.0006876
773.43106,0.0006623
772.46668,0.0006148
771.50230,0.0005628
770.53793,0.0005542
769.57355,0.0005680
768.60917,0.0005840
767.64479,0.0006173
766.68041,0.0006553
765.71604,0.0007198
764.75166,0.0007876
763.78728,0.0008205
762.82290,0.0008613
761.85853,0.0009006
760.89415,0.0008855
759.92977,0.0008251
758.96539,0.0007613
758.00101,0.0007063
757.03664,0.0006373
756.07226,0.0005693
755.10788,0.0005637
754.14350,0.0006243
753.17912,0.0006690
752.21475,0.0007002
751.25037,0.0007920
750.28599,0.0008863
749.32161,0.0009427
748.35724,0.0009771
747.39286,0.0009817
746.42848,0.0009988
745.46410,0.0009831
744.49972,0.0009236
743.53535,0.0008984
742.57097,0.0008850
741.60659,0.0008617
740.64221,0.0008450
739.67783,0.0008328
738.71346,0.0007735
737.74908,0.0006811
736.78470,0.0006218
735.82032,0.0005985
734.85594,0.0006370
733.89157,0.0006874
732.92719,0.0006983
731.96281,0.0007348
730.99843,0.0008116
730.03406,0.0008921
729.06968,0.0009545
728.10530,0.0009991
727.14092,0.0010056
726.17654,0.0009936
725.21217,0.0010085
724.24779,0.0010160
723.28341,0.0010321
722.31903,0.0010698
721.35465,0.0010737
720.39028,0.0010766
719.42590,0.0011047
718.46152,0.0011136
717.49714,0.0011100
716.53276,0.0011152
715.56839,0.0011073
714.60401,0.0010768
713.63963,0.0010315
712.67525,0.0009837
711.71088,0.0009611
710.74650,0.0009572
709.78212,0.0009608
708.81774,0.0009836
707.85336,0.0010053
706.88899,0.0010230
705.92461,0.0010510
704.96023,0.0010832
703.99585,0.0011221
703.03147,0.0011635
702.06710,0.0012035
701.10272,0.0012570
700.13834,0.0013056
699.17396,0.0013229
698.20959,0.0013256
697.24521,0.0012983
696.28083,0.0012480
695.31645,0.0012212
694.35207,0.0012052
693.38770,0.0011881
692.42332,0.0011924
691.45894,0.0012350
690.49456,0.0012865
689.53018,0.0013315
688.56581,0.0013814
687.60143,0.0014409
686.63705,0.0015249
685.67267,0.0015952
684.70829,0.0016315
683.74392,0.0016405
682.77954,0.0016500
681.81516,0.0016698
680.85078,0.0016600
679.88641,0.0016379
678.92203,0.0015880
677.95765,0.0015449
676.99327,0.0015228
676.02889,0.0014884
675.06452,0.0013275
674.10014,0.0009606
673.13576,0.0011515
672.17138,0.0021160
671.20700,0.0031127
670.24263,0.0038300
669.27825,0.0042304
668.31387,0.0043665
667.34949,0.0042682
666.38512,0.0039347
665.42074,0.0033724
664.45636,0.0025455
663.49198,0.0015325
662.52760,0.0007058
661.56323,0.0007265
660.59885,0.0011965
659.63447,0.0013943
658.67009,0.0014508
657.70571,0.0014748
656.74134,0.0015065
655.77696,0.0015156
654.81258,0.0014699
653.84820,0.0014503
652.88382,0.0014310
651.91945,0.0014253
650.95507,0.0014237
649.99069,0.0014270
649.02631,0.0014492
648.06194,0.0014651
647.09756,0.0014773
646.13318,0.0014775
645.16880,0.0014662
644.20442,0.0013875
643.24005,0.0012641
642.27567,0.0011788
641.31129,0.0011341
640.34691,0.0011256
639.38253,0.0011562
638.41816,0.0012188
637.45378,0.0012551
636.48940,0.0012534
635.52502,0.0012740
634.56065,0.0013340
633.59627,0.0013613
632.63189,0.0013202
631.66751,0.0013009
630.70313,0.0012401
629.73876,0.0010581
628.77438,0.0009524
627.81000,0.0010556
626.84562,0.0007569
625.88124,0.0000950
624.91687,0.0000350
623.95249,0.0004315
622.98811,0.0009451
622.02373,0.0018148
621.05935,0.0025922
620.09498,0.0026715
619.13060,0.0023518
618.16622,0.0017976
617.20184,0.0011500
616.23747,0.0006817
615.27309,-0.0002104
614.30871,-0.0006607
613.34433,-0.0002042
612.37995,-0.0002207
611.41558,-0.0005842
610.45120,-0.0005269
609.48682,-0.0008189
608.52244,-0.0017515
607.55806,-0.0022912
606.59369,-0.0025167
605.62931,-0.0025639
604.66493,-0.0021398
603.70055,-0.0015021
602.73618,-0.0004844
601.77180,0.0002444
600.80742,0.0002626
599.84304,0.0003583
598.87866,0.0007528
597.91429,0.0009269
596.94991,0.0009248
595.98553,0.0011486
595.02115,0.0013175
594.05677,0.0013191
593.09240,0.0012294
592.12802,0.0010770
591.16364,0.0009306
590.19926,0.0007442
589.23488,0.0006282
588.27051,0.0006661
587.30613,0.0007273
586.34175,0.0006869
585.37737,0.0007060
584.41300,0.0008982
583.44862,0.0010686
582.48424,0.0011480
581.51986,0.0011446
580.55548,0.0011308
579.59111,0.0011915
578.62673,0.0012398
577.66235,0.0012338
576.69797,0.0011818
575.73359,0.0010719
574.76922,0.0009854
573.80484,0.0010798
572.84046,0.0012409
571.87608,0.0012497
570.91171,0.0011790
569.94733,0.0011782
568.98295,0.0012807
568.01857,0.0013931
567.05419,0.0015033
566.08982,0.0016431
565.12544,0.0017203
564.16106,0.0017245
563.19668,0.0017104
562.23230,0.0016919
561.26793,0.0016414
560.30355,0.0015217
559.33917,0.0013465
558.37479,0.0012203
557.41041,0.0011475
556.44604,0.0010116
555.48166,0.0008883
554.51728,0.0007958
553.55290,0.0007170
552.58853,0.0007513
551.62415,0.0007761
550.65977,0.0007631
549.69539,0.0008473
548.73101,0.0009419
547.76664,0.0009427
546.80226,0.0008972
545.83788,0.0008385
544.87350,0.0007365
543.90912,0.0006500
542.94475,0.0006162
541.98037,0.0006235
541.01599,0.0007047
540.05161,0.0007630
539.08724,0.0008183
538.12286,0.0009585
537.15848,0.0010185
536.19410,0.0009211
535.22972,0.0007806
534.26535,0.0007164
533.30097,0.0007521
532.33659,0.0008210
531.37221,0.0008661
530.40783,0.0008925
529.44346,0.0009934
528.47908,0.0011617
527.51470,0.0013039
526.55032,0.0013252
525.58594,0.0011915
524.62157,0.0010474
523.65719,0.0009856
522.69281,0.0010149
521.72843,0.0010870
520.76406,0.0011198
519.79968,0.0011745
518.83530,0.0012800
517.87092,0.0013651
516.90654,0.0013843
515.94217,0.0013364
514.97779,0.0012701
514.01341,0.0012344
513.04903,0.0012202
512.08465,0.0011997
511.12028,0.0012128
510.15590,0.0012657
509.19152,0.0013020
508.22714,0.0013045
507.26276,0.0012335
506.29839,0.0010968
505.33401,0.0009872
504.36963,0.0009302
503.40525,0.0009026
502.44088,0.0008195
501.47650,0.0006405
500.51212,0.0004755
499.54774,0.0003926
498.58336,0.0004002
497.61899,0.0004214
496.65461,0.0003664
495.69023,0.0003046
494.72585,0.0003487
493.76147,0.0005186
492.79710,0.0006997
491.83272,0.0008428
490.86834,0.0009416
489.90396,0.0009733
488.93959,0.0010352
487.97521,0.0011511
487.01083,0.0012755
486.04645,0.0013399
485.08207,0.0013118
484.11770,0.0012730
483.15332,0.0012434
482.18894,0.0012003
481.22456,0.0011173
480.26018,0.0010312
479.29581,0.0009582
478.33143,0.0008951
477.36705,0.0009581
476.40267,0.0011437
475.43829,0.0013478
474.47392,0.0014924
473.50954,0.0015997
472.54516,0.0016919
471.58078,0.0016543
470.61641,0.0015652
469.65203,0.0015471
468.68765,0.0015684
467.72327,0.0015956
466.75889,0.0015889
465.79452,0.0016076
464.83014,0.0016575
463.86576,0.0016703
462.90138,0.0016584
461.93700,0.0016558
460.97263,0.0016866
460.00825,0.0016948
459.04387,0.0017357
458.07949,0.0018464
457.11512,0.0019012
456.15074,0.0019096
455.18636,0.0018706
454.22198,0.0018104
453.25760,0.0017527
452.29323,0.0016327
451.32885,0.0015430
450.36447,0.0015272
449.40009,0.0015603
448.43571,0.0016248
447.47134,0.0017058
446.50696,0.0017728
445.54258,0.0017634
444.57820,0.0017954
443.61382,0.0018469
442.64945,0.0017891
441.68507,0.0016472
440.72069,0.0014491
439.75631,0.0013314
438.79194,0.0012983
437.82756,0.0012597
436.86318,0.0012917
435.89880,0.0013943
434.93442,0.0015072
433.97005,0.0016324
433.00567,0.0017934
432.04129,0.0018923
431.07691,0.0018510
430.11253,0.0017600
429.14816,0.0016429
428.18378,0.0015278
427.21940,0.0014329
426.25502,0.0013084
425.29065,0.0012110
424.32627,0.0011842
423.36189,0.0012329
422.39751,0.0013271
421.43313,0.0013745
420.46876,0.0013722
419.50438,0.0013870
418.54000,0.0014303
417.57562,0.0014103
416.61124,0.0013254
415.64687,0.0012383
414.68249,0.0011147
413.71811,0.0009997
412.75373,0.0009294
411.78935,0.0008992
410.82498,0.0009146
409.86060,0.0009434
408.89622,0.0010187
407.93184,0.0011646
406.96747,0.0013385
406.00309,0.0014093
405.03871,0.0013517
404.07433,0.0013517
403.10995,0.0013517
402.14558,0.0013517
401.18120,0.0013517
400.21682,0.0013517
399.25244,0.0013517
