3998.31069,0.0372450
3997.34631,0.0372450
3996.38194,0.0372450
3995.41756,0.0372450
3994.45318,0.0372450
3993.48880,0.0372450
3992.52442,0.0372450
3991.56005,0.0372353
3990.59567,0.0372629
3989.63129,0.0372667
3988.66691,0.0372508
3987.70253,0.0372428
3986.73816,0.0372848
3985.77378,0.0373449
3984.80940,0.0374121
3983.84502,0.0375219
3982.88065,0.0376136
3981.91627,0.0375991
3980.95189,0.0375269
3979.98751,0.0374714
3979.02313,0.0373525
3978.05876,0.0371927
3977.09438,0.0371108
3976.13000,0.0371001
3975.16562,0.0371406
3974.20124,0.0371657
3973.23687,0.0371956
3972.27249,0.0373066
3971.30811,0.0373973
3970.34373,0.0374205
3969.37935,0.0374152
3968.41498,0.0373604
3967.45060,0.0372517
3966.48622,0.0371789
3965.52184,0.0371817
3964.55747,0.0371710
3963.59309,0.0371180
3962.62871,0.0370633
3961.66433,0.0370452
3960.69995,0.0370244
3959.73558,0.0369371
3958.77120,0.0368141
3957.80682,0.0366998
3956.84244,0.0366302
3955.87806,0.0365915
3954.91369,0.0365818
3953.94931,0.0366155
3952.98493,0.0366426
3952.02055,0.0366726
3951.05618,0.0367094
3950.09180,0.0367187
3949.12742,0.0366971
3948.16304,0.0366593
3947.19866,0.0366339
3946.23429,0.0366431
3945.26991,0.0366851
3944.30553,0.0366936
3943.34115,0.0366740
3942.37677,0.0366698
3941.41240,0.0366496
3940.44802,0.0366211
3939.48364,0.0365747
3938.51926,0.0365395
3937.55488,0.0365556
3936.59051,0.0365841
3935.62613,0.0366477
3934.66175,0.0367242
3933.69737,0.0367508
3932.73300,0.0367235
3931.76862,0.0366833
3930.80424,0.0367042
3929.83986,0.0367272
3928.87548,0.0366783
3927.91111,0.0366020
3926.94673,0.0365461
3925.98235,0.0365383
3925.01797,0.0365452
3924.05359,0.0365499
3923.08922,0.0365698
3922.12484,0.0365734
3921.16046,0.0365481
3920.19608,0.0365558
3919.23171,0.0366486
3918.26733,0.0367078
3917.30295,0.0366685
3916.33857,0.0366294
3915.37419,0.0365935
3914.40982,0.0365511
3913.44544,0.0364925
3912.48106,0.0364396
3911.51668,0.0364398
3910.55230,0.0364003
3909.58793,0.0363377
3908.62355,0.0363559
3907.65917,0.0364377
3906.69479,0.0364977
3905.73041,0.0364887
3904.76604,0.0364701
3903.80166,0.0364675
3902.83728,0.0364910
3901.87290,0.0365172
3900.90853,0.0365051
3899.94415,0.0364795
3898.97977,0.0363994
3898.01539,0.0363045
3897.05101,0.0362799
3896.08664,0.0362932
3895.12226,0.0362746
3894.15788,0.0362087
3893.19350,0.0361758
3892.22912,0.0361764
3891.26475,0.0361920
3890.30037,0.0362040
3889.33599,0.0361757
3888.37161,0.0361716
3887.40724,0.0361304
3886.44286,0.0360243
3885.47848,0.0359614
3884.51410,0.0359206
3883.54972,0.0358607
3882.58535,0.0357856
3881.62097,0.0357152
3880.65659,0.0356472
3879.69221,0.0355902
3878.72783,0.0355820
3877.76346,0.0356262
3876.79908,0.0357089
3875.83470,0.0357398
3874.87032,0.0357306
3873.90594,0.0357468
3872.94157,0.0357558
3871.97719,0.0357947
3871.01281,0.0358603
3870.04843,0.0359136
3869.08406,0.0359640
3868.11968,0.0360128
3867.15530,0.0360585
3866.19092,0.0360558
3865.22654,0.0359861
3864.26217,0.0358493
3863.29779,0.0357001
3862.33341,0.0356144
3861.36903,0.0355600
3860.40465,0.0355649
3859.44028,0.0356526
3858.47590,0.0357443
3857.51152,0.0358044
3856.54714,0.0357898
3855.58276,0.0356893
3854.61839,0.0355425
3853.65401,0.0353883
3852.68963,0.0352529
3851.72525,0.0351508
3850.76088,0.0351144
3849.79650,0.0351208
3848.83212,0.0351561
3847.86774,0.0352226
3846.90336,0.0352370
3845.93899,0.0352044
3844.97461,0.0351480
3844.01023,0.0350781
3843.04585,0.0350606
3842.08147,0.0350862
3841.11710,0.0351648
3840.15272,0.0352708
3839.18834,0.0353505
3838.22396,0.0354248
3837.25959,0.0354403
3836.29521,0.0353725
3835.33083,0.0352702
3834.36645,0.0351957
3833.40207,0.0351271
3832.43770,0.0350245
3831.47332,0.0349711
3830.50894,0.0349213
3829.54456,0.0348630
3828.58018,0.0348425
3827.61581,0.0348207
3826.65143,0.0348385
3825.68705,0.0348627
3824.72267,0.0348547
3823.75829,0.0348401
3822.79392,0.0348128
3821.82954,0.0347560
3820.86516,0.0346872
3819.90078,0.0346859
3818.93641,0.0346966
3817.97203,0.0346724
3817.00765,0.0346609
3816.04327,0.0346628
3815.07889,0.0346927
3814.11452,0.0347020
3813.15014,0.0346707
3812.18576,0.0346293
3811.22138,0.0345795
3810.25700,0.0345512
3809.29263,0.0345872
3808.32825,0.0347032
3807.36387,0.0348175
3806.39949,0.0348966
3805.43512,0.0349561
3804.47074,0.0349782
3803.50636,0.0349922
3802.54198,0.0349975
3801.57760,0.0349859
3800.61323,0.0349316
3799.64885,0.0348075
3798.68447,0.0346932
3797.72009,0.0345998
3796.75571,0.0344819
3795.79134,0.0343876
3794.82696,0.0343603
3793.86258,0.0343132
3792.89820,0.0341843
3791.93382,0.0341002
3790.96945,0.0340802
3790.00507,0.0340339
3789.04069,0.0340005
3788.07631,0.0339690
3787.11194,0.0339296
3786.14756,0.0339063
3785.18318,0.0339106
3784.21880,0.0339692
3783.25442,0.0340202
3782.29005,0.0340157
3781.32567,0.0339385
3780.36129,0.0338479
3779.39691,0.0338028
3778.43253,0.0337909
3777.46816,0.0338479
3776.50378,0.0338834
3775.53940,0.0339040
3774.57502,0.0339789
3773.61065,0.0340238
3772.64627,0.0340386
3771.68189,0.0340389
3770.71751,0.0340204
3769.75313,0.0339189
3768.78876,0.0337460
3767.82438,0.0336278
3766.86000,0.0335810
3765.89562,0.0336045
3764.93124,0.0336457
3763.96687,0.0336817
3763.00249,0.0337049
3762.03811,0.0337051
3761.07373,0.0337412
3760.10935,0.0338029
3759.14498,0.0338319
3758.18060,0.0337880
3757.21622,0.0337562
3756.25184,0.0337583
3755.28747,0.0337706
3754.32309,0.0338013
3753.35871,0.0337517
3752.39433,0.0336387
3751.42995,0.0335070
3750.46558,0.0334461
3749.50120,0.0335263
3748.53682,0.0336091
3747.57244,0.0336496
3746.60806,0.0336936
3745.64369,0.0337911
3744.67931,0.0338781
3743.71493,0.0339390
3742.75055,0.0339872
3741.78618,0.0339395
3740.82180,0.0338294
3739.85742,0.0337148
3738.89304,0.0336879
3737.92866,0.0337450
3736.96429,0.0337994
3735.99991,0.0338451
3735.03553,0.0337871
3734.07115,0.0336698
3733.10677,0.0335619
3732.14240,0.0334226
3731.17802,0.0333211
3730.21364,0.0332765
3729.24926,0.0331922
3728.28488,0.0331023
3727.32051,0.0331049
3726.35613,0.0331758
3725.39175,0.0332692
3724.42737,0.0332770
3723.46300,0.0332092
3722.49862,0.0332025
3721.53424,0.0331888
3720.56986,0.0331346
3719.60548,0.0331329
3718.64111,0.0331446
3717.67673,0.0331234
3716.71235,0.0331353
3715.74797,0.0332009
3714.78359,0.0332717
3713.81922,0.0332822
3712.85484,0.0332591
3711.89046,0.0333115
3710.92608,0.0333713
3709.96171,0.0333854
3708.99733,0.0333482
3708.03295,0.0332323
3707.06857,0.0331616
3706.10419,0.0331563
3705.13982,0.0331224
3704.17544,0.0330827
3703.21106,0.0330972
3702.24668,0.0331298
3701.28230,0.0331723
3700.31793,0.0331885
3699.35355,0.0331268
3698.38917,0.0331096
3697.42479,0.0331106
3696.46041,0.0331030
3695.49604,0.0331609
3694.53166,0.0332456
3693.56728,0.0333626
3692.60290,0.0334671
3691.63853,0.0335845
3690.67415,0.0337329
3689.70977,0.0338486
3688.74539,0.0339041
3687.78101,0.0339257
3686.81664,0.0340141
3685.85226,0.0340918
3684.88788,0.0341204
3683.92350,0.0341650
3682.95912,0.0342133
3681.99475,0.0342649
3681.03037,0.0343225
3680.06599,0.0344293
3679.10161,0.0345317
3678.13724,0.0346280
3677.17286,0.0347817
3676.20848,0.0349694
3675.24410,0.0351781
3674.27972,0.0353577
3673.31535,0.0355425
3672.35097,0.0357347
3671.38659,0.0358866
3670.42221,0.0360705
3669.45783,0.0363171
3668.49346,0.0365651
3667.52908,0.0367813
3666.56470,0.0370233
3665.60032,0.0372976
3664.63594,0.0375407
3663.67157,0.0377078
3662.70719,0.0378378
3661.74281,0.0380562
3660.77843,0.0383657
3659.81406,0.0386683
3658.84968,0.0389064
3657.88530,0.0391575
3656.92092,0.0395546
3655.95654,0.0400879
3654.99217,0.0405993
3654.02779,0.0410045
3653.06341,0.0413474
3652.09903,0.0416392
3651.13465,0.0419701
3650.17028,0.0423862
3649.20590,0.0427972
3648.24152,0.0431081
3647.27714,0.0432911
3646.31276,0.0434880
3645.34839,0.0437694
3644.38401,0.0441202
3643.41963,0.0444774
3642.45525,0.0448142
3641.49088,0.0451875
3640.52650,0.0455589
3639.56212,0.0459410
3638.59774,0.0462789
3637.63336,0.0465917
3636.66899,0.0469583
3635.70461,0.0472908
3634.74023,0.0476406
3633.77585,0.0480653
3632.81147,0.0485842
3631.84710,0.0491527
3630.88272,0.0496340
3629.91834,0.0500375
3628.95396,0.0503937
3627.98959,0.0506588
3627.02521,0.0508034
3626.06083,0.0509799
3625.09645,0.0512432
3624.13207,0.0514961
3623.16770,0.0518026
3622.20332,0.0521766
3621.23894,0.0525443
3620.27456,0.0528711
3619.31018,0.0531699
3618.34581,0.0534532
3617.38143,0.0537174
3616.41705,0.0539211
3615.45267,0.0540671
3614.48829,0.0542926
3613.52392,0.0545646
3612.55954,0.0547929
3611.59516,0.0549933
3610.63078,0.0552066
3609.66641,0.0553908
3608.70203,0.0554566
3607.73765,0.0554932
3606.77327,0.0555414
3605.80889,0.0556665
3604.84452,0.0559018
3603.88014,0.0561675
3602.91576,0.0564783
3601.95138,0.0567491
3600.98700,0.0569854
3600.02263,0.0572328
3599.05825,0.0574622
3598.09387,0.0576225
3597.12949,0.0576237
3596.16512,0.0575707
3595.20074,0.0575751
3594.23636,0.0576874
3593.27198,0.0578702
3592.30760,0.0579997
3591.34323,0.0580609
3590.37885,0.0581000
3589.41447,0.0581861
3588.45009,0.0582952
3587.48571,0.0584178
3586.52134,0.0585823
3585.55696,0.0587252
3584.59258,0.0588320
3583.62820,0.0589886
3582.66382,0.0592056
3581.69945,0.0593704
3580.73507,0.0594639
3579.77069,0.0595031
3578.80631,0.0595253
3577.84194,0.0595967
3576.87756,0.0597411
3575.91318,0.0599320
3574.94880,0.0600766
3573.98442,0.0602120
3573.02005,0.0603582
3572.05567,0.0605157
3571.09129,0.0606518
3570.12691,0.0606862
3569.16253,0.0607439
3568.19816,0.0607945
3567.23378,0.0608115
3566.26940,0.0609012
3565.30502,0.0610362
3564.34065,0.0612049
3563.37627,0.0613742
3562.41189,0.0615594
3561.44751,0.0617608
3560.48313,0.0619355
3559.51876,0.0620732
3558.55438,0.0622052
3557.59000,0.0624039
3556.62562,0.0625880
3555.66124,0.0627292
3554.69687,0.0628756
3553.73249,0.0630330
3552.76811,0.0632463
3551.80373,0.0634842
3550.83935,0.0636890
3549.87498,0.0638343
3548.91060,0.0639263
3547.94622,0.0640308
3546.98184,0.0641999
3546.01747,0.0643772
3545.05309,0.0645207
3544.08871,0.0646469
3543.12433,0.0647401
3542.15995,0.0648764
3541.19558,0.0651221
3540.23120,0.0654347
3539.26682,0.0657111
3538.30244,0.0658951
3537.33806,0.0660682
3536.37369,0.0662827
3535.40931,0.0664894
3534.44493,0.0666132
3533.48055,0.0667065
3532.51618,0.0668092
3531.55180,0.0669044
3530.58742,0.0670866
3529.62304,0.0673594
3528.65866,0.0676444
3527.69429,0.0678740
3526.72991,0.0680586
3525.76553,0.0682699
3524.80115,0.0684823
3523.83677,0.0686698
3522.87240,0.0688163
3521.90802,0.0689521
3520.94364,0.0691369
3519.97926,0.0693768
3519.01488,0.0696695
3518.05051,0.0699575
3517.08613,0.0701966
3516.12175,0.0703874
3515.15737,0.0705402
3514.19300,0.0707027
3513.22862,0.0708845
3512.26424,0.0710611
3511.29986,0.0712581
3510.33548,0.0714925
3509.37111,0.0717523
3508.40673,0.0720028
3507.44235,0.0721671
3506.47797,0.0722665
3505.51359,0.0723839
3504.54922,0.0725141
3503.58484,0.0726203
3502.62046,0.0727235
3501.65608,0.0728615
3500.69171,0.0730609
3499.72733,0.0733695
3498.76295,0.0737317
3497.79857,0.0740646
3496.83419,0.0743367
3495.86982,0.0745377
3494.90544,0.0747529
3493.94106,0.0749951
3492.97668,0.0752045
3492.01230,0.0753539
3491.04793,0.0754509
3490.08355,0.0755656
3489.11917,0.0757598
3488.15479,0.0760225
3487.19041,0.0762674
3486.22604,0.0764694
3485.26166,0.0766411
3484.29728,0.0767972
3483.33290,0.0769715
3482.36853,0.0771561
3481.40415,0.0773642
3480.43977,0.0775816
3479.47539,0.0778195
3478.51101,0.0781141
3477.54664,0.0784333
3476.58226,0.0787057
3475.61788,0.0788916
3474.65350,0.0790616
3473.68912,0.0792215
3472.72475,0.0793628
3471.76037,0.0795322
3470.79599,0.0797134
3469.83161,0.0798876
3468.86724,0.0800692
3467.90286,0.0803064
3466.93848,0.0805525
3465.97410,0.0807217
3465.00972,0.0808322
3464.04535,0.0809772
3463.08097,0.0812023
3462.11659,0.0814249
3461.15221,0.0816381
3460.18783,0.0818219
3459.22346,0.0819339
3458.25908,0.0820427
3457.29470,0.0821915
3456.33032,0.0823478
3455.36594,0.0824347
3454.40157,0.0824844
3453.43719,0.0825594
3452.47281,0.0826920
3451.50843,0.0828768
3450.54406,0.0830483
3449.57968,0.0832396
3448.61530,0.0834034
3447.65092,0.0835287
3446.68654,0.0836880
3445.72217,0.0838441
3444.75779,0.0840244
3443.79341,0.0842395
3442.82903,0.0844588
3441.86465,0.0846394
3440.90028,0.0847671
3439.93590,0.0849257
3438.97152,0.0851389
3438.00714,0.0853504
3437.04276,0.0854695
3436.07839,0.0854863
3435.11401,0.0854539
3434.14963,0.0854420
3433.18525,0.0855175
3432.22088,0.0856087
3431.25650,0.0856680
3430.29212,0.0857140
3429.32774,0.0857488
3428.36336,0.0858381
3427.39899,0.0860098
3426.43461,0.0861892
3425.47023,0.0863453
3424.50585,0.0865020
3423.54147,0.0866911
3422.57710,0.0869555
3421.61272,0.0872233
3420.64834,0.0874170
3419.68396,0.0875490
3418.71959,0.0876243
3417.75521,0.0876736
3416.79083,0.0877013
3415.82645,0.0877079
3414.86207,0.0877163
3413.89770,0.0877475
3412.93332,0.0878337
3411.96894,0.0879760
3411.00456,0.0881485
3410.04018,0.0882775
3409.07581,0.0883397
3408.11143,0.0884007
3407.14705,0.0885047
3406.18267,0.0886038
3405.21829,0.0886082
3404.25392,0.0885459
3403.28954,0.0885033
3402.32516,0.0885154
3401.36078,0.0885533
3400.39641,0.0885771
3399.43203,0.0885974
3398.46765,0.0886284
3397.50327,0.0886793
3396.53889,0.0887599
3395.57452,0.0888535
3394.61014,0.0889011
3393.64576,0.0889249
3392.68138,0.0889763
3391.71700,0.0890269
3390.75263,0.0890845
3389.78825,0.0891275
3388.82387,0.0891624
3387.85949,0.0892472
3386.89512,0.0893458
3385.93074,0.0894174
3384.96636,0.0894746
3384.00198,0.0895149
3383.03760,0.0895118
3382.07323,0.0895035
3381.10885,0.0895096
3380.14447,0.0894962
3379.18009,0.0894753
3378.21571,0.0894529
3377.25134,0.0894304
3376.28696,0.0894115
3375.32258,0.0894041
3374.35820,0.0894120
3373.39382,0.0894244
3372.42945,0.0894027
3371.46507,0.0893480
3370.50069,0.0893415
3369.53631,0.0893545
3368.57194,0.0893389
3367.60756,0.0893239
3366.64318,0.0893315
3365.67880,0.0893636
3364.71442,0.0894148
3363.75005,0.0895026
3362.78567,0.0895645
3361.82129,0.0895611
3360.85691,0.0895293
3359.89253,0.0895090
3358.92816,0.0894917
3357.96378,0.0893975
3356.99940,0.0892970
3356.03502,0.0892591
3355.07065,0.0892297
3354.10627,0.0891930
3353.14189,0.0891632
3352.17751,0.0891439
3351.21313,0.0891048
3350.24876,0.0890670
3349.28438,0.0890395
3348.32000,0.0890375
3347.35562,0.0890589
3346.39124,0.0890581
3345.42687,0.0890886
3344.46249,0.0891144
3343.49811,0.0890655
3342.53373,0.0889822
3341.56935,0.0889164
3340.60498,0.0888677
3339.64060,0.0888057
3338.67622,0.0887392
3337.71184,0.0886580
3336.74747,0.0886244
3335.78309,0.0886469
3334.81871,0.0886500
3333.85433,0.0886513
3332.88995,0.0886336
3331.92558,0.0886132
3330.96120,0.0885992
3329.99682,0.0885633
3329.03244,0.0885281
3328.06806,0.0885024
3327.10369,0.0884744
3326.13931,0.0884104
3325.17493,0.0883496
3324.21055,0.0882987
3323.24618,0.0882505
3322.28180,0.0882533
3321.31742,0.0882684
3320.35304,0.0883031
3319.38866,0.0883440
3318.42429,0.0883359
3317.45991,0.0883265
3316.49553,0.0883130
3315.53115,0.0882530
3314.56677,0.0881879
3313.60240,0.0881362
3312.63802,0.0880499
3311.67364,0.0879747
3310.70926,0.0879408
3309.74488,0.0878850
3308.78051,0.0878490
3307.81613,0.0878450
3306.85175,0.0878093
3305.88737,0.0877910
3304.92300,0.0878020
3303.95862,0.0877944
3302.99424,0.0877968
3302.02986,0.0877655
3301.06548,0.0876851
3300.10111,0.0876528
3299.13673,0.0876402
3298.17235,0.0875976
3297.20797,0.0875583
3296.24359,0.0875327
3295.27922,0.0875005
3294.31484,0.0874776
3293.35046,0.0874789
3292.38608,0.0874269
3291.42171,0.0873197
3290.45733,0.0871953
3289.49295,0.0870586
3288.52857,0.0869635
3287.56419,0.0868902
3286.59982,0.0868112
3285.63544,0.0867453
3284.67106,0.0867204
3283.70668,0.0867147
3282.74230,0.0867011
3281.77793,0.0867565
3280.81355,0.0868153
3279.84917,0.0868008
3278.88479,0.0867488
3277.92041,0.0866690
3276.95604,0.0866198
3275.99166,0.0865572
3275.02728,0.0864388
3274.06290,0.0863128
3273.09853,0.0861872
3272.13415,0.0860710
3271.16977,0.0859693
3270.20539,0.0859359
3269.24101,0.0859431
3268.27664,0.0859338
3267.31226,0.0859405
3266.34788,0.0859516
3265.38350,0.0859496
3264.41912,0.0858953
3263.45475,0.0858015
3262.49037,0.0856955
3261.52599,0.0855652
3260.56161,0.0854648
3259.59724,0.0853748
3258.63286,0.0852842
3257.66848,0.0852352
3256.70410,0.0851994
3255.73972,0.0851579
3254.77535,0.0851118
3253.81097,0.0850536
3252.84659,0.0849703
3251.88221,0.0848696
3250.91783,0.0847652
3249.95346,0.0846600
3248.98908,0.0845675
3248.02470,0.0845051
3247.06032,0.0844676
3246.09594,0.0844227
3245.13157,0.0843891
3244.16719,0.0843878
3243.20281,0.0843894
3242.23843,0.0843661
3241.27406,0.0843009
3240.30968,0.0842244
3239.34530,0.0841593
3238.38092,0.0840634
3237.41654,0.0839455
3236.45217,0.0838560
3235.48779,0.0837495
3234.52341,0.0836054
3233.55903,0.0834979
3232.59465,0.0834270
3231.63028,0.0833695
3230.66590,0.0833393
3229.70152,0.0833005
3228.73714,0.0832383
3227.77276,0.0831492
3226.80839,0.0829801
3225.84401,0.0827918
3224.87963,0.0826447
3223.91525,0.0824791
3222.95088,0.0823022
3221.98650,0.0821495
3221.02212,0.0820495
3220.05774,0.0820057
3219.09336,0.0819864
3218.12899,0.0819630
3217.16461,0.0818812
3216.20023,0.0817457
3215.23585,0.0815867
3214.27147,0.0814653
3213.30710,0.0813910
3212.34272,0.0812893
3211.37834,0.0811625
3210.41396,0.0810277
3209.44959,0.0809184
3208.48521,0.0808117
3207.52083,0.0806960
3206.55645,0.0805880
3205.59207,0.0804234
3204.62770,0.0802624
3203.66332,0.0801582
3202.69894,0.0801086
3201.73456,0.0800931
3200.77018,0.0800484
3199.80581,0.0799829
3198.84143,0.0798740
3197.87705,0.0797421
3196.91267,0.0796074
3195.94829,0.0794496
3194.98392,0.0792851
3194.01954,0.0791076
3193.05516,0.0789542
3192.09078,0.0788599
3191.12641,0.0788257
3190.16203,0.0787997
3189.19765,0.0787635
3188.23327,0.0787206
3187.26889,0.0785910
3186.30452,0.0784283
3185.34014,0.0782957
3184.37576,0.0781470
3183.41138,0.0779767
3182.44700,0.0778251
3181.48263,0.0777208
3180.51825,0.0776193
3179.55387,0.0775249
3178.58949,0.0774747
3177.62512,0.0774076
3176.66074,0.0772296
3175.69636,0.0769578
3174.73198,0.0766999
3173.76760,0.0764777
3172.80323,0.0762613
3171.83885,0.0760386
3170.87447,0.0758411
3169.91009,0.0756928
3168.94571,0.0755564
3167.98134,0.0754534
3167.01696,0.0753701
3166.05258,0.0752091
3165.08820,0.0749846
3164.12382,0.0747938
3163.15945,0.0746647
3162.19507,0.0745770
3161.23069,0.0745073
3160.26631,0.0744097
3159.30194,0.0742950
3158.33756,0.0742225
3157.37318,0.0741541
3156.40880,0.0740154
3155.44442,0.0738206
3154.48005,0.0736201
3153.51567,0.0734233
3152.55129,0.0732123
3151.58691,0.0730172
3150.62253,0.0728724
3149.65816,0.0727513
3148.69378,0.0726285
3147.72940,0.0725182
3146.76502,0.0724390
3145.80065,0.0723487
3144.83627,0.0722387
3143.87189,0.0721420
3142.90751,0.0720093
3141.94313,0.0718093
3140.97876,0.0715773
3140.01438,0.0713969
3139.05000,0.0712864
3138.08562,0.0711793
3137.12124,0.0710951
3136.15687,0.0710186
3135.19249,0.0708999
3134.22811,0.0707600
3133.26373,0.0706231
3132.29935,0.0704792
3131.33498,0.0703019
3130.37060,0.0701292
3129.40622,0.0699855
3128.44184,0.0698753
3127.47747,0.0698135
3126.51309,0.0697490
3125.54871,0.0696695
3124.58433,0.0695840
3123.61995,0.0694619
3122.65558,0.0693127
3121.69120,0.0691644
3120.72682,0.0690349
3119.76244,0.0689273
3118.79806,0.0688194
3117.83369,0.0686812
3116.86931,0.0685196
3115.90493,0.0683937
3114.94055,0.0682746
3113.97618,0.0681037
3113.01180,0.0679535
3112.04742,0.0678011
3111.08304,0.0675910
3110.11866,0.0674051
3109.15429,0.0672332
3108.18991,0.0670471
3107.22553,0.0668803
3106.26115,0.0667320
3105.29677,0.0665995
3104.33240,0.0664797
3103.36802,0.0663430
3102.40364,0.0661753
3101.43926,0.0660534
3100.47488,0.0659736
3099.51051,0.0658695
3098.54613,0.0657765
3097.58175,0.0656884
3096.61737,0.0655848
3095.65300,0.0654701
3094.68862,0.0653551
3093.72424,0.0652402
3092.75986,0.0650781
3091.79548,0.0648754
3090.83111,0.0646609
3089.86673,0.0644672
3088.90235,0.0642930
3087.93797,0.0641140
3086.97359,0.0639673
3086.00922,0.0638327
3085.04484,0.0636745
3084.08046,0.0635083
3083.11608,0.0633769
3082.15171,0.0633012
3081.18733,0.0632456
3080.22295,0.0632040
3079.25857,0.0631518
3078.29419,0.0630923
3077.32982,0.0630585
3076.36544,0.0630261
3075.40106,0.0629953
3074.43668,0.0629423
3073.47230,0.0628414
3072.50793,0.0627030
3071.54355,0.0625430
3070.57917,0.0623958
3069.61479,0.0622467
3068.65041,0.0620839
3067.68604,0.0619250
3066.72166,0.0617899
3065.75728,0.0616815
3064.79290,0.0615735
3063.82853,0.0614701
3062.86415,0.0613437
3061.89977,0.0611631
3060.93539,0.0609677
3059.97101,0.0607957
3059.00664,0.0606390
3058.04226,0.0604859
3057.07788,0.0603760
3056.11350,0.0603053
3055.14912,0.0602193
3054.18475,0.0601197
3053.22037,0.0600161
3052.25599,0.0598820
3051.29161,0.0597004
3050.32724,0.0594999
3049.36286,0.0593142
3048.39848,0.0591456
3047.43410,0.0589875
3046.46972,0.0588501
3045.50535,0.0587212
3044.54097,0.0585562
3043.57659,0.0583763
3042.61221,0.0582185
3041.64783,0.0580725
3040.68346,0.0579262
3039.71908,0.0577854
3038.75470,0.0576833
3037.79032,0.0576237
3036.82594,0.0575913
3035.86157,0.0575733
3034.89719,0.0575241
3033.93281,0.0574115
3032.96843,0.0572471
3032.00406,0.0570610
3031.03968,0.0568751
3030.07530,0.0567032
3029.11092,0.0565281
3028.14654,0.0563474
3027.18217,0.0562102
3026.21779,0.0560992
3025.25341,0.0559969
3024.28903,0.0559203
3023.32465,0.0558415
3022.36028,0.0557690
3021.39590,0.0556964
3020.43152,0.0555792
3019.46714,0.0554419
3018.50276,0.0553237
3017.53839,0.0552037
3016.57401,0.0550792
3015.60963,0.0549932
3014.64525,0.0549013
3013.68088,0.0547778
3012.71650,0.0546784
3011.75212,0.0545774
3010.78774,0.0544517
3009.82336,0.0542902
3008.85899,0.0540818
3007.89461,0.0538894
3006.93023,0.0537308
3005.96585,0.0535776
3005.00147,0.0534296
3004.03710,0.0533028
3003.07272,0.0531887
3002.10834,0.0530560
3001.14396,0.0529193
3000.17959,0.0527998
2999.21521,0.0526872
2998.25083,0.0525817
2997.28645,0.0524896
2996.32207,0.0523988
2995.35770,0.0523127
2994.39332,0.0522414
2993.42894,0.0521569
2992.46456,0.0520509
2991.50018,0.0519378
2990.53581,0.0518166
2989.57143,0.0517019
2988.60705,0.0516019
2987.64267,0.0515019
2986.67829,0.0514077
2985.71392,0.0513270
2984.74954,0.0512552
2983.78516,0.0512067
2982.82078,0.0511581
2981.85641,0.0510714
2980.89203,0.0509684
2979.92765,0.0508810
2978.96327,0.0508204
2977.99889,0.0507635
2977.03452,0.0506858
2976.07014,0.0506099
2975.10576,0.0505639
2974.14138,0.0505463
2973.17700,0.0505446
2972.21263,0.0505439
2971.24825,0.0505299
2970.28387,0.0505180
2969.31949,0.0505384
2968.35512,0.0505860
2967.39074,0.0506326
2966.42636,0.0506633
2965.46198,0.0506823
2964.49760,0.0507054
2963.53323,0.0507355
2962.56885,0.0507661
2961.60447,0.0507962
2960.64009,0.0507921
2959.67571,0.0507458
2958.71134,0.0507069
2957.74696,0.0506776
2956.78258,0.0506217
2955.81820,0.0505355
2954.85382,0.0504419
2953.88945,0.0503588
2952.92507,0.0502882
2951.96069,0.0502116
2950.99631,0.0501310
2950.03194,0.0500562
2949.06756,0.0499688
2948.10318,0.0498939
2947.13880,0.0498450
2946.17442,0.0497927
2945.21005,0.0497529
2944.24567,0.0497646
2943.28129,0.0498033
2942.31691,0.0498243
2941.35253,0.0498667
2940.38816,0.0499384
2939.42378,0.0500113
2938.45940,0.0500835
2937.49502,0.0501316
2936.53065,0.0501724
2935.56627,0.0502109
2934.60189,0.0502490
2933.63751,0.0503216
2932.67313,0.0504148
2931.70876,0.0504769
2930.74438,0.0505008
2929.78000,0.0505463
2928.81562,0.0505978
2927.85124,0.0506219
2926.88687,0.0506384
2925.92249,0.0506483
2924.95811,0.0506619
2923.99373,0.0506645
2923.02935,0.0506543
2922.06498,0.0506252
2921.10060,0.0505384
2920.13622,0.0503932
2919.17184,0.0502077
2918.20747,0.0500071
2917.24309,0.0497842
2916.27871,0.0495378
2915.31433,0.0493087
2914.34995,0.0491173
2913.38558,0.0489445
2912.42120,0.0487759
2911.45682,0.0486325
2910.49244,0.0484917
2909.52806,0.0483272
2908.56369,0.0481614
2907.59931,0.0480158
2906.63493,0.0478798
2905.67055,0.0477029
2904.70618,0.0474984
2903.74180,0.0473212
2902.77742,0.0471956
2901.81304,0.0471201
2900.84866,0.0470429
2899.88429,0.0469476
2898.91991,0.0468629
2897.95553,0.0467853
2896.99115,0.0467070
2896.02677,0.0466273
2895.06240,0.0465277
2894.09802,0.0464138
2893.13364,0.0463446
2892.16926,0.0463389
2891.20488,0.0463674
2890.24051,0.0463868
2889.27613,0.0463392
2888.31175,0.0462557
2887.34737,0.0461899
2886.38300,0.0461350
2885.41862,0.0460849
2884.45424,0.0460102
2883.48986,0.0459297
2882.52548,0.0458962
2881.56111,0.0458942
2880.59673,0.0459000
2879.63235,0.0458789
2878.66797,0.0458089
2877.70359,0.0457272
2876.73922,0.0456612
2875.77484,0.0456067
2874.81046,0.0455595
2873.84608,0.0454945
2872.88171,0.0453904
2871.91733,0.0452851
2870.95295,0.0451961
2869.98857,0.0451129
2869.02419,0.0450289
2868.05982,0.0449235
2867.09544,0.0448380
2866.13106,0.0448035
2865.16668,0.0447666
2864.20230,0.0447122
2863.23793,0.0446697
2862.27355,0.0446293
2861.30917,0.0445807
2860.34479,0.0445557
2859.38041,0.0445739
2858.41604,0.0446088
2857.45166,0.0446193
2856.48728,0.0446176
2855.52290,0.0446364
2854.55853,0.0446500
2853.59415,0.0446128
2852.62977,0.0445191
2851.66539,0.0443957
2850.70101,0.0442338
2849.73664,0.0440299
2848.77226,0.0438245
2847.80788,0.0436108
2846.84350,0.0433664
2845.87912,0.0431063
2844.91475,0.0428509
2843.95037,0.0426232
2842.98599,0.0424330
2842.02161,0.0422560
2841.05724,0.0420812
2840.09286,0.0419297
2839.12848,0.0418057
2838.16410,0.0417003
2837.19972,0.0415972
2836.23535,0.0414917
2835.27097,0.0413970
2834.30659,0.0412963
2833.34221,0.0411891
2832.37783,0.0411025
2831.41346,0.0410267
2830.44908,0.0409512
2829.48470,0.0408878
2828.52032,0.0408229
2827.55594,0.0407589
2826.59157,0.0407158
2825.62719,0.0406762
2824.66281,0.0406537
2823.69843,0.0406430
2822.73406,0.0405932
2821.76968,0.0405259
2820.80530,0.0404519
2819.84092,0.0403556
2818.87654,0.0402688
2817.91217,0.0401887
2816.94779,0.0400921
2815.98341,0.0400001
2815.01903,0.0399295
2814.05465,0.0398830
2813.09028,0.0398728
2812.12590,0.0398567
2811.16152,0.0397988
2810.19714,0.0397465
2809.23276,0.0397002
2808.26839,0.0396429
2807.30401,0.0395838
2806.33963,0.0394941
2805.37525,0.0393803
2804.41088,0.0392724
2803.44650,0.0391891
2802.48212,0.0391488
2801.51774,0.0391297
2800.55336,0.0390891
2799.58899,0.0390294
2798.62461,0.0389883
2797.66023,0.0389510
2796.69585,0.0388957
2795.73147,0.0388257
2794.76710,0.0387424
2793.80272,0.0386760
2792.83834,0.0386355
2791.87396,0.0386157
2790.90959,0.0386089
2789.94521,0.0385836
2788.98083,0.0385269
2788.01645,0.0384616
2787.05207,0.0384052
2786.08770,0.0383370
2785.12332,0.0382576
2784.15894,0.0381753
2783.19456,0.0380977
2782.23018,0.0380368
2781.26581,0.0379743
2780.30143,0.0379201
2779.33705,0.0378715
2778.37267,0.0378113
2777.40829,0.0377471
2776.44392,0.0376863
2775.47954,0.0376316
2774.51516,0.0375654
2773.55078,0.0375014
2772.58641,0.0374481
2771.62203,0.0373917
2770.65765,0.0373276
2769.69327,0.0372514
2768.72889,0.0371835
2767.76452,0.0371222
2766.80014,0.0370638
2765.83576,0.0369966
2764.87138,0.0369048
2763.90700,0.0368145
2762.94263,0.0367299
2761.97825,0.0366516
2761.01387,0.0365856
2760.04949,0.0365303
2759.08512,0.0364827
2758.12074,0.0364422
2757.15636,0.0364098
2756.19198,0.0363747
2755.22760,0.0363343
2754.26323,0.0362767
2753.29885,0.0362126
2752.33447,0.0361513
2751.37009,0.0360866
2750.40571,0.0360427
2749.44134,0.0360098
2748.47696,0.0359685
2747.51258,0.0359121
2746.54820,0.0358450
2745.58382,0.0357755
2744.61945,0.0356947
2743.65507,0.0356194
2742.69069,0.0355493
2741.72631,0.0354805
2740.76194,0.0354206
2739.79756,0.0353798
2738.83318,0.0353698
2737.86880,0.0353409
2736.90442,0.0352602
2735.94005,0.0351592
2734.97567,0.0350812
2734.01129,0.0350276
2733.04691,0.0349680
2732.08253,0.0348985
2731.11816,0.0348153
2730.15378,0.0347359
2729.18940,0.0346764
2728.22502,0.0346236
2727.26065,0.0345894
2726.29627,0.0345525
2725.33189,0.0344815
2724.36751,0.0344159
2723.40313,0.0343822
2722.43876,0.0343439
2721.47438,0.0342724
2720.51000,0.0341778
2719.54562,0.0340901
2718.58124,0.0340326
2717.61687,0.0339784
2716.65249,0.0339174
2715.68811,0.0338875
2714.72373,0.0338532
2713.75935,0.0337888
2712.79498,0.0337451
2711.83060,0.0337050
2710.86622,0.0336418
2709.90184,0.0335722
2708.93747,0.0335028
2707.97309,0.0334689
2707.00871,0.0334652
2706.04433,0.0334330
2705.07995,0.0333745
2704.11558,0.0333222
2703.15120,0.0332584
2702.18682,0.0331804
2701.22244,0.0331123
2700.25806,0.0330291
2699.29369,0.0329376
2698.32931,0.0328489
2697.36493,0.0327601
2696.40055,0.0327149
2695.43618,0.0326825
2694.47180,0.0326290
2693.50742,0.0325815
2692.54304,0.0325481
2691.57866,0.0325267
2690.61429,0.0324827
2689.64991,0.0324115
2688.68553,0.0323431
2687.72115,0.0322754
2686.75677,0.0322004
2685.79240,0.0321332
2684.82802,0.0320803
2683.86364,0.0320219
2682.89926,0.0319713
2681.93488,0.0319332
2680.97051,0.0318920
2680.00613,0.0318374
2679.04175,0.0317581
2678.07737,0.0316801
2677.11300,0.0316211
2676.14862,0.0315768
2675.18424,0.0315289
2674.21986,0.0314659
2673.25548,0.0314014
2672.29111,0.0313347
2671.32673,0.0312707
2670.36235,0.0312074
2669.39797,0.0311448
2668.43359,0.0310875
2667.46922,0.0310482
2666.50484,0.0310239
2665.54046,0.0309860
2664.57608,0.0309493
2663.61171,0.0309010
2662.64733,0.0308409
2661.68295,0.0307932
2660.71857,0.0307315
2659.75419,0.0306672
2658.78982,0.0306217
2657.82544,0.0306004
2656.86106,0.0305830
2655.89668,0.0305484
2654.93230,0.0304981
2653.96793,0.0304246
2653.00355,0.0303476
2652.03917,0.0302518
2651.07479,0.0301350
2650.11041,0.0300278
2649.14604,0.0299268
2648.18166,0.0298350
2647.21728,0.0297622
2646.25290,0.0297297
2645.28853,0.0296963
2644.32415,0.0296498
2643.35977,0.0296413
2642.39539,0.0296340
2641.43101,0.0295937
2640.46664,0.0295136
2639.50226,0.0294182
2638.53788,0.0293363
2637.57350,0.0292441
2636.60912,0.0291244
2635.64475,0.0289802
2634.68037,0.0288456
2633.71599,0.0287268
2632.75161,0.0286633
2631.78724,0.0286758
2630.82286,0.0286719
2629.85848,0.0286386
2628.89410,0.0285885
2627.92972,0.0285279
2626.96535,0.0284665
2626.00097,0.0283668
2625.03659,0.0282394
2624.07221,0.0280936
2623.10783,0.0279718
2622.14346,0.0279218
2621.17908,0.0279126
2620.21470,0.0279204
2619.25032,0.0279224
2618.28594,0.0279259
2617.32157,0.0279181
2616.35719,0.0278572
2615.39281,0.0277616
2614.42843,0.0276578
2613.46406,0.0275700
2612.49968,0.0274943
2611.53530,0.0274334
2610.57092,0.0273947
2609.60654,0.0273509
2608.64217,0.0273333
2607.67779,0.0273432
2606.71341,0.0273461
2605.74903,0.0273524
2604.78465,0.0273306
2603.82028,0.0272703
2602.85590,0.0272059
2601.89152,0.0271365
2600.92714,0.0270601
2599.96276,0.0269797
2598.99839,0.0268973
2598.03401,0.0268237
2597.06963,0.0267587
2596.10525,0.0267094
2595.14088,0.0266938
2594.17650,0.0267039
2593.21212,0.0266929
2592.24774,0.0266187
2591.28336,0.0265009
2590.31899,0.0263742
2589.35461,0.0262566
2588.39023,0.0261659
2587.42585,0.0261017
2586.46147,0.0260473
2585.49710,0.0260011
2584.53272,0.0259856
2583.56834,0.0259922
2582.60396,0.0259917
2581.63959,0.0259626
2580.67521,0.0259097
2579.71083,0.0258730
2578.74645,0.0258390
2577.78207,0.0257852
2576.81770,0.0257318
2575.85332,0.0256902
2574.88894,0.0256530
2573.92456,0.0256070
2572.96018,0.0255509
2571.99581,0.0255079
2571.03143,0.0255085
2570.06705,0.0255101
2569.10267,0.0255161
2568.13829,0.0255514
2567.17392,0.0255202
2566.20954,0.0254287
2565.24516,0.0253565
2564.28078,0.0253124
2563.31641,0.0252567
2562.35203,0.0251512
2561.38765,0.0250553
2560.42327,0.0250230
2559.45889,0.0250114
2558.49452,0.0249558
2557.53014,0.0249084
2556.56576,0.0249016
2555.60138,0.0248649
2554.63700,0.0248131
2553.67263,0.0247558
2552.70825,0.0247079
2551.74387,0.0246673
2550.77949,0.0246046
2549.81512,0.0245942
2548.85074,0.0246178
2547.88636,0.0245942
2546.92198,0.0245349
2545.95760,0.0244865
2544.99323,0.0244438
2544.02885,0.0243666
2543.06447,0.0242839
2542.10009,0.0242245
2541.13571,0.0242018
2540.17134,0.0241917
2539.20696,0.0241592
2538.24258,0.0241324
2537.27820,0.0241035
2536.31382,0.0240530
2535.34945,0.0239706
2534.38507,0.0238774
2533.42069,0.0238066
2532.45631,0.0237554
2531.49194,0.0237693
2530.52756,0.0238236
2529.56318,0.0238541
2528.59880,0.0238898
2527.63442,0.0239382
2526.67005,0.0239742
2525.70567,0.0239602
2524.74129,0.0238762
2523.77691,0.0237365
2522.81253,0.0235727
2521.84816,0.0234437
2520.88378,0.0233621
2519.91940,0.0233277
2518.95502,0.0233461
2517.99065,0.0233943
2517.02627,0.0234532
2516.06189,0.0235061
2515.09751,0.0235464
2514.13313,0.0235436
2513.16876,0.0234795
2512.20438,0.0233700
2511.24000,0.0232619
2510.27562,0.0232279
2509.31124,0.0232264
2508.34687,0.0232037
2507.38249,0.0231713
2506.41811,0.0231053
2505.45373,0.0230030
2504.48935,0.0228965
2503.52498,0.0228301
2502.56060,0.0227800
2501.59622,0.0226811
2500.63184,0.0225760
2499.66747,0.0225224
2498.70309,0.0225156
2497.73871,0.0225262
2496.77433,0.0225148
2495.80995,0.0224736
2494.84558,0.0224192
2493.88120,0.0223776
2492.91682,0.0223910
2491.95244,0.0224524
2490.98806,0.0225056
2490.02369,0.0225336
2489.05931,0.0225456
2488.09493,0.0225300
2487.13055,0.0224944
2486.16618,0.0224748
2485.20180,0.0224505
2484.23742,0.0223791
2483.27304,0.0222755
2482.30866,0.0221919
2481.34429,0.0221514
2480.37991,0.0221159
2479.41553,0.0220962
2478.45115,0.0221019
2477.48677,0.0220794
2476.52240,0.0220233
2475.55802,0.0219708
2474.59364,0.0219645
2473.62926,0.0219681
2472.66488,0.0219335
2471.70051,0.0219177
2470.73613,0.0219470
2469.77175,0.0219774
2468.80737,0.0219869
2467.84300,0.0219842
2466.87862,0.0219545
2465.91424,0.0219127
2464.94986,0.0218675
2463.98548,0.0217870
2463.02111,0.0216834
2462.05673,0.0215478
2461.09235,0.0214180
2460.12797,0.0213692
2459.16359,0.0213953
2458.19922,0.0214249
2457.23484,0.0213778
2456.27046,0.0213064
2455.30608,0.0212945
2454.34171,0.0213307
2453.37733,0.0213253
2452.41295,0.0212212
2451.44857,0.0210917
2450.48419,0.0209829
2449.51982,0.0209020
2448.55544,0.0208466
2447.59106,0.0208107
2446.62668,0.0207807
2445.66230,0.0207486
2444.69793,0.0207687
2443.73355,0.0208131
2442.76917,0.0208461
2441.80479,0.0208470
2440.84041,0.0207932
2439.87604,0.0207817
2438.91166,0.0208404
2437.94728,0.0209072
2436.98290,0.0209284
2436.01853,0.0209109
2435.05415,0.0209175
2434.08977,0.0209334
2433.12539,0.0209157
2432.16101,0.0208340
2431.19664,0.0207073
2430.23226,0.0205685
2429.26788,0.0204385
2428.30350,0.0203843
2427.33912,0.0204120
2426.37475,0.0204800
2425.41037,0.0205256
2424.44599,0.0205153
2423.48161,0.0204888
2422.51724,0.0204663
2421.55286,0.0204654
2420.58848,0.0204551
2419.62410,0.0204280
2418.65972,0.0204265
2417.69535,0.0204177
2416.73097,0.0204208
2415.76659,0.0204564
2414.80221,0.0204746
2413.83783,0.0204558
2412.87346,0.0203804
2411.90908,0.0202813
2410.94470,0.0202180
2409.98032,0.0201896
2409.01594,0.0201596
2408.05157,0.0200955
2407.08719,0.0200162
2406.12281,0.0199421
2405.15843,0.0198895
2404.19406,0.0198543
2403.22968,0.0198209
2402.26530,0.0198360
2401.30092,0.0198962
2400.33654,0.0199582
2399.37217,0.0200008
2398.40779,0.0200151
2397.44341,0.0200184
2396.47903,0.0200030
2395.51465,0.0199990
2394.55028,0.0200028
2393.58590,0.0199613
2392.62152,0.0199061
2391.65714,0.0198514
2390.69276,0.0198145
2389.72839,0.0198031
2388.76401,0.0197741
2387.79963,0.0197446
2386.83525,0.0197400
2385.87088,0.0197543
2384.90650,0.0197719
2383.94212,0.0197934
2382.97774,0.0198197
2382.01336,0.0198497
2381.04899,0.0198967
2380.08461,0.0199227
2379.12023,0.0199415
2378.15585,0.0199665
2377.19147,0.0199549
2376.22710,0.0199401
2375.26272,0.0199221
2374.29834,0.0198827
2373.33396,0.0198392
2372.36959,0.0197999
2371.40521,0.0197943
2370.44083,0.0198231
2369.47645,0.0198646
2368.51207,0.0199073
2367.54770,0.0199519
2366.58332,0.0199684
2365.61894,0.0199449
2364.65456,0.0199314
2363.69018,0.0199269
2362.72581,0.0199223
2361.76143,0.0199039
2360.79705,0.0198721
2359.83267,0.0198602
2358.86829,0.0198372
2357.90392,0.0198013
2356.93954,0.0197604
2355.97516,0.0196950
2355.01078,0.0196260
2354.04641,0.0195682
2353.08203,0.0195175
2352.11765,0.0194692
2351.15327,0.0194258
2350.18889,0.0193979
2349.22452,0.0194046
2348.26014,0.0194274
2347.29576,0.0194384
2346.33138,0.0194473
2345.36700,0.0194474
2344.40263,0.0194650
2343.43825,0.0195064
2342.47387,0.0195237
2341.50949,0.0195125
2340.54512,0.0194837
2339.58074,0.0194420
2338.61636,0.0194187
2337.65198,0.0194497
2336.68760,0.0194909
2335.72323,0.0194967
2334.75885,0.0194770
2333.79447,0.0194351
2332.83009,0.0194132
2331.86571,0.0193933
2330.90134,0.0193330
2329.93696,0.0192851
2328.97258,0.0192473
2328.00820,0.0191879
2327.04382,0.0191656
2326.07945,0.0191936
2325.11507,0.0191809
2324.15069,0.0190981
2323.18631,0.0189924
2322.22194,0.0188937
2321.25756,0.0188368
2320.29318,0.0188064
2319.32880,0.0187641
2318.36442,0.0187309
2317.40005,0.0186988
2316.43567,0.0186501
2315.47129,0.0186253
2314.50691,0.0186039
2313.54253,0.0185520
2312.57816,0.0184962
2311.61378,0.0184547
2310.64940,0.0184411
2309.68502,0.0184624
2308.72065,0.0184933
2307.75627,0.0185007
2306.79189,0.0184887
2305.82751,0.0184792
2304.86313,0.0184635
2303.89876,0.0184445
2302.93438,0.0184302
2301.97000,0.0184163
2301.00562,0.0184025
2300.04124,0.0183886
2299.07687,0.0183747
2298.11249,0.0183609
2297.14811,0.0183470
2296.18373,0.0183331
2295.21935,0.0183193
2294.25498,0.0183054
2293.29060,0.0182915
2292.32622,0.0182777
2291.36184,0.0182638
2290.39747,0.0182499
2289.43309,0.0182361
2288.46871,0.0182222
2287.50433,0.0182083
2286.53995,0.0181945
2285.57558,0.0181806
2284.61120,0.0181667
2283.64682,0.0181529
2282.68244,0.0181390
2281.71806,0.0181252
2280.75369,0.0181113
2279.78931,0.0180974
2278.82493,0.0180836
2277.86055,0.0180697
2276.89618,0.0180558
2275.93180,0.0180420
2274.96742,0.0180281
2274.00304,0.0180142
2273.03866,0.0180004
2272.07429,0.0179865
2271.10991,0.0179726
2270.14553,0.0179588
2269.18115,0.0179449
2268.21677,0.0179310
2267.25240,0.0179172
2266.28802,0.0179033
2265.32364,0.0178894
2264.35926,0.0178756
2263.39488,0.0178617
2262.43051,0.0178478
2261.46613,0.0178340
2260.50175,0.0178201
2259.53737,0.0178063
2258.57300,0.0177924
2257.60862,0.0177785
2256.64424,0.0177647
2255.67986,0.0177508
2254.71548,0.0177369
2253.75111,0.0177231
2252.78673,0.0177092
2251.82235,0.0176953
2250.85797,0.0176815
2249.89359,0.0176676
2248.92922,0.0176537
2247.96484,0.0176399
2247.00046,0.0176260
2246.03608,0.0176121
2245.07171,0.0175983
2244.10733,0.0175844
2243.14295,0.0175705
2242.17857,0.0175567
2241.21419,0.0175428
2240.24982,0.0175290
2239.28544,0.0175151
2238.32106,0.0175012
2237.35668,0.0174874
2236.39230,0.0174735
2235.42793,0.0174596
2234.46355,0.0174458
2233.49917,0.0174319
2232.53479,0.0174180
2231.57041,0.0174042
2230.60604,0.0173903
2229.64166,0.0173764
2228.67728,0.0173626
2227.71290,0.0173487
2226.74853,0.0173348
2225.78415,0.0173210
2224.81977,0.0173071
2223.85539,0.0172932
2222.89101,0.0172794
2221.92664,0.0172655
2220.96226,0.0172516
2219.99788,0.0172378
2219.03350,0.0172239
2218.06912,0.0172101
2217.10475,0.0171962
2216.14037,0.0171823
2215.17599,0.0171685
2214.21161,0.0171546
2213.24724,0.0171407
2212.28286,0.0171269
2211.31848,0.0171130
2210.35410,0.0170991
2209.38972,0.0170853
2208.42535,0.0170714
2207.46097,0.0170575
2206.49659,0.0170437
2205.53221,0.0170298
2204.56783,0.0170159
2203.60346,0.0170021
2202.63908,0.0169882
2201.67470,0.0169743
2200.71032,0.0169605
2199.74594,0.0169466
2198.78157,0.0169328
2197.81719,0.0169189
2196.85281,0.0169050
2195.88843,0.0168912
2194.92406,0.0168773
2193.95968,0.0168634
2192.99530,0.0168496
2192.03092,0.0168357
2191.06654,0.0168218
2190.10217,0.0168080
2189.13779,0.0167941
2188.17341,0.0167802
2187.20903,0.0167664
2186.24465,0.0167525
2185.28028,0.0167386
2184.31590,0.0167248
2183.35152,0.0167109
2182.38714,0.0166970
2181.42276,0.0166832
2180.45839,0.0166693
2179.49401,0.0166554
2178.52963,0.0166416
2177.56525,0.0166277
2176.60088,0.0166139
2175.63650,0.0166000
2174.67212,0.0165861
2173.70774,0.0165723
2172.74336,0.0165584
2171.77899,0.0165445
2170.81461,0.0165307
2169.85023,0.0165168
2168.88585,0.0165029
2167.92147,0.0164891
2166.95710,0.0164752
2165.99272,0.0164613
2165.02834,0.0164475
2164.06396,0.0164336
2163.09959,0.0164197
2162.13521,0.0164059
2161.17083,0.0163920
2160.20645,0.0163781
2159.24207,0.0163643
2158.27770,0.0163504
2157.31332,0.0163366
2156.34894,0.0163227
2155.38456,0.0163088
2154.42018,0.0162950
2153.45581,0.0162811
2152.49143,0.0162672
2151.52705,0.0162534
2150.56267,0.0162395
2149.59829,0.0162256
2148.63392,0.0162118
2147.66954,0.0161979
2146.70516,0.0161840
2145.74078,0.0161702
2144.77641,0.0161563
2143.81203,0.0161424
2142.84765,0.0161286
2141.88327,0.0161147
2140.91889,0.0161008
2139.95452,0.0160870
2138.99014,0.0160731
2138.02576,0.0160592
2137.06138,0.0160454
2136.09700,0.0160315
2135.13263,0.0160177
2134.16825,0.0160038
2133.20387,0.0159899
2132.23949,0.0159761
2131.27512,0.0159622
2130.31074,0.0159483
2129.34636,0.0159345
2128.38198,0.0159206
2127.41760,0.0159067
2126.45323,0.0158929
2125.48885,0.0158790
2124.52447,0.0158651
2123.56009,0.0158513
2122.59571,0.0158374
2121.63134,0.0158235
2120.66696,0.0158097
2119.70258,0.0157958
2118.73820,0.0157819
2117.77382,0.0157681
2116.80945,0.0157542
2115.84507,0.0157404
2114.88069,0.0157265
2113.91631,0.0157126
2112.95194,0.0156988
2111.98756,0.0156849
2111.02318,0.0156710
2110.05880,0.0156572
2109.09442,0.0156433
2108.13005,0.0156294
2107.16567,0.0156156
2106.20129,0.0156017
2105.23691,0.0155878
2104.27253,0.0155740
2103.30816,0.0155601
2102.34378,0.0155462
2101.37940,0.0155324
2100.41502,0.0155185
2099.45065,0.0155046
2098.48627,0.0154908
2097.52189,0.0154769
2096.55751,0.0154630
2095.59313,0.0154492
2094.62876,0.0154353
2093.66438,0.0154215
2092.70000,0.0154076
2091.73562,0.0153937
2090.77124,0.0153799
2089.80687,0.0153660
2088.84249,0.0153521
2087.87811,0.0153383
2086.91373,0.0153244
2085.94935,0.0153105
2084.98498,0.0152967
2084.02060,0.0152828
2083.05622,0.0152689
2082.09184,0.0152551
2081.12747,0.0152412
2080.16309,0.0152273
2079.19871,0.0152135
2078.23433,0.0151996
2077.26995,0.0151857
2076.30558,0.0151719
2075.34120,0.0151580
2074.37682,0.0151442
2073.41244,0.0151303
2072.44806,0.0151164
2071.48369,0.0151026
2070.51931,0.0150887
2069.55493,0.0150748
2068.59055,0.0150610
2067.62618,0.0150471
2066.66180,0.0150332
2065.69742,0.0150194
2064.73304,0.0150055
2063.76866,0.0149916
2062.80429,0.0149778
2061.83991,0.0149639
2060.87553,0.0149500
2059.91115,0.0149362
2058.94677,0.0149223
2057.98240,0.0149084
2057.01802,0.0148946
2056.05364,0.0148807
2055.08926,0.0148668
2054.12488,0.0148530
2053.16051,0.0148391
2052.19613,0.0148253
2051.23175,0.0148114
2050.26737,0.0147975
2049.30300,0.0147837
2048.33862,0.0147698
2047.37424,0.0147559
2046.40986,0.0147421
2045.44548,0.0147282
2044.48111,0.0147143
2043.51673,0.0147005
2042.55235,0.0146866
2041.58797,0.0146727
2040.62359,0.0146589
2039.65922,0.0146450
2038.69484,0.0146311
2037.73046,0.0146173
2036.76608,0.0146034
2035.80171,0.0145895
2034.83733,0.0145757
2033.87295,0.0145618
2032.90857,0.0145480
2031.94419,0.0145341
2030.97982,0.0145202
2030.01544,0.0145064
2029.05106,0.0144925
2028.08668,0.0144786
2027.12230,0.0144648
2026.15793,0.0144509
2025.19355,0.0144370
2024.22917,0.0144232
2023.26479,0.0144093
2022.30041,0.0143954
2021.33604,0.0143816
2020.37166,0.0143677
2019.40728,0.0143538
2018.44290,0.0143400
2017.47853,0.0143261
2016.51415,0.0143122
2015.54977,0.0142984
2014.58539,0.0142845
2013.62101,0.0142706
2012.65664,0.0142568
2011.69226,0.0142429
2010.72788,0.0142291
2009.76350,0.0142152
2008.79912,0.0142013
2007.83475,0.0141875
2006.87037,0.0141736
2005.90599,0.0141597
2004.94161,0.0141459
2003.97724,0.0141320
2003.01286,0.0141181
2002.04848,0.0141043
2001.08410,0.0140904
2000.11972,0.0140765
1999.15535,0.0140627
1998.19097,0.0140488
1997.22659,0.0140349
1996.26221,0.0140211
1995.29783,0.0140072
1994.33346,0.0139933
1993.36908,0.0139795
1992.40470,0.0139656
1991.44032,0.0139518
1990.47594,0.0139379
1989.51157,0.0139240
1988.54719,0.0139102
1987.58281,0.0138963
1986.61843,0.0138824
1985.65406,0.0138686
1984.68968,0.0138547
1983.72530,0.0138408
1982.76092,0.0138270
1981.79654,0.0138131
1980.83217,0.0137992
1979.86779,0.0137854
1978.90341,0.0137715
1977.93903,0.0137576
1976.97465,0.0137438
1976.01028,0.0137299
1975.04590,0.0137160
1974.08152,0.0137022
1973.11714,0.0136883
1972.15276,0.0136744
1971.18839,0.0136606
1970.22401,0.0136467
1969.25963,0.0136329
1968.29525,0.0136190
1967.33088,0.0136051
1966.36650,0.0135913
1965.40212,0.0135774
1964.43774,0.0135635
1963.47336,0.0135497
1962.50899,0.0135358
1961.54461,0.0135219
1960.58023,0.0135081
1959.61585,0.0134942
1958.65147,0.0134803
1957.68710,0.0134665
1956.72272,0.0134526
1955.75834,0.0134387
1954.79396,0.0134249
1953.82959,0.0134110
1952.86521,0.0133971
1951.90083,0.0133833
1950.93645,0.0133694
1949.97207,0.0133556
1949.00770,0.0133417
1948.04332,0.0133278
1947.07894,0.0133140
1946.11456,0.0133001
1945.15018,0.0132862
1944.18581,0.0132724
1943.22143,0.0132585
1942.25705,0.0132446
1941.29267,0.0132308
1940.32829,0.0132169
1939.36392,0.0132030
1938.39954,0.0131892
1937.43516,0.0131753
1936.47078,0.0131614
1935.50641,0.0131476
1934.54203,0.0131337
1933.57765,0.0131198
1932.61327,0.0131060
1931.64889,0.0130921
1930.68452,0.0130782
1929.72014,0.0130644
1928.75576,0.0130505
1927.79138,0.0130367
1926.82700,0.0130228
1925.86263,0.0130089
1924.89825,0.0129951
1923.93387,0.0129812
1922.96949,0.0129673
1922.00512,0.0129535
1921.04074,0.0129396
1920.07636,0.0129257
1919.11198,0.0129119
1918.14760,0.0128980
1917.18323,0.0128841
1916.21885,0.0128703
1915.25447,0.0128564
1914.29009,0.0128425
1913.32571,0.0128287
1912.36134,0.0128148
1911.39696,0.0128009
1910.43258,0.0127871
1909.46820,0.0127732
1908.50382,0.0127594
1907.53945,0.0127455
1906.57507,0.0127316
1905.61069,0.0127178
1904.64631,0.0127039
1903.68194,0.0126900
1902.71756,0.0126762
1901.75318,0.0126623
1900.78880,0.0126484
1899.82442,0.0126346
1898.86005,0.0126207
1897.89567,0.0126068
1896.93129,0.0125930
1895.96691,0.0125791
1895.00253,0.0125652
1894.03816,0.0125514
1893.07378,0.0125375
1892.10940,0.0125236
1891.14502,0.0125098
1890.18065,0.0124959
1889.21627,0.0124820
1888.25189,0.0124682
1887.28751,0.0124543
1886.32313,0.0124483
1885.35876,0.0124459
1884.39438,0.0124275
1883.43000,0.0123707
1882.46562,0.0123166
1881.50124,0.0123093
1880.53687,0.0122859
1879.57249,0.0122238
1878.60811,0.0121656
1877.64373,0.0121455
1876.67935,0.0121789
1875.71498,0.0122042
1874.75060,0.0122409
1873.78622,0.0123423
1872.82184,0.0124558
1871.85747,0.0125476
1870.89309,0.0126313
1869.92871,0.0127177
1868.96433,0.0127499
1867.99995,0.0126987
1867.03558,0.0126393
1866.07120,0.0126474
1865.10682,0.0127130
1864.14244,0.0127348
1863.17806,0.0127445
1862.21369,0.0127923
1861.24931,0.0128114
1860.28493,0.0128119
1859.32055,0.0128006
1858.35618,0.0127971
1857.39180,0.0127930
1856.42742,0.0127445
1855.46304,0.0127079
1854.49866,0.0127158
1853.53429,0.0127622
1852.56991,0.0128249
1851.60553,0.0129010
1850.64115,0.0129836
1849.67677,0.0130570
1848.71240,0.0131808
1847.74802,0.0133296
1846.78364,0.0134564
1845.81926,0.0135697
1844.85488,0.0136522
1843.89051,0.0136875
1842.92613,0.0136993
1841.96175,0.0137459
1840.99737,0.0138041
1840.03300,0.0138527
1839.06862,0.0138915
1838.10424,0.0139147
1837.13986,0.0139686
1836.17548,0.0140130
1835.21111,0.0140344
1834.24673,0.0140758
1833.28235,0.0141219
1832.31797,0.0141823
1831.35359,0.0142809
1830.38922,0.0144249
1829.42484,0.0145874
1828.46046,0.0147625
1827.49608,0.0149437
1826.53171,0.0151038
1825.56733,0.0152630
1824.60295,0.0153966
1823.63857,0.0154899
1822.67419,0.0155545
1821.70982,0.0155830
1820.74544,0.0156189
1819.78106,0.0156730
1818.81668,0.0157498
1817.85230,0.0158535
1816.88793,0.0159435
1815.92355,0.0160257
1814.95917,0.0161348
1813.99479,0.0162734
1813.03041,0.0164012
1812.06604,0.0165100
1811.10166,0.0166222
1810.13728,0.0167281
1809.17290,0.0168308
1808.20853,0.0169239
1807.24415,0.0170080
1806.27977,0.0170832
1805.31539,0.0171316
1804.35101,0.0171850
1803.38664,0.0172654
1802.42226,0.0173574
1801.45788,0.0174486
1800.49350,0.0175457
1799.52912,0.0176460
1798.56475,0.0177336
1797.60037,0.0178278
1796.63599,0.0179326
1795.67161,0.0180429
1794.70724,0.0181507
1793.74286,0.0182433
1792.77848,0.0183326
1791.81410,0.0184266
1790.84972,0.0185397
1789.88535,0.0186642
1788.92097,0.0187846
1787.95659,0.0189070
1786.99221,0.0190491
1786.02783,0.0192289
1785.06346,0.0194143
1784.09908,0.0196068
1783.13470,0.0198173
1782.17032,0.0200017
1781.20594,0.0201667
1780.24157,0.0203606
1779.27719,0.0205927
1778.31281,0.0208510
1777.34843,0.0211453
1776.38406,0.0214775
1775.41968,0.0218282
1774.45530,0.0221677
1773.49092,0.0224824
1772.52654,0.0228008
1771.56217,0.0231185
1770.59779,0.0234108
1769.63341,0.0237004
1768.66903,0.0240173
1767.70465,0.0243638
1766.74028,0.0247495
1765.77590,0.0251894
1764.81152,0.0256623
1763.84714,0.0261387
1762.88276,0.0266024
1761.91839,0.0270587
1760.95401,0.0275136
1759.98963,0.0279674
1759.02525,0.0284316
1758.06088,0.0288904
1757.09650,0.0293477
1756.13212,0.0298402
1755.16774,0.0303746
1754.20336,0.0309357
1753.23899,0.0315078
1752.27461,0.0320711
1751.31023,0.0325995
1750.34585,0.0330985
1749.38147,0.0335787
1748.41710,0.0340420
1747.45272,0.0344791
1746.48834,0.0348572
1745.52396,0.0352135
1744.55959,0.0356048
1743.59521,0.0359942
1742.63083,0.0363519
1741.66645,0.0366789
1740.70207,0.0369531
1739.73770,0.0371919
1738.77332,0.0374515
1737.80894,0.0377124
1736.84456,0.0379201
1735.88018,0.0380670
1734.91581,0.0381688
1733.95143,0.0382509
1732.98705,0.0383189
1732.02267,0.0383419
1731.05829,0.0383151
1730.09392,0.0382506
1729.12954,0.0381615
1728.16516,0.0380871
1727.20078,0.0380420
1726.23641,0.0379789
1725.27203,0.0378716
1724.30765,0.0377551
1723.34327,0.0376663
1722.37889,0.0376016
1721.41452,0.0375329
1720.45014,0.0374478
1719.48576,0.0373468
1718.52138,0.0372217
1717.55700,0.0370711
1716.59263,0.0368969
1715.62825,0.0367003
1714.66387,0.0364784
1713.69949,0.0362330
1712.73512,0.0359901
1711.77074,0.0357821
1710.80636,0.0356099
1709.84198,0.0354297
1708.87760,0.0352407
1707.91323,0.0350404
1706.94885,0.0347944
1705.98447,0.0345584
1705.02009,0.0343743
1704.05571,0.0341946
1703.09134,0.0339867
1702.12696,0.0337571
1701.16258,0.0335605
1700.19820,0.0334106
1699.23382,0.0332648
1698.26945,0.0331119
1697.30507,0.0329545
1696.34069,0.0327819
1695.37631,0.0326300
1694.41194,0.0325447
1693.44756,0.0325131
1692.48318,0.0324852
1691.51880,0.0324352
1690.55442,0.0324075
1689.59005,0.0324653
1688.62567,0.0325780
1687.66129,0.0326892
1686.69691,0.0327998
1685.73253,0.0329310
1684.76816,0.0330788
1683.80378,0.0332330
1682.83940,0.0333813
1681.87502,0.0335291
1680.91065,0.0336894
1679.94627,0.0338689
1678.98189,0.0340955
1678.01751,0.0343802
1677.05313,0.0346865
1676.08876,0.0349871
1675.12438,0.0352947
1674.16000,0.0356446
1673.19562,0.0360082
1672.23124,0.0363382
1671.26687,0.0366581
1670.30249,0.0369836
1669.33811,0.0373218
1668.37373,0.0376979
1667.40935,0.0381007
1666.44498,0.0385079
1665.48060,0.0389043
1664.51622,0.0392934
1663.55184,0.0396959
1662.58747,0.0401192
1661.62309,0.0405314
1660.65871,0.0409009
1659.69433,0.0412484
1658.72995,0.0416186
1657.76558,0.0420592
1656.80120,0.0425531
1655.83682,0.0430419
1654.87244,0.0434960
1653.90806,0.0439208
1652.94369,0.0443191
1651.97931,0.0446958
1651.01493,0.0450774
1650.05055,0.0454607
1649.08618,0.0458335
1648.12180,0.0462175
1647.15742,0.0466481
1646.19304,0.0471324
1645.22866,0.0476133
1644.26429,0.0480706
1643.29991,0.0485157
1642.33553,0.0489441
1641.37115,0.0493679
1640.40677,0.0498301
1639.44240,0.0503312
1638.47802,0.0508356
1637.51364,0.0513290
1636.54926,0.0518025
1635.58488,0.0522524
1634.62051,0.0526797
1633.65613,0.0530992
1632.69175,0.0535078
1631.72737,0.0538931
1630.76300,0.0542574
1629.79862,0.0546072
1628.83424,0.0549703
1627.86986,0.0553128
1626.90548,0.0556203
1625.94111,0.0559030
1624.97673,0.0561463
1624.01235,0.0563603
1623.04797,0.0565372
1622.08359,0.0567138
1621.11922,0.0568934
1620.15484,0.0570411
1619.19046,0.0571544
1618.22608,0.0572271
1617.26171,0.0572850
1616.29733,0.0573218
1615.33295,0.0573364
1614.36857,0.0573391
1613.40419,0.0573243
1612.43982,0.0573036
1611.47544,0.0572918
1610.51106,0.0573143
1609.54668,0.0573405
1608.58230,0.0573470
1607.61793,0.0573472
1606.65355,0.0573425
1605.68917,0.0573350
1604.72479,0.0573245
1603.76041,0.0573182
1602.79604,0.0573152
1601.83166,0.0573206
1600.86728,0.0573279
1599.90290,0.0573193
1598.93853,0.0572879
1597.97415,0.0572379
1597.00977,0.0571749
1596.04539,0.0570944
1595.08101,0.0569995
1594.11664,0.0568903
1593.15226,0.0567695
1592.18788,0.0566227
1591.22350,0.0564568
1590.25912,0.0562807
1589.29475,0.0560596
1588.33037,0.0557869
1587.36599,0.0554779
1586.40161,0.0551409
1585.43724,0.0547614
1584.47286,0.0543581
1583.50848,0.0539334
1582.54410,0.0534757
1581.57972,0.0530333
1580.61535,0.0525897
1579.65097,0.0521233
1578.68659,0.0516236
1577.72221,0.0510744
1576.75783,0.0504850
1575.79346,0.0498640
1574.82908,0.0492384
1573.86470,0.0485998
1572.90032,0.0479523
1571.93594,0.0472970
1570.97157,0.0466483
1570.00719,0.0460436
1569.04281,0.0454522
1568.07843,0.0448483
1567.11406,0.0442161
1566.14968,0.0435722
1565.18530,0.0429469
1564.22092,0.0423569
1563.25654,0.0418337
1562.29217,0.0413385
1561.32779,0.0408260
1560.36341,0.0403081
1559.39903,0.0398025
1558.43465,0.0393014
1557.47028,0.0387976
1556.50590,0.0382744
1555.54152,0.0377271
1554.57714,0.0371951
1553.61276,0.0366937
1552.64839,0.0362141
1551.68401,0.0357574
1550.71963,0.0353192
1549.75525,0.0348906
1548.79088,0.0344730
1547.82650,0.0340873
1546.86212,0.0337372
1545.89774,0.0333979
1544.93336,0.0330774
1543.96899,0.0328076
1543.00461,0.0325513
1542.04023,0.0322753
1541.07585,0.0319807
1540.11147,0.0316766
1539.14710,0.0313953
1538.18272,0.0311204
1537.21834,0.0308292
1536.25396,0.0305504
1535.28959,0.0302923
1534.32521,0.0300445
1533.36083,0.0298299
1532.39645,0.0296418
1531.43207,0.0294506
1530.46770,0.0292824
1529.50332,0.0291317
1528.53894,0.0289816
1527.57456,0.0288450
1526.61018,0.0287325
1525.64581,0.0286512
1524.68143,0.0285769
1523.71705,0.0284882
1522.75267,0.0283959
1521.78829,0.0283087
1520.82392,0.0282262
1519.85954,0.0281674
1518.89516,0.0281250
1517.93078,0.0280676
1516.96641,0.0280100
1516.00203,0.0279742
1515.03765,0.0279786
1514.07327,0.0280054
1513.10889,0.0280169
1512.14452,0.0280395
1511.18014,0.0281194
1510.21576,0.0282382
1509.25138,0.0283377
1508.28700,0.0284055
1507.32263,0.0284516
1506.35825,0.0284901
1505.39387,0.0285261
1504.42949,0.0285627
1503.46512,0.0286154
1502.50074,0.0286668
1501.53636,0.0287435
1500.57198,0.0288805
1499.60760,0.0290624
1498.64323,0.0292498
1497.67885,0.0294093
1496.71447,0.0295720
1495.75009,0.0297595
1494.78571,0.0299618
1493.82134,0.0301686
1492.85696,0.0303865
1491.89258,0.0306237
1490.92820,0.0308598
1489.96382,0.0311086
1488.99945,0.0313658
1488.03507,0.0316154
1487.07069,0.0318660
1486.10631,0.0321308
1485.14194,0.0324232
1484.17756,0.0327261
1483.21318,0.0330326
1482.24880,0.0333544
1481.28442,0.0337101
1480.32005,0.0340959
1479.35567,0.0344927
1478.39129,0.0349034
1477.42691,0.0353280
1476.46253,0.0357724
1475.49816,0.0362226
1474.53378,0.0366735
1473.56940,0.0371344
1472.60502,0.0375956
1471.64065,0.0380463
1470.67627,0.0384992
1469.71189,0.0389762
1468.74751,0.0394438
1467.78313,0.0399003
1466.81876,0.0403523
1465.85438,0.0407865
1464.89000,0.0412172
1463.92562,0.0416148
1462.96124,0.0420039
1461.99687,0.0424440
1461.03249,0.0429134
1460.06811,0.0433795
1459.10373,0.0438458
1458.13935,0.0443097
1457.17498,0.0447499
1456.21060,0.0451865
1455.24622,0.0455913
1454.28184,0.0459409
1453.31747,0.0462684
1452.35309,0.0465692
1451.38871,0.0468741
1450.42433,0.0472108
1449.45995,0.0475586
1448.49558,0.0479077
1447.53120,0.0482670
1446.56682,0.0486450
1445.60244,0.0490343
1444.63806,0.0494327
1443.67369,0.0498108
1442.70931,0.0501725
1441.74493,0.0505588
1440.78055,0.0509473
1439.81618,0.0513135
1438.85180,0.0516707
1437.88742,0.0520267
1436.92304,0.0523699
1435.95866,0.0527063
1434.99429,0.0530477
1434.02991,0.0533732
1433.06553,0.0536779
1432.10115,0.0539779
1431.13677,0.0542825
1430.17240,0.0546042
1429.20802,0.0549272
1428.24364,0.0552373
1427.27926,0.0555461
1426.31488,0.0558430
1425.35051,0.0561292
1424.38613,0.0564304
1423.42175,0.0567546
1422.45737,0.0570798
1421.49300,0.0573841
1420.52862,0.0576809
1419.56424,0.0579661
1418.59986,0.0582206
1417.63548,0.0584511
1416.67111,0.0586646
1415.70673,0.0588465
1414.74235,0.0589920
1413.77797,0.0591308
1412.81359,0.0592788
1411.84922,0.0594338
1410.88484,0.0595896
1409.92046,0.0597475
1408.95608,0.0599188
1407.99171,0.0600896
1407.02733,0.0602482
1406.06295,0.0603969
1405.09857,0.0605449
1404.13419,0.0606921
1403.16982,0.0608247
1402.20544,0.0609316
1401.24106,0.0610042
1400.27668,0.0610658
1399.31230,0.0611389
1398.34793,0.0612216
1397.38355,0.0612958
1396.41917,0.0613513
1395.45479,0.0614035
1394.49041,0.0614511
1393.52604,0.0615046
1392.56166,0.0615744
1391.59728,0.0616383
1390.63290,0.0616804
1389.66853,0.0616976
1388.70415,0.0617119
1387.73977,0.0617380
1386.77539,0.0617529
1385.81101,0.0617403
1384.84664,0.0617113
1383.88226,0.0616811
1382.91788,0.0616428
1381.95350,0.0616016
1380.98912,0.0615761
1380.02475,0.0615603
1379.06037,0.0615473
1378.09599,0.0615305
1377.13161,0.0615029
1376.16724,0.0614757
1375.20286,0.0614469
1374.23848,0.0614052
1373.27410,0.0613480
1372.30972,0.0612695
1371.34535,0.0611785
1370.38097,0.0610932
1369.41659,0.0610083
1368.45221,0.0609112
1367.48783,0.0608106
1366.52346,0.0607078
1365.55908,0.0605957
1364.59470,0.0604788
1363.63032,0.0603620
1362.66594,0.0602467
1361.70157,0.0601144
1360.73719,0.0599677
1359.77281,0.0598277
1358.80843,0.0596795
1357.84406,0.0595255
1356.87968,0.0593807
1355.91530,0.0592359
1354.95092,0.0590818
1353.98654,0.0589109
1353.02217,0.0587194
1352.05779,0.0585134
1351.09341,0.0582919
1350.12903,0.0580488
1349.16465,0.0578025
1348.20028,0.0575581
1347.23590,0.0573114
1346.27152,0.0570866
1345.30714,0.0568740
1344.34276,0.0566583
1343.37839,0.0564595
1342.41401,0.0562813
1341.44963,0.0561076
1340.48525,0.0559282
1339.52088,0.0557545
1338.55650,0.0555924
1337.59212,0.0554292
1336.62774,0.0552586
1335.66336,0.0550880
1334.69899,0.0549274
1333.73461,0.0547664
1332.77023,0.0546031
1331.80585,0.0544573
1330.84147,0.0543329
1329.87710,0.0542171
1328.91272,0.0541036
1327.94834,0.0539922
1326.98396,0.0538805
1326.01959,0.0537683
1325.05521,0.0536579
1324.09083,0.0535566
1323.12645,0.0534650
1322.16207,0.0533710
1321.19770,0.0532790
1320.23332,0.0531960
1319.26894,0.0531174
1318.30456,0.0530394
1317.34018,0.0529577
1316.37581,0.0528730
1315.41143,0.0527855
1314.44705,0.0526938
1313.48267,0.0526071
1312.51829,0.0525380
1311.55392,0.0524778
1310.58954,0.0524215
1309.62516,0.0523718
1308.66078,0.0523096
1307.69641,0.0522376
1306.73203,0.0521711
1305.76765,0.0521096
1304.80327,0.0520486
1303.83889,0.0519736
1302.87452,0.0518942
1301.91014,0.0518352
1300.94576,0.0518010
1299.98138,0.0517727
1299.01700,0.0517393
1298.05263,0.0517175
1297.08825,0.0516979
1296.12387,0.0516702
1295.15949,0.0516538
1294.19512,0.0516481
1293.23074,0.0516358
1292.26636,0.0516126
1291.30198,0.0515931
1290.33760,0.0515855
1289.37323,0.0515823
1288.40885,0.0515822
1287.44447,0.0516030
1286.48009,0.0516508
1285.51571,0.0516919
1284.55134,0.0517235
1283.58696,0.0517709
1282.62258,0.0518166
1281.65820,0.0518436
1280.69382,0.0518693
1279.72945,0.0519044
1278.76507,0.0519341
1277.80069,0.0519564
1276.83631,0.0519955
1275.87194,0.0520578
1274.90756,0.0521222
1273.94318,0.0521724
1272.97880,0.0522159
1272.01442,0.0522708
1271.05005,0.0523354
1270.08567,0.0523946
1269.12129,0.0524561
1268.15691,0.0525252
1267.19253,0.0525844
1266.22816,0.0526380
1265.26378,0.0527002
1264.29940,0.0527735
1263.33502,0.0528522
1262.37065,0.0529215
1261.40627,0.0529895
1260.44189,0.0530716
1259.47751,0.0531495
1258.51313,0.0532113
1257.54876,0.0532701
1256.58438,0.0533238
1255.62000,0.0533628
1254.65562,0.0533906
1253.69124,0.0534158
1252.72687,0.0534513
1251.76249,0.0534963
1250.79811,0.0535381
1249.83373,0.0535772
1248.86935,0.0536144
1247.90498,0.0536478
1246.94060,0.0536812
1245.97622,0.0537131
1245.01184,0.0537324
1244.04747,0.0537362
1243.08309,0.0537364
1242.11871,0.0537401
1241.15433,0.0537488
1240.18995,0.0537587
1239.22558,0.0537553
1238.26120,0.0537354
1237.29682,0.0537115
1236.33244,0.0536869
1235.36806,0.0536531
1234.40369,0.0536106
1233.43931,0.0535683
1232.47493,0.0535263
1231.51055,0.0534794
1230.54618,0.0534338
1229.58180,0.0533903
1228.61742,0.0533333
1227.65304,0.0532685
1226.68866,0.0532033
1225.72429,0.0531350
1224.75991,0.0530622
1223.79553,0.0529748
1222.83115,0.0528848
1221.86677,0.0527943
1220.90240,0.0526861
1219.93802,0.0525640
1218.97364,0.0524403
1218.00926,0.0523205
1217.04488,0.0521987
1216.08051,0.0520746
1215.11613,0.0519400
1214.15175,0.0517916
1213.18737,0.0516399
1212.22300,0.0514921
1211.25862,0.0513649
1210.29424,0.0512472
1209.32986,0.0511365
1208.36548,0.0510461
1207.40111,0.0509652
1206.43673,0.0508976
1205.47235,0.0508316
1204.50797,0.0507451
1203.54359,0.0506360
1202.57922,0.0505176
1201.61484,0.0504070
1200.65046,0.0503053
1199.68608,0.0502120
1198.72171,0.0501215
1197.75733,0.0500431
1196.79295,0.0499814
1195.82857,0.0499250
1194.86419,0.0498763
1193.89982,0.0498274
1192.93544,0.0497733
1191.97106,0.0497208
1191.00668,0.0496795
1190.04230,0.0496440
1189.07793,0.0496058
1188.11355,0.0495819
1187.14917,0.0495827
1186.18479,0.0496066
1185.22041,0.0496359
1184.25604,0.0496687
1183.29166,0.0497235
1182.32728,0.0497975
1181.36290,0.0498808
1180.39853,0.0499658
1179.43415,0.0500498
1178.46977,0.0501238
1177.50539,0.0501923
1176.54101,0.0502685
1175.57664,0.0503508
1174.61226,0.0504428
1173.64788,0.0505402
1172.68350,0.0506443
1171.71912,0.0507543
1170.75475,0.0508733
1169.79037,0.0509966
1168.82599,0.0511034
1167.86161,0.0512110
1166.89724,0.0513184
1165.93286,0.0514240
1164.96848,0.0515404
1164.00410,0.0516518
1163.03972,0.0517602
1162.07535,0.0518688
1161.11097,0.0519711
1160.14659,0.0520630
1159.18221,0.0521427
1158.21783,0.0522057
1157.25346,0.0522566
1156.28908,0.0523227
1155.32470,0.0524072
1154.36032,0.0525222
1153.39594,0.0526646
1152.43157,0.0528091
1151.46719,0.0529715
1150.50281,0.0531562
1149.53843,0.0533554
1148.57406,0.0535506
1147.60968,0.0537232
1146.64530,0.0538843
1145.68092,0.0540448
1144.71654,0.0542133
1143.75217,0.0543956
1142.78779,0.0545980
1141.82341,0.0548072
1140.85903,0.0550192
1139.89465,0.0552486
1138.93028,0.0554794
1137.96590,0.0557103
1137.00152,0.0559485
1136.03714,0.0562105
1135.07276,0.0565077
1134.10839,0.0568116
1133.14401,0.0571193
1132.17963,0.0574402
1131.21525,0.0577646
1130.25088,0.0580815
1129.28650,0.0583855
1128.32212,0.0586846
1127.35774,0.0589829
1126.39336,0.0592723
1125.42899,0.0595481
1124.46461,0.0598435
1123.50023,0.0601596
1122.53585,0.0604499
1121.57147,0.0607324
1120.60710,0.0610262
1119.64272,0.0613002
1118.67834,0.0615574
1117.71396,0.0618066
1116.74959,0.0620415
1115.78521,0.0622656
1114.82083,0.0624613
1113.85645,0.0626299
1112.89207,0.0628091
1111.92770,0.0630023
1110.96332,0.0631940
1109.99894,0.0633797
1109.03456,0.0635605
1108.07018,0.0637508
1107.10581,0.0639512
1106.14143,0.0641414
1105.17705,0.0643157
1104.21267,0.0644816
1103.24829,0.0646454
1102.28392,0.0648086
1101.31954,0.0649663
1100.35516,0.0651257
1099.39078,0.0652958
1098.42641,0.0654770
1097.46203,0.0656949
1096.49765,0.0659611
1095.53327,0.0662314
1094.56889,0.0664870
1093.60452,0.0667428
1092.64014,0.0669902
1091.67576,0.0672358
1090.71138,0.0674788
1089.74700,0.0677038
1088.78263,0.0679334
1087.81825,0.0681890
1086.85387,0.0684784
1085.88949,0.0687935
1084.92512,0.0691057
1083.96074,0.0693992
1082.99636,0.0696903
1082.03198,0.0699890
1081.06760,0.0702727
1080.10323,0.0705558
1079.13885,0.0708439
1078.17447,0.0711082
1077.21009,0.0713669
1076.24571,0.0716429
1075.28134,0.0719346
1074.31696,0.0722161
1073.35258,0.0724571
1072.38820,0.0726813
1071.42382,0.0729279
1070.45945,0.0731720
1069.49507,0.0733780
1068.53069,0.0735635
1067.56631,0.0737236
1066.60194,0.0738451
1065.63756,0.0739493
1064.67318,0.0740427
1063.70880,0.0741004
1062.74442,0.0741009
1061.78005,0.0740534
1060.81567,0.0739681
1059.85129,0.0738600
1058.88691,0.0737135
1057.92253,0.0735075
1056.95816,0.0732717
1055.99378,0.0729996
1055.02940,0.0726774
1054.06502,0.0723134
1053.10065,0.0718988
1052.13627,0.0714259
1051.17189,0.0709105
1050.20751,0.0703719
1049.24313,0.0698020
1048.27876,0.0692160
1047.31438,0.0686163
1046.35000,0.0680015
1045.38562,0.0673942
1044.42124,0.0667769
1043.45687,0.0661440
1042.49249,0.0654938
1041.52811,0.0648328
1040.56373,0.0641806
1039.59935,0.0635347
1038.63498,0.0629022
1037.67060,0.0622859
1036.70622,0.0616975
1035.74184,0.0611407
1034.77747,0.0606054
1033.81309,0.0600849
1032.84871,0.0595724
1031.88433,0.0590773
1030.91995,0.0585945
1029.95558,0.0581324
1028.99120,0.0576790
1028.02682,0.0572074
1027.06244,0.0567367
1026.09806,0.0562667
1025.13369,0.0557929
1024.16931,0.0553164
1023.20493,0.0548438
1022.24055,0.0543819
1021.27618,0.0539323
1020.31180,0.0535135
1019.34742,0.0531118
1018.38304,0.0527156
1017.41866,0.0523075
1016.45429,0.0518764
1015.48991,0.0514687
1014.52553,0.0510845
1013.56115,0.0506876
1012.59677,0.0502796
1011.63240,0.0498831
1010.66802,0.0495171
1009.70364,0.0491838
1008.73926,0.0488759
1007.77488,0.0485785
1006.81051,0.0482904
1005.84613,0.0480101
1004.88175,0.0477465
1003.91737,0.0475365
1002.95300,0.0473558
1001.98862,0.0471352
1001.02424,0.0468883
1000.05986,0.0466643
999.09548,0.0464527
998.13111,0.0462384
997.16673,0.0460358
996.20235,0.0458486
995.23797,0.0456719
994.27359,0.0455085
993.30922,0.0453507
992.34484,0.0452012
991.38046,0.0450475
990.41608,0.0448484
989.45171,0.0446479
988.48733,0.0444671
987.52295,0.0442549
986.55857,0.0440345
985.59419,0.0438305
984.62982,0.0436418
983.66544,0.0434489
982.70106,0.0432289
981.73668,0.0430208
980.77230,0.0428389
979.80793,0.0426578
978.84355,0.0424657
977.87917,0.0422829
976.91479,0.0420985
975.95041,0.0418788
974.98604,0.0416518
974.02166,0.0414329
973.05728,0.0412245
972.09290,0.0410201
971.12853,0.0408207
970.16415,0.0406708
969.19977,0.0405588
968.23539,0.0404638
967.27101,0.0403838
966.30664,0.0402820
965.34226,0.0401257
964.37788,0.0399265
963.41350,0.0397096
962.44912,0.0394736
961.48475,0.0392289
960.52037,0.0389793
959.55599,0.0387319
958.59161,0.0385077
957.62724,0.0383047
956.66286,0.0381359
955.69848,0.0380053
954.73410,0.0378821
953.76972,0.0377404
952.80535,0.0375847
951.84097,0.0374296
950.87659,0.0372944
949.91221,0.0371862
948.94783,0.0370689
947.98346,0.0369431
947.01908,0.0368290
946.05470,0.0367147
945.09032,0.0365912
944.12594,0.0364769
943.16157,0.0363916
942.19719,0.0362894
941.23281,0.0361594
940.26843,0.0360490
939.30406,0.0359598
938.33968,0.0358781
937.37530,0.0357863
936.41092,0.0356831
935.44654,0.0355717
934.48217,0.0354439
933.51779,0.0353172
932.55341,0.0352084
931.58903,0.0351093
930.62465,0.0349963
929.66028,0.0348644
928.69590,0.0347187
927.73152,0.0345708
926.76714,0.0344327
925.80276,0.0342658
924.83839,0.0340545
923.87401,0.0338430
922.90963,0.0336741
921.94525,0.0335496
920.98088,0.0334360
920.01650,0.0333253
919.05212,0.0332291
918.08774,0.0331162
917.12336,0.0329533
916.15899,0.0327686
915.19461,0.0325801
914.23023,0.0323739
913.26585,0.0321832
912.30147,0.0320457
911.33710,0.0319600
910.37272,0.0319155
909.40834,0.0318806
908.44396,0.0318361
907.47959,0.0318023
906.51521,0.0317471
905.55083,0.0316359
904.58645,0.0315139
903.62207,0.0314039
902.65770,0.0313155
901.69332,0.0312577
900.72894,0.0311973
899.76456,0.0311288
898.80018,0.0310683
897.83581,0.0310141
896.87143,0.0309817
895.90705,0.0309886
894.94267,0.0310080
893.97829,0.0310271
893.01392,0.0310397
892.04954,0.0310268
891.08516,0.0310205
890.12078,0.0310217
889.15641,0.0309856
888.19203,0.0309092
887.22765,0.0308430
886.26327,0.0308042
885.29889,0.0307632
884.33452,0.0307435
883.37014,0.0307387
882.40576,0.0307204
881.44138,0.0306680
880.47700,0.0305816
879.51263,0.0305401
878.54825,0.0305358
877.58387,0.0305310
876.61949,0.0305437
875.65512,0.0305554
874.69074,0.0305448
873.72636,0.0305223
872.76198,0.0305284
871.79760,0.0305333
870.83323,0.0304918
869.86885,0.0304140
868.90447,0.0303308
867.94009,0.0302947
866.97571,0.0302951
866.01134,0.0303273
865.04696,0.0303860
864.08258,0.0304172
863.11820,0.0304414
862.15382,0.0304957
861.18945,0.0305759
860.22507,0.0306658
859.26069,0.0307231
858.29631,0.0307358
857.33194,0.0307523
856.36756,0.0307883
855.40318,0.0308422
854.43880,0.0309117
853.47442,0.0309615
852.51005,0.0309972
851.54567,0.0310321
850.58129,0.0310615
849.61691,0.0310872
848.65253,0.0311047
847.68816,0.0311005
846.72378,0.0310632
845.75940,0.0310452
844.79502,0.0310590
843.83065,0.0310655
842.86627,0.0310731
841.90189,0.0310856
840.93751,0.0311092
839.97313,0.0311375
839.00876,0.0311627
838.04438,0.0311942
837.08000,0.0312232
836.11562,0.0312355
835.15124,0.0312237
834.18687,0.0312190
833.22249,0.0312241
832.25811,0.0312140
831.29373,0.0312169
830.32935,0.0312467
829.36498,0.0312929
828.40060,0.0313423
827.43622,0.0313680
826.47184,0.0313683
825.50747,0.0313491
824.54309,0.0313136
823.57871,0.0312827
822.61433,0.0312424
821.64995,0.0311933
820.68558,0.0311668
819.72120,0.0311490
818.75682,0.0311371
817.79244,0.0311330
816.82806,0.0311118
815.86369,0.0310630
814.89931,0.0310026
813.93493,0.0309488
812.97055,0.0308914
812.00618,0.0308115
811.04180,0.0307110
810.07742,0.0306439
809.11304,0.0306161
808.14866,0.0305945
807.18429,0.0306190
806.21991,0.0306764
805.25553,0.0307177
804.29115,0.0307508
803.32677,0.0307867
802.36240,0.0308072
801.39802,0.0307919
800.43364,0.0307490
799.46926,0.0306966
798.50488,0.0306602
797.54051,0.0306279
796.57613,0.0305901
795.61175,0.0305662
794.64737,0.0305498
793.68300,0.0305530
792.71862,0.0305830
791.75424,0.0306183
790.78986,0.0306459
789.82548,0.0306922
788.86111,0.0307352
787.89673,0.0307568
786.93235,0.0308249
785.96797,0.0308700
785.00359,0.0308320
784.03922,0.0307809
783.07484,0.0307621
782.11046,0.0307876
781.14608,0.0307815
780.18171,0.0307165
779.21733,0.0306582
778.25295,0.0306234
777.28857,0.0305846
776.32419,0.0305904
775.35982,0.0306799
774.39544,0.0307466
773.43106,0.0308088
772.46668,0.0309177
771.50230,0.0310180
770.53793,0.0310918
769.57355,0.0311015
768.60917,0.0311035
767.64479,0.0311358
766.68041,0.0311398
765.71604,0.0311514
764.75166,0.0312001
763.78728,0.0312336
762.82290,0.0312412
761.85853,0.0312760
760.89415,0.0313046
759.92977,0.0313044
758.96539,0.0313069
758.00101,0.0313013
757.03664,0.0313161
756.07226,0.0313340
755.10788,0.0313569
754.14350,0.0314575
753.17912,0.0315931
752.21475,0.0316840
751.25037,0.0317574
750.28599,0.0318526
749.32161,0.0319337
748.35724,0.0319935
747.39286,0.0320561
746.42848,0.0321130
745.46410,0.0321228
744.49972,0.0321016
743.53535,0.0321463
742.57097,0.0322548
741.60659,0.0323511
740.64221,0.0323921
739.67783,0.0323909
738.71346,0.0323635
737.74908,0.0323282
736.78470,0.0323444
735.82032,0.0324121
734.85594,0.0325110
733.89157,0.0325875
732.92719,0.0326489
731.96281,0.0327798
730.99843,0.0329230
730.03406,0.0330396
729.06968,0.0331419
728.10530,0.0332030
727.14092,0.0332346
726.17654,0.0332933
725.21217,0.0333800
724.24779,0.0334390
723.28341,0.0335110
722.31903,0.0335952
721.35465,0.0336533
720.39028,0.0337189
719.42590,0.0337782
718.46152,0.0338529
717.49714,0.0339530
716.53276,0.0340337
715.56839,0.0341127
714.60401,0.0342011
713.63963,0.0342703
712.67525,0.0343262
711.71088,0.0344096
710.74650,0.0345076
709.78212,0.0345734
708.81774,0.0345931
707.85336,0.0345888
706.88899,0.0346115
705.92461,0.0346616
704.96023,0.0347221
703.99585,0.0348167
703.03147,0.0349222
702.06710,0.0350091
701.10272,0.0351055
700.13834,0.0352168
699.17396,0.0353140
698.20959,0.0353633
697.24521,0.0353342
696.28083,0.0352664
695.31645,0.0352347
694.35207,0.0352453
693.38770,0.0352878
692.42332,0.0353632
691.45894,0.0354473
690.49456,0.0355354
689.53018,0.0356439
688.56581,0.0357717
687.60143,0.0359063
686.63705,0.0360250
685.67267,0.0360976
684.70829,0.0361326
683.74392,0.0361782
682.77954,0.0362440
681.81516,0.0363100
680.85078,0.0363546
679.88641,0.0363798
678.92203,0.0364175
677.95765,0.0364749
676.99327,0.0365637
676.02889,0.0366751
675.06452,0.0367601
674.10014,0.0368012
673.13576,0.0368378
672.17138,0.0369252
671.20700,0.0370480
670.24263,0.0371501
669.27825,0.0372043
668.31387,0.0372202
667.34949,0.0372112
666.38512,0.0371811
665.42074,0.0371549
664.45636,0.0371185
663.49198,0.0370627
662.52760,0.0370487
661.56323,0.0371101
660.59885,0.0372345
659.63447,0.0373746
658.67009,0.0374849
657.70571,0.0375704
656.74134,0.0376329
655.77696,0.0376386
654.81258,0.0376106
653.84820,0.0376224
652.88382,0.0376732
651.91945,0.0377402
650.95507,0.0378399
649.99069,0.0379605
649.02631,0.0380921
648.06194,0.0382186
647.09756,0.0382935
646.13318,0.0383309
645.16880,0.0383646
644.20442,0.0383678
643.24005,0.0383639
642.27567,0.0384270
641.31129,0.0385405
640.34691,0.0386548
639.38253,0.0387903
638.41816,0.0389247
637.45378,0.0390135
636.48940,0.0390900
635.52502,0.0391509
634.56065,0.0391997
633.59627,0.0392459
632.63189,0.0392220
631.66751,0.0391691
630.70313,0.0391369
629.73876,0.0391222
628.77438,0.0390704
627.81000,0.0390089
626.84562,0.0388166
625.88124,0.0380220
624.91687,0.0371279
623.95249,0.0362759
622.98811,0.0356030
622.02373,0.0355945
621.05935,0.0353501
620.09498,0.0348706
619.13060,0.0348714
618.16622,0.0352981
617.20184,0.0357312
616.23747,0.0355416
615.27309,0.0349783
614.30871,0.0343874
613.34433,0.0342265
612.37995,0.0341177
611.41558,0.0341922
610.45120,0.0349798
609.48682,0.0353810
608.52244,0.0356144
607.55806,0.0364181
606.59369,0.0372438
605.62931,0.0375470
604.66493,0.0373221
603.70055,0.0374330
602.73618,0.0379527
601.77180,0.0383680
600.80742,0.0385553
599.84304,0.0388124
598.87866,0.0393946
597.91429,0.0397987
596.94991,0.0399482
595.98553,0.0401492
595.02115,0.0401619
594.05677,0.0400164
593.09240,0.0400110
592.12802,0.0400630
591.16364,0.0399947
590.19926,0.0398829
589.23488,0.0398728
588.27051,0.0399599
587.30613,0.0400577
586.34175,0.0401243
585.37737,0.0402189
584.41300,0.0402856
583.44862,0.0402392
582.48424,0.0402948
581.51986,0.0405013
580.55548,0.0406416
579.59111,0.0407029
578.62673,0.0407576
577.66235,0.0408014
576.69797,0.0407839
575.73359,0.0406925
574.76922,0.0406218
573.80484,0.0406480
572.84046,0.0406646
571.87608,0.0406424
570.91171,0.0407678
569.94733,0.0409985
568.98295,0.0411958
568.01857,0.0413528
567.05419,0.0414447
566.08982,0.0414488
565.12544,0.0413599
564.16106,0.0412499
563.19668,0.0411491
562.23230,0.0410645
561.26793,0.0409981
560.30355,0.0408932
559.33917,0.0408258
558.37479,0.0408338
557.41041,0.0408311
556.44604,0.0407162
555.48166,0.0405166
554.51728,0.0403855
553.55290,0.0403459
552.58853,0.0403664
551.62415,0.0403667
550.65977,0.0403459
549.69539,0.0403549
548.73101,0.0402856
547.76664,0.0402273
546.80226,0.0402875
545.83788,0.0403040
544.87350,0.0402016
543.90912,0.0401258
542.94475,0.0402145
541.98037,0.0403667
541.01599,0.0404643
540.05161,0.0405333
539.08724,0.0405878
538.12286,0.0406072
537.15848,0.0405745
536.19410,0.0405677
535.22972,0.0406177
534.26535,0.0406563
533.30097,0.0406846
532.33659,0.0406723
531.37221,0.0406075
530.40783,0.0405216
529.44346,0.0404118
528.47908,0.0403216
527.51470,0.0402210
526.55032,0.0400476
525.58594,0.0398884
524.62157,0.0398667
523.65719,0.0399753
522.69281,0.0400916
521.72843,0.0401397
520.76406,0.0401501
519.79968,0.0402063
518.83530,0.0403303
517.87092,0.0404200
516.90654,0.0403916
515.94217,0.0402736
514.97779,0.0401517
514.01341,0.0400684
513.04903,0.0399931
512.08465,0.0399086
511.12028,0.0398695
510.15590,0.0399246
509.19152,0.0400575
508.22714,0.0401771
507.26276,0.0401949
506.29839,0.0402070
505.33401,0.0402666
504.36963,0.0402805
503.40525,0.0402284
502.44088,0.0401009
501.47650,0.0399451
500.51212,0.0398414
499.54774,0.0398618
498.58336,0.0399982
497.61899,0.0400501
496.65461,0.0399327
495.69023,0.0397485
494.72585,0.0396674
493.76147,0.0396844
492.79710,0.0396165
491.83272,0.0395040
490.86834,0.0394393
489.90396,0.0394224
488.93959,0.0394779
487.97521,0.0396387
487.01083,0.0398153
486.04645,0.0398746
485.08207,0.0398628
484.11770,0.0397868
483.15332,0.0396828
482.18894,0.0395926
481.22456,0.0394540
480.26018,0.0392989
479.29581,0.0391392
478.33143,0.0390586
477.36705,0.0391440
476.40267,0.0393201
475.43829,0.0394558
474.47392,0.0394876
473.50954,0.0394746
472.54516,0.0393901
471.58078,0.0392743
470.61641,0.0392028
469.65203,0.0391401
468.68765,0.0391401
467.72327,0.0392360
466.75889,0.0393991
465.79452,0.0395694
464.83014,0.0397011
463.86576,0.0397383
462.90138,0.0396085
461.93700,0.0394431
460.97263,0.0393674
460.00825,0.0393831
459.04387,0.0394570
458.07949,0.0394957
457.11512,0.0395315
456.15074,0.0395996
455.18636,0.0396349
454.22198,0.0396703
453.25760,0.0396443
452.29323,0.0394726
451.32885,0.0392402
450.36447,0.0390302
449.40009,0.0389384
448.43571,0.0389426
447.47134,0.0389142
446.50696,0.0388239
445.54258,0.0387290
444.57820,0.0387131
443.61382,0.0387320
442.64945,0.0387499
441.68507,0.0387263
440.72069,0.0386116
439.75631,0.0384974
438.79194,0.0383812
437.82756,0.0382935
436.86318,0.0383116
435.89880,0.0383685
434.93442,0.0384017
433.97005,0.0384123
433.00567,0.0384376
432.04129,0.0384249
431.07691,0.0383355
430.11253,0.0382120
429.14816,0.0380480
428.18378,0.0378701
427.21940,0.0376914
426.25502,0.0375370
425.29065,0.0374632
424.32627,0.0374336
423.36189,0.0373963
422.39751,0.0373335
421.43313,0.0372646
420.46876,0.0371713
419.50438,0.0370157
418.54000,0.0368619
417.57562,0.0367020
416.61124,0.0365039
415.64687,0.0363516
414.68249,0.0362732
413.71811,0.0362572
412.75373,0.0362855
411.78935,0.0363029
410.82498,0.0362909
409.86060,0.0362589
408.89622,0.0361782
407.93184,0.0360590
406.96747,0.0359575
406.00309,0.0357930
405.03871,0.0355330
404.07433,0.0355330
403.10995,0.0355330
402.14558,0.0355330
401.18120,0.0355330
400.21682,0.0355330
399.25244,0.0355330
