3998.31069,0.0236249
3997.34631,0.0236249
3996.38194,0.0236249
3995.41756,0.0236249
3994.45318,0.0236249
3993.48880,0.0236249
3992.52442,0.0236249
3991.56005,0.0237619
3990.59567,0.0238731
3989.63129,0.0239214
3988.66691,0.0239056
3987.70253,0.0238519
3986.73816,0.0238148
3985.77378,0.0238078
3984.80940,0.0237712
3983.84502,0.0236459
3982.88065,0.0235451
3981.91627,0.0235236
3980.95189,0.0235197
3979.98751,0.0235716
3979.02313,0.0236712
3978.05876,0.0237468
3977.09438,0.0238237
3976.13000,0.0239221
3975.16562,0.0239689
3974.20124,0.0239759
3973.23687,0.0239305
3972.27249,0.0237859
3971.30811,0.0236393
3970.34373,0.0235171
3969.37935,0.0234204
3968.41498,0.0233596
3967.45060,0.0232896
3966.48622,0.0232096
3965.52184,0.0231428
3964.55747,0.0231305
3963.59309,0.0231341
3962.62871,0.0231379
3961.66433,0.0231487
3960.69995,0.0230915
3959.73558,0.0230169
3958.77120,0.0230534
3957.80682,0.0231894
3956.84244,0.0232911
3955.87806,0.0233660
3954.91369,0.0234692
3953.94931,0.0235484
3952.98493,0.0236239
3952.02055,0.0236632
3951.05618,0.0236416
3950.09180,0.0236017
3949.12742,0.0235169
3948.16304,0.0234444
3947.19866,0.0234639
3946.23429,0.0234991
3945.26991,0.0234728
3944.30553,0.0234964
3943.34115,0.0235954
3942.37677,0.0236223
3941.41240,0.0235649
3940.44802,0.0234840
3939.48364,0.0234544
3938.51926,0.0234902
3937.55488,0.0234877
3936.59051,0.0234456
3935.62613,0.0234378
3934.66175,0.0234842
3933.69737,0.0235592
3932.73300,0.0236543
3931.76862,0.0237194
3930.80424,0.0236828
3929.83986,0.0236325
3928.87548,0.0236287
3927.91111,0.0236353
3926.94673,0.0236271
3925.98235,0.0235650
3925.01797,0.0235042
3924.05359,0.0234879
3923.08922,0.0234986
3922.12484,0.0235429
3921.16046,0.0235993
3920.19608,0.0236554
3919.23171,0.0237261
3918.26733,0.0238670
3917.30295,0.0240375
3916.33857,0.0241171
3915.37419,0.0240959
3914.40982,0.0240268
3913.44544,0.0239586
3912.48106,0.0238481
3911.51668,0.0236979
3910.55230,0.0235846
3909.58793,0.0235003
3908.62355,0.0234567
3907.65917,0.0234650
3906.69479,0.0235016
3905.73041,0.0234940
3904.76604,0.0234297
3903.80166,0.0233763
3902.83728,0.0233439
3901.87290,0.0233692
3900.90853,0.0233893
3899.94415,0.0233569
3898.97977,0.0233688
3898.01539,0.0234380
3897.05101,0.0235104
3896.08664,0.0235264
3895.12226,0.0234704
3894.15788,0.0233803
3893.19350,0.0233517
3892.22912,0.0233846
3891.26475,0.0233641
3890.30037,0.0233263
3889.33599,0.0233016
3888.37161,0.0232844
3887.40724,0.0233145
3886.44286,0.0233472
3885.47848,0.0233163
3884.51410,0.0232413
3883.54972,0.0231964
3882.58535,0.0231988
3881.62097,0.0232160
3880.65659,0.0231802
3879.69221,0.0230954
3878.72783,0.0230596
3877.76346,0.0230721
3876.79908,0.0231147
3875.83470,0.0232049
3874.87032,0.0232841
3873.90594,0.0232830
3872.94157,0.0232674
3871.97719,0.0233082
3871.01281,0.0233428
3870.04843,0.0233114
3869.08406,0.0232398
3868.11968,0.0232296
3867.15530,0.0232685
3866.19092,0.0232802
3865.22654,0.0233240
3864.26217,0.0234084
3863.29779,0.0234584
3862.33341,0.0234505
3861.36903,0.0234520
3860.40465,0.0234897
3859.44028,0.0234960
3858.47590,0.0234956
3857.51152,0.0235156
3856.54714,0.0234954
3855.58276,0.0234286
3854.61839,0.0233706
3853.65401,0.0233258
3852.68963,0.0232991
3851.72525,0.0233146
3850.76088,0.0233196
3849.79650,0.0232976
3848.83212,0.0232569
3847.86774,0.0231949
3846.90336,0.0231541
3845.93899,0.0230975
3844.97461,0.0229973
3844.01023,0.0229421
3843.04585,0.0229424
3842.08147,0.0229616
3841.11710,0.0230366
3840.15272,0.0231127
3839.18834,0.0231066
3838.22396,0.0230419
3837.25959,0.0229496
3836.29521,0.0228597
3835.33083,0.0227698
3834.36645,0.0226738
3833.40207,0.0225948
3832.43770,0.0225525
3831.47332,0.0225568
3830.50894,0.0225716
3829.54456,0.0225901
3828.58018,0.0226183
3827.61581,0.0226466
3826.65143,0.0226809
3825.68705,0.0227144
3824.72267,0.0227376
3823.75829,0.0227330
3822.79392,0.0227146
3821.82954,0.0226886
3820.86516,0.0226695
3819.90078,0.0226536
3818.93641,0.0225911
3817.97203,0.0225625
3817.00765,0.0226077
3816.04327,0.0226747
3815.07889,0.0227836
3814.11452,0.0229061
3813.15014,0.0229907
3812.18576,0.0230138
3811.22138,0.0229722
3810.25700,0.0228873
3809.29263,0.0227656
3808.32825,0.0226096
3807.36387,0.0224631
3806.39949,0.0223990
3805.43512,0.0223933
3804.47074,0.0224281
3803.50636,0.0225474
3802.54198,0.0226845
3801.57760,0.0227593
3800.61323,0.0227895
3799.64885,0.0228013
3798.68447,0.0227977
3797.72009,0.0227577
3796.75571,0.0226641
3795.79134,0.0225566
3794.82696,0.0224943
3793.86258,0.0224758
3792.89820,0.0224886
3791.93382,0.0225344
3790.96945,0.0225662
3790.00507,0.0225456
3789.04069,0.0225076
3788.07631,0.0224568
3787.11194,0.0224004
3786.14756,0.0223559
3785.18318,0.0222701
3784.21880,0.0221649
3783.25442,0.0221150
3782.29005,0.0221264
3781.32567,0.0221909
3780.36129,0.0222885
3779.39691,0.0223869
3778.43253,0.0224628
3777.46816,0.0224941
3776.50378,0.0224479
3775.53940,0.0223918
3774.57502,0.0224180
3773.61065,0.0224552
3772.64627,0.0224720
3771.68189,0.0224939
3770.71751,0.0225189
3769.75313,0.0225965
3768.78876,0.0226995
3767.82438,0.0227359
3766.86000,0.0226875
3765.89562,0.0225759
3764.93124,0.0224541
3763.96687,0.0224107
3763.00249,0.0224479
3762.03811,0.0224714
3761.07373,0.0224622
3760.10935,0.0224468
3759.14498,0.0224163
3758.18060,0.0224095
3757.21622,0.0224309
3756.25184,0.0223932
3755.28747,0.0222988
3754.32309,0.0221932
3753.35871,0.0221276
3752.39433,0.0221298
3751.42995,0.0221248
3750.46558,0.0220986
3749.50120,0.0221177
3748.53682,0.0221874
3747.57244,0.0222648
3746.60806,0.0223591
3745.64369,0.0224676
3744.67931,0.0225135
3743.71493,0.0225450
3742.75055,0.0225314
3741.78618,0.0224493
3740.82180,0.0223900
3739.85742,0.0222830
3738.89304,0.0221712
3737.92866,0.0221094
3736.96429,0.0220343
3735.99991,0.0219743
3735.03553,0.0219244
3734.07115,0.0218630
3733.10677,0.0217976
3732.14240,0.0217908
3731.17802,0.0218161
3730.21364,0.0218663
3729.24926,0.0219844
3728.28488,0.0220757
3727.32051,0.0221898
3726.35613,0.0222925
3725.39175,0.0222822
3724.42737,0.0222475
3723.46300,0.0221855
3722.49862,0.0220842
3721.53424,0.0219733
3720.56986,0.0218974
3719.60548,0.0219067
3718.64111,0.0219303
3717.67673,0.0218773
3716.71235,0.0218147
3715.74797,0.0218466
3714.78359,0.0218922
3713.81922,0.0218836
3712.85484,0.0218526
3711.89046,0.0218319
3710.92608,0.0218765
3709.96171,0.0219471
3708.99733,0.0220235
3708.03295,0.0221679
3707.06857,0.0223318
3706.10419,0.0223970
3705.13982,0.0223813
3704.17544,0.0223417
3703.21106,0.0222500
3702.24668,0.0221487
3701.28230,0.0220717
3700.31793,0.0219996
3699.35355,0.0219595
3698.38917,0.0219078
3697.42479,0.0218808
3696.46041,0.0219740
3695.49604,0.0220988
3694.53166,0.0221481
3693.56728,0.0221388
3692.60290,0.0221061
3691.63853,0.0220458
3690.67415,0.0220145
3689.70977,0.0220398
3688.74539,0.0220557
3687.78101,0.0220980
3686.81664,0.0221706
3685.85226,0.0222428
3684.88788,0.0223316
3683.92350,0.0223896
3682.95912,0.0224090
3681.99475,0.0223900
3681.03037,0.0223232
3680.06599,0.0222448
3679.10161,0.0221504
3678.13724,0.0220296
3677.17286,0.0219786
3676.20848,0.0221009
3675.24410,0.0222500
3674.27972,0.0223174
3673.31535,0.0223971
3672.35097,0.0224603
3671.38659,0.0224527
3670.42221,0.0224659
3669.45783,0.0225513
3668.49346,0.0226681
3667.52908,0.0227308
3666.56470,0.0227242
3665.60032,0.0228002
3664.63594,0.0229370
3663.67157,0.0229615
3662.70719,0.0229305
3661.74281,0.0229114
3660.77843,0.0228926
3659.81406,0.0228844
3658.84968,0.0229391
3657.88530,0.0230505
3656.92092,0.0231532
3655.95654,0.0232684
3654.99217,0.0233950
3654.02779,0.0235453
3653.06341,0.0236962
3652.09903,0.0238050
3651.13465,0.0238987
3650.17028,0.0239573
3649.20590,0.0240130
3648.24152,0.0240338
3647.27714,0.0240392
3646.31276,0.0241096
3645.34839,0.0241521
3644.38401,0.0241788
3643.41963,0.0242499
3642.45525,0.0243545
3641.49088,0.0244498
3640.52650,0.0245253
3639.56212,0.0246580
3638.59774,0.0247851
3637.63336,0.0248576
3636.66899,0.0249046
3635.70461,0.0249538
3634.74023,0.0250579
3633.77585,0.0251226
3632.81147,0.0251003
3631.84710,0.0250987
3630.88272,0.0251512
3629.91834,0.0252315
3628.95396,0.0253391
3627.98959,0.0254651
3627.02521,0.0255498
3626.06083,0.0255936
3625.09645,0.0256249
3624.13207,0.0256575
3623.16770,0.0257440
3622.20332,0.0257967
3621.23894,0.0257741
3620.27456,0.0258061
3619.31018,0.0259192
3618.34581,0.0260812
3617.38143,0.0261941
3616.41705,0.0262253
3615.45267,0.0262600
3614.48829,0.0262847
3613.52392,0.0262999
3612.55954,0.0263111
3611.59516,0.0262824
3610.63078,0.0262133
3609.66641,0.0261607
3608.70203,0.0261500
3607.73765,0.0261520
3606.77327,0.0261817
3605.80889,0.0261702
3604.84452,0.0261376
3603.88014,0.0261446
3602.91576,0.0261145
3601.95138,0.0260678
3600.98700,0.0259908
3600.02263,0.0258855
3599.05825,0.0258400
3598.09387,0.0258685
3597.12949,0.0259535
3596.16512,0.0260552
3595.20074,0.0261493
3594.23636,0.0262136
3593.27198,0.0262654
3592.30760,0.0262991
3591.34323,0.0262933
3590.37885,0.0262758
3589.41447,0.0261919
3588.45009,0.0260576
3587.48571,0.0259862
3586.52134,0.0260168
3585.55696,0.0260884
3584.59258,0.0261580
3583.62820,0.0262354
3582.66382,0.0262778
3581.69945,0.0263425
3580.73507,0.0264720
3579.77069,0.0265804
3578.80631,0.0266465
3577.84194,0.0266634
3576.87756,0.0266445
3575.91318,0.0266441
3574.94880,0.0266583
3573.98442,0.0266422
3573.02005,0.0266432
3572.05567,0.0266665
3571.09129,0.0266077
3570.12691,0.0265560
3569.16253,0.0265610
3568.19816,0.0265347
3567.23378,0.0265226
3566.26940,0.0265127
3565.30502,0.0264907
3564.34065,0.0265267
3563.37627,0.0265909
3562.41189,0.0266524
3561.44751,0.0267464
3560.48313,0.0268328
3559.51876,0.0268573
3558.55438,0.0269243
3557.59000,0.0270287
3556.62562,0.0270031
3555.66124,0.0268778
3554.69687,0.0267619
3553.73249,0.0267144
3552.76811,0.0267487
3551.80373,0.0267657
3550.83935,0.0267754
3549.87498,0.0268766
3548.91060,0.0270046
3547.94622,0.0271130
3546.98184,0.0272622
3546.01747,0.0273626
3545.05309,0.0273481
3544.08871,0.0273632
3543.12433,0.0274490
3542.15995,0.0274881
3541.19558,0.0274478
3540.23120,0.0274130
3539.26682,0.0274675
3538.30244,0.0275827
3537.33806,0.0276255
3536.37369,0.0275994
3535.40931,0.0276266
3534.44493,0.0276995
3533.48055,0.0277814
3532.51618,0.0278444
3531.55180,0.0278554
3530.58742,0.0278448
3529.62304,0.0278854
3528.65866,0.0280022
3527.69429,0.0280958
3526.72991,0.0281267
3525.76553,0.0281152
3524.80115,0.0281181
3523.83677,0.0282352
3522.87240,0.0284225
3521.90802,0.0285912
3520.94364,0.0286963
3519.97926,0.0287823
3519.01488,0.0289027
3518.05051,0.0290126
3517.08613,0.0290729
3516.12175,0.0290634
3515.15737,0.0290372
3514.19300,0.0290205
3513.22862,0.0290086
3512.26424,0.0290309
3511.29986,0.0290792
3510.33548,0.0291512
3509.37111,0.0292087
3508.40673,0.0292341
3507.44235,0.0292261
3506.47797,0.0291965
3505.51359,0.0291968
3504.54922,0.0292149
3503.58484,0.0292376
3502.62046,0.0292504
3501.65608,0.0292653
3500.69171,0.0293036
3499.72733,0.0293512
3498.76295,0.0294189
3497.79857,0.0294896
3496.83419,0.0295280
3495.86982,0.0294967
3494.90544,0.0294034
3493.94106,0.0293155
3492.97668,0.0292848
3492.01230,0.0293130
3491.04793,0.0294213
3490.08355,0.0296291
3489.11917,0.0298358
3488.15479,0.0300247
3487.19041,0.0302217
3486.22604,0.0303828
3485.26166,0.0304969
3484.29728,0.0304832
3483.33290,0.0303448
3482.36853,0.0302175
3481.40415,0.0301569
3480.43977,0.0301339
3479.47539,0.0301457
3478.51101,0.0301865
3477.54664,0.0302011
3476.58226,0.0302270
3475.61788,0.0302791
3474.65350,0.0303597
3473.68912,0.0304697
3472.72475,0.0304792
3471.76037,0.0304428
3470.79599,0.0304930
3469.83161,0.0305975
3468.86724,0.0307155
3467.90286,0.0308122
3466.93848,0.0308654
3465.97410,0.0308655
3465.00972,0.0308603
3464.04535,0.0308976
3463.08097,0.0309482
3462.11659,0.0309650
3461.15221,0.0309079
3460.18783,0.0308507
3459.22346,0.0308301
3458.25908,0.0307989
3457.29470,0.0308111
3456.33032,0.0308513
3455.36594,0.0308576
3454.40157,0.0308855
3453.43719,0.0309772
3452.47281,0.0310932
3451.50843,0.0312015
3450.54406,0.0313024
3449.57968,0.0313664
3448.61530,0.0313810
3447.65092,0.0313466
3446.68654,0.0312737
3445.72217,0.0312111
3444.75779,0.0311337
3443.79341,0.0310409
3442.82903,0.0310183
3441.86465,0.0310681
3440.90028,0.0311132
3439.93590,0.0311356
3438.97152,0.0311926
3438.00714,0.0312907
3437.04276,0.0313988
3436.07839,0.0314871
3435.11401,0.0315061
3434.14963,0.0314398
3433.18525,0.0313268
3432.22088,0.0312609
3431.25650,0.0312328
3430.29212,0.0311497
3429.32774,0.0310279
3428.36336,0.0309142
3427.39899,0.0308878
3426.43461,0.0309949
3425.47023,0.0311333
3424.50585,0.0312170
3423.54147,0.0312596
3422.57710,0.0313068
3421.61272,0.0313735
3420.64834,0.0314398
3419.68396,0.0314692
3418.71959,0.0314574
3417.75521,0.0314165
3416.79083,0.0313375
3415.82645,0.0313013
3414.86207,0.0313601
3413.89770,0.0313995
3412.93332,0.0313665
3411.96894,0.0313756
3411.00456,0.0314698
3410.04018,0.0315479
3409.07581,0.0315893
3408.11143,0.0316434
3407.14705,0.0316972
3406.18267,0.0316908
3405.21829,0.0316200
3404.25392,0.0315821
3403.28954,0.0315895
3402.32516,0.0315433
3401.36078,0.0314410
3400.39641,0.0313943
3399.43203,0.0314077
3398.46765,0.0314057
3397.50327,0.0314200
3396.53889,0.0314419
3395.57452,0.0314235
3394.61014,0.0313440
3393.64576,0.0312209
3392.68138,0.0311593
3391.71700,0.0311253
3390.75263,0.0310410
3389.78825,0.0309830
3388.82387,0.0310149
3387.85949,0.0311116
3386.89512,0.0312252
3385.93074,0.0313526
3384.96636,0.0314713
3384.00198,0.0315302
3383.03760,0.0315273
3382.07323,0.0315171
3381.10885,0.0315224
3380.14447,0.0314745
3379.18009,0.0314006
3378.21571,0.0313882
3377.25134,0.0314110
3376.28696,0.0314432
3375.32258,0.0314953
3374.35820,0.0315360
3373.39382,0.0315320
3372.42945,0.0314833
3371.46507,0.0314047
3370.50069,0.0313396
3369.53631,0.0312971
3368.57194,0.0312589
3367.60756,0.0312409
3366.64318,0.0312357
3365.67880,0.0312562
3364.71442,0.0313215
3363.75005,0.0313742
3362.78567,0.0313662
3361.82129,0.0313292
3360.85691,0.0312806
3359.89253,0.0312095
3358.92816,0.0311576
3357.96378,0.0311287
3356.99940,0.0310879
3356.03502,0.0310243
3355.07065,0.0309860
3354.10627,0.0310235
3353.14189,0.0310465
3352.17751,0.0310245
3351.21313,0.0310393
3350.24876,0.0311019
3349.28438,0.0311797
3348.32000,0.0312571
3347.35562,0.0313421
3346.39124,0.0313974
3345.42687,0.0314104
3344.46249,0.0314449
3343.49811,0.0315248
3342.53373,0.0315749
3341.56935,0.0315241
3340.60498,0.0314493
3339.64060,0.0314100
3338.67622,0.0313778
3337.71184,0.0313503
3336.74747,0.0313250
3335.78309,0.0312739
3334.81871,0.0311884
3333.85433,0.0311344
3332.88995,0.0311155
3331.92558,0.0311049
3330.96120,0.0311124
3329.99682,0.0310944
3329.03244,0.0310613
3328.06806,0.0310439
3327.10369,0.0310351
3326.13931,0.0310362
3325.17493,0.0310585
3324.21055,0.0310649
3323.24618,0.0310215
3322.28180,0.0309786
3321.31742,0.0308916
3320.35304,0.0307831
3319.38866,0.0307336
3318.42429,0.0306914
3317.45991,0.0306566
3316.49553,0.0305908
3315.53115,0.0305003
3314.56677,0.0304671
3313.60240,0.0304953
3312.63802,0.0305496
3311.67364,0.0305809
3310.70926,0.0306421
3309.74488,0.0307043
3308.78051,0.0307044
3307.81613,0.0306999
3306.85175,0.0307148
3305.88737,0.0307326
3304.92300,0.0306641
3303.95862,0.0305562
3302.99424,0.0305078
3302.02986,0.0304890
3301.06548,0.0305010
3300.10111,0.0305299
3299.13673,0.0306010
3298.17235,0.0306614
3297.20797,0.0306315
3296.24359,0.0305852
3295.27922,0.0305574
3294.31484,0.0305362
3293.35046,0.0304985
3292.38608,0.0304589
3291.42171,0.0304122
3290.45733,0.0303370
3289.49295,0.0302780
3288.52857,0.0302339
3287.56419,0.0302102
3286.59982,0.0301632
3285.63544,0.0300596
3284.67106,0.0299625
3283.70668,0.0298838
3282.74230,0.0298425
3281.77793,0.0298650
3280.81355,0.0299340
3279.84917,0.0299861
3278.88479,0.0300001
3277.92041,0.0300259
3276.95604,0.0300441
3275.99166,0.0300260
3275.02728,0.0299766
3274.06290,0.0299225
3273.09853,0.0298832
3272.13415,0.0298398
3271.16977,0.0298224
3270.20539,0.0298727
3269.24101,0.0299776
3268.27664,0.0300907
3267.31226,0.0301633
3266.34788,0.0301832
3265.38350,0.0301587
3264.41912,0.0300963
3263.45475,0.0300360
3262.49037,0.0299920
3261.52599,0.0299261
3260.56161,0.0298516
3259.59724,0.0297778
3258.63286,0.0297127
3257.66848,0.0296907
3256.70410,0.0296889
3255.73972,0.0296648
3254.77535,0.0296104
3253.81097,0.0295705
3252.84659,0.0295777
3251.88221,0.0296289
3250.91783,0.0296911
3249.95346,0.0297227
3248.98908,0.0297277
3248.02470,0.0296837
3247.06032,0.0296209
3246.09594,0.0295794
3245.13157,0.0295342
3244.16719,0.0294935
3243.20281,0.0294393
3242.23843,0.0293901
3241.27406,0.0293815
3240.30968,0.0294151
3239.34530,0.0294549
3238.38092,0.0294520
3237.41654,0.0294655
3236.45217,0.0295039
3235.48779,0.0295292
3234.52341,0.0295404
3233.55903,0.0295378
3232.59465,0.0295483
3231.63028,0.0295608
3230.66590,0.0295675
3229.70152,0.0295780
3228.73714,0.0296113
3227.77276,0.0296427
3226.80839,0.0296725
3225.84401,0.0297525
3224.87963,0.0297849
3223.91525,0.0297329
3222.95088,0.0296450
3221.98650,0.0295328
3221.02212,0.0294599
3220.05774,0.0294214
3219.09336,0.0293661
3218.12899,0.0293046
3217.16461,0.0292630
3216.20023,0.0292129
3215.23585,0.0291767
3214.27147,0.0291641
3213.30710,0.0291099
3212.34272,0.0290469
3211.37834,0.0289694
3210.41396,0.0289039
3209.44959,0.0289109
3208.48521,0.0289320
3207.52083,0.0289481
3206.55645,0.0289616
3205.59207,0.0289772
3204.62770,0.0289883
3203.66332,0.0290191
3202.69894,0.0290926
3201.73456,0.0291425
3200.77018,0.0291304
3199.80581,0.0290838
3198.84143,0.0290907
3197.87705,0.0291091
3196.91267,0.0290373
3195.94829,0.0289057
3194.98392,0.0287672
3194.01954,0.0286797
3193.05516,0.0286284
3192.09078,0.0286060
3191.12641,0.0286213
3190.16203,0.0286364
3189.19765,0.0286485
3188.23327,0.0286651
3187.26889,0.0287200
3186.30452,0.0287484
3185.34014,0.0287072
3184.37576,0.0286601
3183.41138,0.0286097
3182.44700,0.0285857
3181.48263,0.0285789
3180.51825,0.0285610
3179.55387,0.0285429
3178.58949,0.0285231
3177.62512,0.0285125
3176.66074,0.0284987
3175.69636,0.0284957
3174.73198,0.0284977
3173.76760,0.0285019
3172.80323,0.0285120
3171.83885,0.0284781
3170.87447,0.0284323
3169.91009,0.0283877
3168.94571,0.0283213
3167.98134,0.0282571
3167.01696,0.0281722
3166.05258,0.0280834
3165.08820,0.0280201
3164.12382,0.0279666
3163.15945,0.0279437
3162.19507,0.0279459
3161.23069,0.0279521
3160.26631,0.0279757
3159.30194,0.0280145
3158.33756,0.0280575
3157.37318,0.0280924
3156.40880,0.0280952
3155.44442,0.0280608
3154.48005,0.0280176
3153.51567,0.0279680
3152.55129,0.0278950
3151.58691,0.0278260
3150.62253,0.0277677
3149.65816,0.0277093
3148.69378,0.0276638
3147.72940,0.0276145
3146.76502,0.0275737
3145.80065,0.0275710
3144.83627,0.0275933
3143.87189,0.0276531
3142.90751,0.0277336
3141.94313,0.0277772
3140.97876,0.0277894
3140.01438,0.0278003
3139.05000,0.0278123
3138.08562,0.0278108
3137.12124,0.0277981
3136.15687,0.0277990
3135.19249,0.0278103
3134.22811,0.0277913
3133.26373,0.0277294
3132.29935,0.0276552
3131.33498,0.0275699
3130.37060,0.0274818
3129.40622,0.0273913
3128.44184,0.0272746
3127.47747,0.0271745
3126.51309,0.0271218
3125.54871,0.0271236
3124.58433,0.0271774
3123.61995,0.0272366
3122.65558,0.0272831
3121.69120,0.0273096
3120.72682,0.0273248
3119.76244,0.0273413
3118.79806,0.0273503
3117.83369,0.0273328
3116.86931,0.0272722
3115.90493,0.0271997
3114.94055,0.0271441
3113.97618,0.0271198
3113.01180,0.0271050
3112.04742,0.0270910
3111.08304,0.0271035
3110.11866,0.0270865
3109.15429,0.0270247
3108.18991,0.0269779
3107.22553,0.0269682
3106.26115,0.0269644
3105.29677,0.0269445
3104.33240,0.0269481
3103.36802,0.0269586
3102.40364,0.0269362
3101.43926,0.0269043
3100.47488,0.0269035
3099.51051,0.0269302
3098.54613,0.0269299
3097.58175,0.0268891
3096.61737,0.0268444
3095.65300,0.0268246
3094.68862,0.0268054
3093.72424,0.0267848
3092.75986,0.0267746
3091.79548,0.0267213
3090.83111,0.0266364
3089.86673,0.0265712
3088.90235,0.0265373
3087.93797,0.0265218
3086.97359,0.0264963
3086.00922,0.0264477
3085.04484,0.0263912
3084.08046,0.0263620
3083.11608,0.0263517
3082.15171,0.0263450
3081.18733,0.0263231
3080.22295,0.0262874
3079.25857,0.0262921
3078.29419,0.0263301
3077.32982,0.0263812
3076.36544,0.0264124
3075.40106,0.0264027
3074.43668,0.0263972
3073.47230,0.0263969
3072.50793,0.0263772
3071.54355,0.0263357
3070.57917,0.0262862
3069.61479,0.0262190
3068.65041,0.0261592
3067.68604,0.0261491
3066.72166,0.0261517
3065.75728,0.0261395
3064.79290,0.0260815
3063.82853,0.0259934
3062.86415,0.0259352
3061.89977,0.0259005
3060.93539,0.0258756
3059.97101,0.0258463
3059.00664,0.0258145
3058.04226,0.0257835
3057.07788,0.0257585
3056.11350,0.0257521
3055.14912,0.0257553
3054.18475,0.0257454
3053.22037,0.0256771
3052.25599,0.0255897
3051.29161,0.0255375
3050.32724,0.0254970
3049.36286,0.0254459
3048.39848,0.0253862
3047.43410,0.0253567
3046.46972,0.0253470
3045.50535,0.0253322
3044.54097,0.0253319
3043.57659,0.0253396
3042.61221,0.0253396
3041.64783,0.0253322
3040.68346,0.0253389
3039.71908,0.0253482
3038.75470,0.0253309
3037.79032,0.0252888
3036.82594,0.0252380
3035.86157,0.0252153
3034.89719,0.0252108
3033.93281,0.0251846
3032.96843,0.0251421
3032.00406,0.0251109
3031.03968,0.0250987
3030.07530,0.0250805
3029.11092,0.0250332
3028.14654,0.0249602
3027.18217,0.0248803
3026.21779,0.0248131
3025.25341,0.0247679
3024.28903,0.0247521
3023.32465,0.0247670
3022.36028,0.0247739
3021.39590,0.0247606
3020.43152,0.0247521
3019.46714,0.0247455
3018.50276,0.0247529
3017.53839,0.0247439
3016.57401,0.0246854
3015.60963,0.0246254
3014.64525,0.0245957
3013.68088,0.0245877
3012.71650,0.0245713
3011.75212,0.0245644
3010.78774,0.0245915
3009.82336,0.0246229
3008.85899,0.0246469
3007.89461,0.0246670
3006.93023,0.0247075
3005.96585,0.0247314
3005.00147,0.0246983
3004.03710,0.0246588
3003.07272,0.0246188
3002.10834,0.0245582
3001.14396,0.0244696
3000.17959,0.0243873
2999.21521,0.0243450
2998.25083,0.0242866
2997.28645,0.0242060
2996.32207,0.0241432
2995.35770,0.0241199
2994.39332,0.0241210
2993.42894,0.0240944
2992.46456,0.0240765
2991.50018,0.0240929
2990.53581,0.0240973
2989.57143,0.0240781
2988.60705,0.0240438
2987.64267,0.0239967
2986.67829,0.0239152
2985.71392,0.0238381
2984.74954,0.0238106
2983.78516,0.0237830
2982.82078,0.0237478
2981.85641,0.0237144
2980.89203,0.0237114
2979.92765,0.0237613
2978.96327,0.0237941
2977.99889,0.0238024
2977.03452,0.0238047
2976.07014,0.0237933
2975.10576,0.0237810
2974.14138,0.0237652
2973.17700,0.0237375
2972.21263,0.0236981
2971.24825,0.0236801
2970.28387,0.0236665
2969.31949,0.0236444
2968.35512,0.0236428
2967.39074,0.0236247
2966.42636,0.0236107
2965.46198,0.0236223
2964.49760,0.0236202
2963.53323,0.0236060
2962.56885,0.0235779
2961.60447,0.0235520
2960.64009,0.0235324
2959.67571,0.0235001
2958.71134,0.0234692
2957.74696,0.0234456
2956.78258,0.0234165
2955.81820,0.0233773
2954.85382,0.0233550
2953.88945,0.0233473
2952.92507,0.0233233
2951.96069,0.0233095
2950.99631,0.0233192
2950.03194,0.0233221
2949.06756,0.0233061
2948.10318,0.0232995
2947.13880,0.0233351
2946.17442,0.0233648
2945.21005,0.0233515
2944.24567,0.0233387
2943.28129,0.0233467
2942.31691,0.0233703
2941.35253,0.0233761
2940.38816,0.0233544
2939.42378,0.0233560
2938.45940,0.0233805
2937.49502,0.0234111
2936.53065,0.0234596
2935.56627,0.0235104
2934.60189,0.0235160
2933.63751,0.0234679
2932.67313,0.0234176
2931.70876,0.0233787
2930.74438,0.0233413
2929.78000,0.0232991
2928.81562,0.0232586
2927.85124,0.0232607
2926.88687,0.0232819
2925.92249,0.0232826
2924.95811,0.0232852
2923.99373,0.0232964
2923.02935,0.0233027
2922.06498,0.0232826
2921.10060,0.0232440
2920.13622,0.0232181
2919.17184,0.0231976
2918.20747,0.0231808
2917.24309,0.0231583
2916.27871,0.0231234
2915.31433,0.0230779
2914.34995,0.0229963
2913.38558,0.0229206
2912.42120,0.0228923
2911.45682,0.0228721
2910.49244,0.0228188
2909.52806,0.0227365
2908.56369,0.0226725
2907.59931,0.0226336
2906.63493,0.0226125
2905.67055,0.0226179
2904.70618,0.0226494
2903.74180,0.0226876
2902.77742,0.0226998
2901.81304,0.0227191
2900.84866,0.0227473
2899.88429,0.0227399
2898.91991,0.0227090
2897.95553,0.0226725
2896.99115,0.0226389
2896.02677,0.0226000
2895.06240,0.0225586
2894.09802,0.0225348
2893.13364,0.0225302
2892.16926,0.0225286
2891.20488,0.0225236
2890.24051,0.0225284
2889.27613,0.0225214
2888.31175,0.0225060
2887.34737,0.0225029
2886.38300,0.0224899
2885.41862,0.0224585
2884.45424,0.0224113
2883.48986,0.0223603
2882.52548,0.0223275
2881.56111,0.0223175
2880.59673,0.0223204
2879.63235,0.0223438
2878.66797,0.0223736
2877.70359,0.0223754
2876.73922,0.0223751
2875.77484,0.0223738
2874.81046,0.0223443
2873.84608,0.0223295
2872.88171,0.0223381
2871.91733,0.0223164
2870.95295,0.0222864
2869.98857,0.0222788
2869.02419,0.0222686
2868.05982,0.0222561
2867.09544,0.0222282
2866.13106,0.0222002
2865.16668,0.0222073
2864.20230,0.0222246
2863.23793,0.0222539
2862.27355,0.0223231
2861.30917,0.0224025
2860.34479,0.0224276
2859.38041,0.0224249
2858.41604,0.0224271
2857.45166,0.0223927
2856.48728,0.0223399
2855.52290,0.0222997
2854.55853,0.0222891
2853.59415,0.0222963
2852.62977,0.0222879
2851.66539,0.0222931
2850.70101,0.0223168
2849.73664,0.0223210
2848.77226,0.0222918
2847.80788,0.0222511
2846.84350,0.0222049
2845.87912,0.0221511
2844.91475,0.0221199
2843.95037,0.0221101
2842.98599,0.0221096
2842.02161,0.0221101
2841.05724,0.0221062
2840.09286,0.0221125
2839.12848,0.0221326
2838.16410,0.0221486
2837.19972,0.0221347
2836.23535,0.0221183
2835.27097,0.0221265
2834.30659,0.0221247
2833.34221,0.0220956
2832.37783,0.0220515
2831.41346,0.0220014
2830.44908,0.0219599
2829.48470,0.0219458
2828.52032,0.0219426
2827.55594,0.0219325
2826.59157,0.0219231
2825.62719,0.0219132
2824.66281,0.0219357
2823.69843,0.0219878
2822.73406,0.0219954
2821.76968,0.0219656
2820.80530,0.0219347
2819.84092,0.0218844
2818.87654,0.0218383
2817.91217,0.0218260
2816.94779,0.0218243
2815.98341,0.0218277
2815.01903,0.0218522
2814.05465,0.0218821
2813.09028,0.0219024
2812.12590,0.0219311
2811.16152,0.0219470
2810.19714,0.0219306
2809.23276,0.0219042
2808.26839,0.0218594
2807.30401,0.0218098
2806.33963,0.0217764
2805.37525,0.0217467
2804.41088,0.0217307
2803.44650,0.0217211
2802.48212,0.0216957
2801.51774,0.0216645
2800.55336,0.0216487
2799.58899,0.0216374
2798.62461,0.0216154
2797.66023,0.0216070
2796.69585,0.0216101
2795.73147,0.0216087
2794.76710,0.0215997
2793.80272,0.0215905
2792.83834,0.0216157
2791.87396,0.0216527
2790.90959,0.0216577
2789.94521,0.0216458
2788.98083,0.0216412
2788.01645,0.0216453
2787.05207,0.0216389
2786.08770,0.0216132
2785.12332,0.0215789
2784.15894,0.0215517
2783.19456,0.0215219
2782.23018,0.0214880
2781.26581,0.0214797
2780.30143,0.0214775
2779.33705,0.0214651
2778.37267,0.0214594
2777.40829,0.0214687
2776.44392,0.0214850
2775.47954,0.0214814
2774.51516,0.0214696
2773.55078,0.0214617
2772.58641,0.0214287
2771.62203,0.0213525
2770.65765,0.0212685
2769.69327,0.0212160
2768.72889,0.0211805
2767.76452,0.0211569
2766.80014,0.0211384
2765.83576,0.0211246
2764.87138,0.0211162
2763.90700,0.0211067
2762.94263,0.0211223
2761.97825,0.0211209
2761.01387,0.0210680
2760.04949,0.0210179
2759.08512,0.0210064
2758.12074,0.0210222
2757.15636,0.0210396
2756.19198,0.0210597
2755.22760,0.0210756
2754.26323,0.0210797
2753.29885,0.0210719
2752.33447,0.0210526
2751.37009,0.0210443
2750.40571,0.0210346
2749.44134,0.0210170
2748.47696,0.0210170
2747.51258,0.0210271
2746.54820,0.0210231
2745.58382,0.0210071
2744.61945,0.0209953
2743.65507,0.0209798
2742.69069,0.0209622
2741.72631,0.0209513
2740.76194,0.0209394
2739.79756,0.0209332
2738.83318,0.0209319
2737.86880,0.0209255
2736.90442,0.0209205
2735.94005,0.0209044
2734.97567,0.0208561
2734.01129,0.0207943
2733.04691,0.0207416
2732.08253,0.0206973
2731.11816,0.0206592
2730.15378,0.0206275
2729.18940,0.0205935
2728.22502,0.0205600
2727.26065,0.0205466
2726.29627,0.0205420
2725.33189,0.0205319
2724.36751,0.0205271
2723.40313,0.0205292
2722.43876,0.0205311
2721.47438,0.0205301
2720.51000,0.0205225
2719.54562,0.0205048
2718.58124,0.0204864
2717.61687,0.0204636
2716.65249,0.0204447
2715.68811,0.0204444
2714.72373,0.0204345
2713.75935,0.0204187
2712.79498,0.0204231
2711.83060,0.0204364
2710.86622,0.0204241
2709.90184,0.0203894
2708.93747,0.0203778
2707.97309,0.0203764
2707.00871,0.0203627
2706.04433,0.0203501
2705.07995,0.0203436
2704.11558,0.0203331
2703.15120,0.0203044
2702.18682,0.0202775
2701.22244,0.0202676
2700.25806,0.0202625
2699.29369,0.0202514
2698.32931,0.0202475
2697.36493,0.0202700
2696.40055,0.0202973
2695.43618,0.0203243
2694.47180,0.0203573
2693.50742,0.0203643
2692.54304,0.0203368
2691.57866,0.0202988
2690.61429,0.0202701
2689.64991,0.0202583
2688.68553,0.0202422
2687.72115,0.0202071
2686.75677,0.0201651
2685.79240,0.0201233
2684.82802,0.0200968
2683.86364,0.0200840
2682.89926,0.0200633
2681.93488,0.0200293
2680.97051,0.0199918
2680.00613,0.0199684
2679.04175,0.0199647
2678.07737,0.0199847
2677.11300,0.0199979
2676.14862,0.0199691
2675.18424,0.0199296
2674.21986,0.0198949
2673.25548,0.0198612
2672.29111,0.0198356
2671.32673,0.0198084
2670.36235,0.0197799
2669.39797,0.0197637
2668.43359,0.0197612
2667.46922,0.0197640
2666.50484,0.0197799
2665.54046,0.0197928
2664.57608,0.0197797
2663.61171,0.0197689
2662.64733,0.0197633
2661.68295,0.0197527
2660.71857,0.0197532
2659.75419,0.0197464
2658.78982,0.0197244
2657.82544,0.0196973
2656.86106,0.0196452
2655.89668,0.0195836
2654.93230,0.0195336
2653.96793,0.0194864
2653.00355,0.0194630
2652.03917,0.0194493
2651.07479,0.0194144
2650.11041,0.0193795
2649.14604,0.0193490
2648.18166,0.0193155
2647.21728,0.0192879
2646.25290,0.0192590
2645.28853,0.0192316
2644.32415,0.0192195
2643.35977,0.0192076
2642.39539,0.0191971
2641.43101,0.0192007
2640.46664,0.0191860
2639.50226,0.0191452
2638.53788,0.0190921
2637.57350,0.0190150
2636.60912,0.0189273
2635.64475,0.0188588
2634.68037,0.0188157
2633.71599,0.0187878
2632.75161,0.0187580
2631.78724,0.0187467
2630.82286,0.0187815
2629.85848,0.0188219
2628.89410,0.0188557
2627.92972,0.0189002
2626.96535,0.0189280
2626.00097,0.0189354
2625.03659,0.0189254
2624.07221,0.0189042
2623.10783,0.0188808
2622.14346,0.0188410
2621.17908,0.0188091
2620.21470,0.0188100
2619.25032,0.0188260
2618.28594,0.0188119
2617.32157,0.0187604
2616.35719,0.0187119
2615.39281,0.0186619
2614.42843,0.0186152
2613.46406,0.0185863
2612.49968,0.0185590
2611.53530,0.0185312
2610.57092,0.0184993
2609.60654,0.0184750
2608.64217,0.0184630
2607.67779,0.0184410
2606.71341,0.0183832
2605.74903,0.0182902
2604.78465,0.0182221
2603.82028,0.0181988
2602.85590,0.0182286
2601.89152,0.0183481
2600.92714,0.0184973
2599.96276,0.0186205
2598.99839,0.0187232
2598.03401,0.0187906
2597.06963,0.0188075
2596.10525,0.0187546
2595.14088,0.0186330
2594.17650,0.0184963
2593.21212,0.0183840
2592.24774,0.0182701
2591.28336,0.0181603
2590.31899,0.0181085
2589.35461,0.0181176
2588.39023,0.0181696
2587.42585,0.0182220
2586.46147,0.0182422
2585.49710,0.0182314
2584.53272,0.0181895
2583.56834,0.0181612
2582.60396,0.0181401
2581.63959,0.0180661
2580.67521,0.0179518
2579.71083,0.0178649
2578.74645,0.0178544
2577.78207,0.0179006
2576.81770,0.0179401
2575.85332,0.0179297
2574.88894,0.0179200
2573.92456,0.0179464
2572.96018,0.0179539
2571.99581,0.0179499
2571.03143,0.0179426
2570.06705,0.0179146
2569.10267,0.0179078
2568.13829,0.0179286
2567.17392,0.0179297
2566.20954,0.0178805
2565.24516,0.0177867
2564.28078,0.0176949
2563.31641,0.0176693
2562.35203,0.0176903
2561.38765,0.0176891
2560.42327,0.0177196
2559.45889,0.0178334
2558.49452,0.0179364
2557.53014,0.0179796
2556.56576,0.0180009
2555.60138,0.0179691
2554.63700,0.0178449
2553.67263,0.0176879
2552.70825,0.0175732
2551.74387,0.0174917
2550.77949,0.0173934
2549.81512,0.0173156
2548.85074,0.0173534
2547.88636,0.0174720
2546.92198,0.0175410
2545.95760,0.0175531
2544.99323,0.0175662
2544.02885,0.0175480
2543.06447,0.0174671
2542.10009,0.0173837
2541.13571,0.0173293
2540.17134,0.0172398
2539.20696,0.0171230
2538.24258,0.0170761
2537.27820,0.0171460
2536.31382,0.0172796
2535.34945,0.0173796
2534.38507,0.0174405
2533.42069,0.0175027
2532.45631,0.0175636
2531.49194,0.0175760
2530.52756,0.0175239
2529.56318,0.0174658
2528.59880,0.0173923
2527.63442,0.0173099
2526.67005,0.0172671
2525.70567,0.0172424
2524.74129,0.0172279
2523.77691,0.0172175
2522.81253,0.0171854
2521.84816,0.0171168
2520.88378,0.0170569
2519.91940,0.0170364
2518.95502,0.0170186
2517.99065,0.0170407
2517.02627,0.0171153
2516.06189,0.0171958
2515.09751,0.0172421
2514.13313,0.0172314
2513.16876,0.0172283
2512.20438,0.0172370
2511.24000,0.0171897
2510.27562,0.0171304
2509.31124,0.0171557
2508.34687,0.0172136
2507.38249,0.0172008
2506.41811,0.0171471
2505.45373,0.0170820
2504.48935,0.0170138
2503.52498,0.0169191
2502.56060,0.0167784
2501.59622,0.0166642
2500.63184,0.0165596
2499.66747,0.0164675
2498.70309,0.0164896
2497.73871,0.0166054
2496.77433,0.0167298
2495.80995,0.0168398
2494.84558,0.0169059
2493.88120,0.0169215
2492.91682,0.0169603
2491.95244,0.0169730
2490.98806,0.0169084
2490.02369,0.0168533
2489.05931,0.0168071
2488.09493,0.0167794
2487.13055,0.0167815
2486.16618,0.0167820
2485.20180,0.0168163
2484.23742,0.0168707
2483.27304,0.0168795
2482.30866,0.0168269
2481.34429,0.0167964
2480.37991,0.0168251
2479.41553,0.0168723
2478.45115,0.0169233
2477.48677,0.0169382
2476.52240,0.0169415
2475.55802,0.0169183
2474.59364,0.0168129
2473.62926,0.0167094
2472.66488,0.0166778
2471.70051,0.0166948
2470.73613,0.0166996
2469.77175,0.0167128
2468.80737,0.0167741
2467.84300,0.0168248
2466.87862,0.0168178
2465.91424,0.0167525
2464.94986,0.0167115
2463.98548,0.0166695
2463.02111,0.0165393
2462.05673,0.0164560
2461.09235,0.0164791
2460.12797,0.0165150
2459.16359,0.0164990
2458.19922,0.0164175
2457.23484,0.0163313
2456.27046,0.0162535
2455.30608,0.0161681
2454.34171,0.0161239
2453.37733,0.0161820
2452.41295,0.0162489
2451.44857,0.0162450
2450.48419,0.0162907
2449.51982,0.0163614
2448.55544,0.0164104
2447.59106,0.0164693
2446.62668,0.0164892
2445.66230,0.0165162
2444.69793,0.0165419
2443.73355,0.0165582
2442.76917,0.0166215
2441.80479,0.0166611
2440.84041,0.0166210
2439.87604,0.0165552
2438.91166,0.0165472
2437.94728,0.0165265
2436.98290,0.0164588
2436.01853,0.0164190
2435.05415,0.0163666
2434.08977,0.0163186
2433.12539,0.0162953
2432.16101,0.0162788
2431.19664,0.0162486
2430.23226,0.0161776
2429.26788,0.0161394
2428.30350,0.0161441
2427.33912,0.0161669
2426.37475,0.0161950
2425.41037,0.0162115
2424.44599,0.0162446
2423.48161,0.0162681
2422.51724,0.0162744
2421.55286,0.0162986
2420.58848,0.0163335
2419.62410,0.0163258
2418.65972,0.0162837
2417.69535,0.0162743
2416.73097,0.0162827
2415.76659,0.0163040
2414.80221,0.0163487
2413.83783,0.0163963
2412.87346,0.0164300
2411.90908,0.0164279
2410.94470,0.0163931
2409.98032,0.0163436
2409.01594,0.0162875
2408.05157,0.0162077
2407.08719,0.0161301
2406.12281,0.0160865
2405.15843,0.0160505
2404.19406,0.0160138
2403.22968,0.0159837
2402.26530,0.0160164
2401.30092,0.0160839
2400.33654,0.0160840
2399.37217,0.0160651
2398.40779,0.0160561
2397.44341,0.0160374
2396.47903,0.0160488
2395.51465,0.0160786
2394.55028,0.0160821
2393.58590,0.0160772
2392.62152,0.0160837
2391.65714,0.0160807
2390.69276,0.0160988
2389.72839,0.0161116
2388.76401,0.0160642
2387.79963,0.0160379
2386.83525,0.0160489
2385.87088,0.0160576
2384.90650,0.0160648
2383.94212,0.0160575
2382.97774,0.0160759
2382.01336,0.0161573
2381.04899,0.0162896
2380.08461,0.0164652
2379.12023,0.0166917
2378.15585,0.0169354
2377.19147,0.0171760
2376.22710,0.0174528
2375.26272,0.0177540
2374.29834,0.0180612
2373.33396,0.0183324
2372.36959,0.0185527
2371.40521,0.0187944
2370.44083,0.0190308
2369.47645,0.0192154
2368.51207,0.0193738
2367.54770,0.0195073
2366.58332,0.0196056
2365.61894,0.0197141
2364.65456,0.0198478
2363.69018,0.0199497
2362.72581,0.0200208
2361.76143,0.0200472
2360.79705,0.0200344
2359.83267,0.0200228
2358.86829,0.0199661
2357.90392,0.0198404
2356.93954,0.0196550
2355.97516,0.0194187
2355.01078,0.0191285
2354.04641,0.0187721
2353.08203,0.0183607
2352.11765,0.0179296
2351.15327,0.0175675
2350.18889,0.0173230
2349.22452,0.0172114
2348.26014,0.0172472
2347.29576,0.0174039
2346.33138,0.0176559
2345.36700,0.0179520
2344.40263,0.0182406
2343.43825,0.0184654
2342.47387,0.0186040
2341.50949,0.0186972
2340.54512,0.0187494
2339.58074,0.0187697
2338.61636,0.0187573
2337.65198,0.0187078
2336.68760,0.0186450
2335.72323,0.0185620
2334.75885,0.0184993
2333.79447,0.0184760
2332.83009,0.0184414
2331.86571,0.0183883
2330.90134,0.0183392
2329.93696,0.0182932
2328.97258,0.0182174
2328.00820,0.0181360
2327.04382,0.0180823
2326.07945,0.0180190
2325.11507,0.0179412
2324.15069,0.0178506
2323.18631,0.0177549
2322.22194,0.0176545
2321.25756,0.0175290
2320.29318,0.0174146
2319.32880,0.0173278
2318.36442,0.0172423
2317.40005,0.0171179
2316.43567,0.0169901
2315.47129,0.0169067
2314.50691,0.0167952
2313.54253,0.0166451
2312.57816,0.0164761
2311.61378,0.0162906
2310.64940,0.0160990
2309.68502,0.0158984
2308.72065,0.0157799
2307.75627,0.0157780
2306.79189,0.0157785
2305.82751,0.0156908
2304.86313,0.0155844
2303.89876,0.0155300
2302.93438,0.0154613
2301.97000,0.0153572
2301.00562,0.0152551
2300.04124,0.0151857
2299.07687,0.0151190
2298.11249,0.0150448
2297.14811,0.0150295
2296.18373,0.0150450
2295.21935,0.0150048
2294.25498,0.0148950
2293.29060,0.0148286
2292.32622,0.0148471
2291.36184,0.0148287
2290.39747,0.0147467
2289.43309,0.0147454
2288.46871,0.0148746
2287.50433,0.0149897
2286.53995,0.0150949
2285.57558,0.0151990
2284.61120,0.0152127
2283.64682,0.0151893
2282.68244,0.0151521
2281.71806,0.0150573
2280.75369,0.0148263
2279.78931,0.0145228
2278.82493,0.0143214
2277.86055,0.0142648
2276.89618,0.0143248
2275.93180,0.0143989
2274.96742,0.0144992
2274.00304,0.0146848
2273.03866,0.0148961
2272.07429,0.0150718
2271.10991,0.0151689
2270.14553,0.0151440
2269.18115,0.0150009
2268.21677,0.0148634
2267.25240,0.0147037
2266.28802,0.0145206
2265.32364,0.0144077
2264.35926,0.0141946
2263.39488,0.0138918
2262.43051,0.0137335
2261.46613,0.0137703
2260.50175,0.0138362
2259.53737,0.0138410
2258.57300,0.0139315
2257.60862,0.0141109
2256.64424,0.0142887
2255.67986,0.0145043
2254.71548,0.0148312
2253.75111,0.0151541
2252.78673,0.0152288
2251.82235,0.0150768
2250.85797,0.0148729
2249.89359,0.0147243
2248.92922,0.0145871
2247.96484,0.0144055
2247.00046,0.0143491
2246.03608,0.0144568
2245.07171,0.0146264
2244.10733,0.0148213
2243.14295,0.0149081
2242.17857,0.0148642
2241.21419,0.0147622
2240.24982,0.0145271
2239.28544,0.0142680
2238.32106,0.0140871
2237.35668,0.0140101
2236.39230,0.0139905
2235.42793,0.0140268
2234.46355,0.0141430
2233.49917,0.0142403
2232.53479,0.0142280
2231.57041,0.0141206
2230.60604,0.0140482
2229.64166,0.0140781
2228.67728,0.0140810
2227.71290,0.0140740
2226.74853,0.0140670
2225.78415,0.0140601
2224.81977,0.0140531
2223.85539,0.0140461
2222.89101,0.0140391
2221.92664,0.0140321
2220.96226,0.0140251
2219.99788,0.0140182
2219.03350,0.0140112
2218.06912,0.0140042
2217.10475,0.0139972
2216.14037,0.0139902
2215.17599,0.0139833
2214.21161,0.0139763
2213.24724,0.0139693
2212.28286,0.0139623
2211.31848,0.0139553
2210.35410,0.0139484
2209.38972,0.0139414
2208.42535,0.0139344
2207.46097,0.0139274
2206.49659,0.0139204
2205.53221,0.0139135
2204.56783,0.0139065
2203.60346,0.0138995
2202.63908,0.0138925
2201.67470,0.0138855
2200.71032,0.0138785
2199.74594,0.0138716
2198.78157,0.0138646
2197.81719,0.0138576
2196.85281,0.0138506
2195.88843,0.0138436
2194.92406,0.0138367
2193.95968,0.0138297
2192.99530,0.0138227
2192.03092,0.0138157
2191.06654,0.0138087
2190.10217,0.0138018
2189.13779,0.0137948
2188.17341,0.0137878
2187.20903,0.0137808
2186.24465,0.0137738
2185.28028,0.0137669
2184.31590,0.0137599
2183.35152,0.0137529
2182.38714,0.0137459
2181.42276,0.0137389
2180.45839,0.0137319
2179.49401,0.0137250
2178.52963,0.0137180
2177.56525,0.0137110
2176.60088,0.0137040
2175.63650,0.0136970
2174.67212,0.0136901
2173.70774,0.0136831
2172.74336,0.0136761
2171.77899,0.0136691
2170.81461,0.0136621
2169.85023,0.0136552
2168.88585,0.0136482
2167.92147,0.0136412
2166.95710,0.0136342
2165.99272,0.0136272
2165.02834,0.0136203
2164.06396,0.0136133
2163.09959,0.0136063
2162.13521,0.0135993
2161.17083,0.0135923
2160.20645,0.0135853
2159.24207,0.0135784
2158.27770,0.0135714
2157.31332,0.0135644
2156.34894,0.0135574
2155.38456,0.0135504
2154.42018,0.0135435
2153.45581,0.0135365
2152.49143,0.0135295
2151.52705,0.0135225
2150.56267,0.0135155
2149.59829,0.0135086
2148.63392,0.0135016
2147.66954,0.0134946
2146.70516,0.0134876
2145.74078,0.0134806
2144.77641,0.0134737
2143.81203,0.0134667
2142.84765,0.0134597
2141.88327,0.0134527
2140.91889,0.0134457
2139.95452,0.0134387
2138.99014,0.0134318
2138.02576,0.0134248
2137.06138,0.0134178
2136.09700,0.0134108
2135.13263,0.0134038
2134.16825,0.0133969
2133.20387,0.0133899
2132.23949,0.0133829
2131.27512,0.0133759
2130.31074,0.0133689
2129.34636,0.0133620
2128.38198,0.0133550
2127.41760,0.0133480
2126.45323,0.0133410
2125.48885,0.0133340
2124.52447,0.0133271
2123.56009,0.0133201
2122.59571,0.0133131
2121.63134,0.0133061
2120.66696,0.0132991
2119.70258,0.0132921
2118.73820,0.0132852
2117.77382,0.0132782
2116.80945,0.0132712
2115.84507,0.0132642
2114.88069,0.0132572
2113.91631,0.0132503
2112.95194,0.0132433
2111.98756,0.0132363
2111.02318,0.0132293
2110.05880,0.0132223
2109.09442,0.0132154
2108.13005,0.0132084
2107.16567,0.0132014
2106.20129,0.0131944
2105.23691,0.0131874
2104.27253,0.0131805
2103.30816,0.0131735
2102.34378,0.0131665
2101.37940,0.0131595
2100.41502,0.0131525
2099.45065,0.0131455
2098.48627,0.0131386
2097.52189,0.0131316
2096.55751,0.0131246
2095.59313,0.0131176
2094.62876,0.0131106
2093.66438,0.0131037
2092.70000,0.0130967
2091.73562,0.0130897
2090.77124,0.0130827
2089.80687,0.0130757
2088.84249,0.0130688
2087.87811,0.0130618
2086.91373,0.0130548
2085.94935,0.0130478
2084.98498,0.0130408
2084.02060,0.0130339
2083.05622,0.0130269
2082.09184,0.0130199
2081.12747,0.0130129
2080.16309,0.0130059
2079.19871,0.0129989
2078.23433,0.0129920
2077.26995,0.0129850
2076.30558,0.0129780
2075.34120,0.0129710
2074.37682,0.0129640
2073.41244,0.0129571
2072.44806,0.0129501
2071.48369,0.0129431
2070.51931,0.0129361
2069.55493,0.0129291
2068.59055,0.0129222
2067.62618,0.0129152
2066.66180,0.0129082
2065.69742,0.0129012
2064.73304,0.0128942
2063.76866,0.0128873
2062.80429,0.0128803
2061.83991,0.0128733
2060.87553,0.0128663
2059.91115,0.0128593
2058.94677,0.0128524
2057.98240,0.0128454
2057.01802,0.0128384
2056.05364,0.0128314
2055.08926,0.0128244
2054.12488,0.0128174
2053.16051,0.0128105
2052.19613,0.0128035
2051.23175,0.0127965
2050.26737,0.0127895
2049.30300,0.0127825
2048.33862,0.0127756
2047.37424,0.0127686
2046.40986,0.0127616
2045.44548,0.0127546
2044.48111,0.0127476
2043.51673,0.0127407
2042.55235,0.0127337
2041.58797,0.0127267
2040.62359,0.0127197
2039.65922,0.0127127
2038.69484,0.0127058
2037.73046,0.0126988
2036.76608,0.0126918
2035.80171,0.0126848
2034.83733,0.0126778
2033.87295,0.0126708
2032.90857,0.0126639
2031.94419,0.0126569
2030.97982,0.0126499
2030.01544,0.0126429
2029.05106,0.0126359
2028.08668,0.0126290
2027.12230,0.0126220
2026.15793,0.0126150
2025.19355,0.0126080
2024.22917,0.0126010
2023.26479,0.0125941
2022.30041,0.0125871
2021.33604,0.0125801
2020.37166,0.0125731
2019.40728,0.0125661
2018.44290,0.0125592
2017.47853,0.0125522
2016.51415,0.0125452
2015.54977,0.0125382
2014.58539,0.0125312
2013.62101,0.0125242
2012.65664,0.0125173
2011.69226,0.0125103
2010.72788,0.0125033
2009.76350,0.0124963
2008.79912,0.0124893
2007.83475,0.0124824
2006.87037,0.0124754
2005.90599,0.0124684
2004.94161,0.0124614
2003.97724,0.0124544
2003.01286,0.0124475
2002.04848,0.0124405
2001.08410,0.0124335
2000.11972,0.0124265
1999.15535,0.0124195
1998.19097,0.0124126
1997.22659,0.0124056
1996.26221,0.0123986
1995.29783,0.0123916
1994.33346,0.0123846
1993.36908,0.0123776
1992.40470,0.0123707
1991.44032,0.0123637
1990.47594,0.0123567
1989.51157,0.0123497
1988.54719,0.0123427
1987.58281,0.0123358
1986.61843,0.0123288
1985.65406,0.0123218
1984.68968,0.0123148
1983.72530,0.0123078
1982.76092,0.0123009
1981.79654,0.0122939
1980.83217,0.0122869
1979.86779,0.0122799
1978.90341,0.0122729
1977.93903,0.0122660
1976.97465,0.0122590
1976.01028,0.0122520
1975.04590,0.0122450
1974.08152,0.0122380
1973.11714,0.0122310
1972.15276,0.0122241
1971.18839,0.0122171
1970.22401,0.0122101
1969.25963,0.0122031
1968.29525,0.0121961
1967.33088,0.0121892
1966.36650,0.0121822
1965.40212,0.0121752
1964.43774,0.0121682
1963.47336,0.0121612
1962.50899,0.0121543
1961.54461,0.0121473
1960.58023,0.0121403
1959.61585,0.0121333
1958.65147,0.0121263
1957.68710,0.0121194
1956.72272,0.0121124
1955.75834,0.0121054
1954.79396,0.0120984
1953.82959,0.0120914
1952.86521,0.0120844
1951.90083,0.0120775
1950.93645,0.0120705
1949.97207,0.0120635
1949.00770,0.0120565
1948.04332,0.0120495
1947.07894,0.0120426
1946.11456,0.0120356
1945.15018,0.0120286
1944.18581,0.0120216
1943.22143,0.0120146
1942.25705,0.0120077
1941.29267,0.0120007
1940.32829,0.0119937
1939.36392,0.0119867
1938.39954,0.0119797
1937.43516,0.0119155
1936.47078,0.0119105
1935.50641,0.0119985
1934.54203,0.0121290
1933.57765,0.0121749
1932.61327,0.0121098
1931.64889,0.0120555
1930.68452,0.0120632
1929.72014,0.0120692
1928.75576,0.0120535
1927.79138,0.0120433
1926.82700,0.0119665
1925.86263,0.0118187
1924.89825,0.0118312
1923.93387,0.0119439
1922.96949,0.0119584
1922.00512,0.0118020
1921.04074,0.0115819
1920.07636,0.0114376
1919.11198,0.0113925
1918.14760,0.0113326
1917.18323,0.0112731
1916.21885,0.0112421
1915.25447,0.0111788
1914.29009,0.0111909
1913.32571,0.0113291
1912.36134,0.0114796
1911.39696,0.0115091
1910.43258,0.0114870
1909.46820,0.0115187
1908.50382,0.0115237
1907.53945,0.0114884
1906.57507,0.0114361
1905.61069,0.0114259
1904.64631,0.0115228
1903.68194,0.0116983
1902.71756,0.0118459
1901.75318,0.0118871
1900.78880,0.0118699
1899.82442,0.0118127
1898.86005,0.0117526
1897.89567,0.0116584
1896.93129,0.0114663
1895.96691,0.0112667
1895.00253,0.0111212
1894.03816,0.0110696
1893.07378,0.0111341
1892.10940,0.0112330
1891.14502,0.0112433
1890.18065,0.0111841
1889.21627,0.0111599
1888.25189,0.0111921
1887.28751,0.0112547
1886.32313,0.0113104
1885.35876,0.0114022
1884.39438,0.0114803
1883.43000,0.0114686
1882.46562,0.0114382
1881.50124,0.0114241
1880.53687,0.0114462
1879.57249,0.0114470
1878.60811,0.0113940
1877.64373,0.0113683
1876.67935,0.0113940
1875.71498,0.0114375
1874.75060,0.0114954
1873.78622,0.0115987
1872.82184,0.0116438
1871.85747,0.0116073
1870.89309,0.0115782
1869.92871,0.0115459
1868.96433,0.0115318
1867.99995,0.0115134
1867.03558,0.0114683
1866.07120,0.0114188
1865.10682,0.0113606
1864.14244,0.0113168
1863.17806,0.0113236
1862.21369,0.0113887
1861.24931,0.0114478
1860.28493,0.0115018
1859.32055,0.0115366
1858.35618,0.0115213
1857.39180,0.0115234
1856.42742,0.0114996
1855.46304,0.0114254
1854.49866,0.0113586
1853.53429,0.0113095
1852.56991,0.0113113
1851.60553,0.0113628
1850.64115,0.0114390
1849.67677,0.0115488
1848.71240,0.0116685
1847.74802,0.0117390
1846.78364,0.0117618
1845.81926,0.0117418
1844.85488,0.0116490
1843.89051,0.0115480
1842.92613,0.0114940
1841.96175,0.0114698
1840.99737,0.0115044
1840.03300,0.0115895
1839.06862,0.0116508
1838.10424,0.0116894
1837.13986,0.0117481
1836.17548,0.0117887
1835.21111,0.0117707
1834.24673,0.0117208
1833.28235,0.0116700
1832.31797,0.0116491
1831.35359,0.0116736
1830.38922,0.0117346
1829.42484,0.0118293
1828.46046,0.0119046
1827.49608,0.0119164
1826.53171,0.0119095
1825.56733,0.0119165
1824.60295,0.0119251
1823.63857,0.0119164
1822.67419,0.0118982
1821.70982,0.0118856
1820.74544,0.0118824
1819.78106,0.0119068
1818.81668,0.0119592
1817.85230,0.0120178
1816.88793,0.0120498
1815.92355,0.0120721
1814.95917,0.0121103
1813.99479,0.0121318
1813.03041,0.0121432
1812.06604,0.0121459
1811.10166,0.0121429
1810.13728,0.0121480
1809.17290,0.0121346
1808.20853,0.0121272
1807.24415,0.0121430
1806.27977,0.0121591
1805.31539,0.0121825
1804.35101,0.0122195
1803.38664,0.0122516
1802.42226,0.0122640
1801.45788,0.0122730
1800.49350,0.0122940
1799.52912,0.0123219
1798.56475,0.0123311
1797.60037,0.0123311
1796.63599,0.0123615
1795.67161,0.0124154
1794.70724,0.0124735
1793.74286,0.0125105
1792.77848,0.0125192
1791.81410,0.0125201
1790.84972,0.0125240
1789.88535,0.0125372
1788.92097,0.0125519
1787.95659,0.0125739
1786.99221,0.0126171
1786.02783,0.0126950
1785.06346,0.0127995
1784.09908,0.0129080
1783.13470,0.0130091
1782.17032,0.0130697
1781.20594,0.0131035
1780.24157,0.0131323
1779.27719,0.0131532
1778.31281,0.0131900
1777.34843,0.0132406
1776.38406,0.0133161
1775.41968,0.0134118
1774.45530,0.0135044
1773.49092,0.0136102
1772.52654,0.0137176
1771.56217,0.0138140
1770.59779,0.0139122
1769.63341,0.0140187
1768.66903,0.0141170
1767.70465,0.0142050
1766.74028,0.0143079
1765.77590,0.0144161
1764.81152,0.0145169
1763.84714,0.0146055
1762.88276,0.0146842
1761.91839,0.0147676
1760.95401,0.0148446
1759.98963,0.0149189
1759.02525,0.0150044
1758.06088,0.0150870
1757.09650,0.0151525
1756.13212,0.0152177
1755.16774,0.0153042
1754.20336,0.0153928
1753.23899,0.0154638
1752.27461,0.0155328
1751.31023,0.0156158
1750.34585,0.0157058
1749.38147,0.0157808
1748.41710,0.0158345
1747.45272,0.0158800
1746.48834,0.0159284
1745.52396,0.0159935
1744.55959,0.0160740
1743.59521,0.0161431
1742.63083,0.0161919
1741.66645,0.0162247
1740.70207,0.0162452
1739.73770,0.0162652
1738.77332,0.0162921
1737.80894,0.0163213
1736.84456,0.0163483
1735.88018,0.0163728
1734.91581,0.0163916
1733.95143,0.0164125
1732.98705,0.0164233
1732.02267,0.0164032
1731.05829,0.0163741
1730.09392,0.0163404
1729.12954,0.0162989
1728.16516,0.0162734
1727.20078,0.0162693
1726.23641,0.0162581
1725.27203,0.0162230
1724.30765,0.0161792
1723.34327,0.0161315
1722.37889,0.0160982
1721.41452,0.0160760
1720.45014,0.0160375
1719.48576,0.0159956
1718.52138,0.0159439
1717.55700,0.0158809
1716.59263,0.0158185
1715.62825,0.0157495
1714.66387,0.0156713
1713.69949,0.0155836
1712.73512,0.0154969
1711.77074,0.0154154
1710.80636,0.0153586
1709.84198,0.0153126
1708.87760,0.0152522
1707.91323,0.0151903
1706.94885,0.0151092
1705.98447,0.0150316
1705.02009,0.0149883
1704.05571,0.0149561
1703.09134,0.0149137
1702.12696,0.0148416
1701.16258,0.0147575
1700.19820,0.0146740
1699.23382,0.0145893
1698.26945,0.0144973
1697.30507,0.0143877
1696.34069,0.0142725
1695.37631,0.0141646
1694.41194,0.0140895
1693.44756,0.0140503
1692.48318,0.0140135
1691.51880,0.0139552
1690.55442,0.0138856
1689.59005,0.0138412
1688.62567,0.0138155
1687.66129,0.0137951
1686.69691,0.0137648
1685.73253,0.0137132
1684.76816,0.0136560
1683.80378,0.0135965
1682.83940,0.0135296
1681.87502,0.0134574
1680.91065,0.0133807
1679.94627,0.0132906
1678.98189,0.0132019
1678.01751,0.0131371
1677.05313,0.0130883
1676.08876,0.0130491
1675.12438,0.0130149
1674.16000,0.0129919
1673.19562,0.0129742
1672.23124,0.0129497
1671.26687,0.0129237
1670.30249,0.0128963
1669.33811,0.0128682
1668.37373,0.0128354
1667.40935,0.0127979
1666.44498,0.0127684
1665.48060,0.0127531
1664.51622,0.0127445
1663.55184,0.0127476
1662.58747,0.0127647
1661.62309,0.0127802
1660.65871,0.0127953
1659.69433,0.0127977
1658.72995,0.0127978
1657.76558,0.0128290
1656.80120,0.0128717
1655.83682,0.0129094
1654.87244,0.0129431
1653.90806,0.0129837
1652.94369,0.0130213
1651.97931,0.0130442
1651.01493,0.0130613
1650.05055,0.0130679
1649.08618,0.0130620
1648.12180,0.0130481
1647.15742,0.0130643
1646.19304,0.0131189
1645.22866,0.0131641
1644.26429,0.0132016
1643.29991,0.0132413
1642.33553,0.0132875
1641.37115,0.0133475
1640.40677,0.0134300
1639.44240,0.0135313
1638.47802,0.0136301
1637.51364,0.0137279
1636.54926,0.0138336
1635.58488,0.0139448
1634.62051,0.0140387
1633.65613,0.0141133
1632.69175,0.0141896
1631.72737,0.0142635
1630.76300,0.0143390
1629.79862,0.0144329
1628.83424,0.0145520
1627.86986,0.0146746
1626.90548,0.0147907
1625.94111,0.0149055
1624.97673,0.0150155
1624.01235,0.0151167
1623.04797,0.0152010
1622.08359,0.0152973
1621.11922,0.0154131
1620.15484,0.0155196
1619.19046,0.0156164
1618.22608,0.0157068
1617.26171,0.0157877
1616.29733,0.0158528
1615.33295,0.0159140
1614.36857,0.0159759
1613.40419,0.0160327
1612.43982,0.0160855
1611.47544,0.0161383
1610.51106,0.0162143
1609.54668,0.0162968
1608.58230,0.0163644
1607.61793,0.0164303
1606.65355,0.0164973
1605.68917,0.0165555
1604.72479,0.0165996
1603.76041,0.0166526
1602.79604,0.0167214
1601.83166,0.0167886
1600.86728,0.0168484
1599.90290,0.0169086
1598.93853,0.0169754
1597.97415,0.0170421
1597.00977,0.0171153
1596.04539,0.0172009
1595.08101,0.0172873
1594.11664,0.0173551
1593.15226,0.0174071
1592.18788,0.0174661
1591.22350,0.0175344
1590.25912,0.0176009
1589.29475,0.0176568
1588.33037,0.0177049
1587.36599,0.0177497
1586.40161,0.0177935
1585.43724,0.0178367
1584.47286,0.0178687
1583.50848,0.0178775
1582.54410,0.0178692
1581.57972,0.0178750
1580.61535,0.0178876
1579.65097,0.0178837
1578.68659,0.0178748
1577.72221,0.0178624
1576.75783,0.0178368
1575.79346,0.0178012
1574.82908,0.0177618
1573.86470,0.0177122
1572.90032,0.0176463
1571.93594,0.0175673
1570.97157,0.0174862
1570.00719,0.0174047
1569.04281,0.0173103
1568.07843,0.0172014
1567.11406,0.0170799
1566.14968,0.0169509
1565.18530,0.0168275
1564.22092,0.0167243
1563.25654,0.0166369
1562.29217,0.0165480
1561.32779,0.0164559
1560.36341,0.0163603
1559.39903,0.0162608
1558.43465,0.0161500
1557.47028,0.0160276
1556.50590,0.0158897
1555.54152,0.0157349
1554.57714,0.0155903
1553.61276,0.0154631
1552.64839,0.0153435
1551.68401,0.0152198
1550.71963,0.0150936
1549.75525,0.0149775
1548.79088,0.0148614
1547.82650,0.0147487
1546.86212,0.0146413
1545.89774,0.0145241
1544.93336,0.0144097
1543.96899,0.0143192
1543.00461,0.0142377
1542.04023,0.0141457
1541.07585,0.0140439
1540.11147,0.0139372
1539.14710,0.0138391
1538.18272,0.0137442
1537.21834,0.0136465
1536.25396,0.0135573
1535.28959,0.0134719
1534.32521,0.0133876
1533.36083,0.0133113
1532.39645,0.0132370
1531.43207,0.0131552
1530.46770,0.0130830
1529.50332,0.0130235
1528.53894,0.0129662
1527.57456,0.0129148
1526.61018,0.0128606
1525.64581,0.0128110
1524.68143,0.0127658
1523.71705,0.0127172
1522.75267,0.0126728
1521.78829,0.0126157
1520.82392,0.0125460
1519.85954,0.0124812
1518.89516,0.0124249
1517.93078,0.0123806
1516.96641,0.0123437
1516.00203,0.0123088
1515.03765,0.0122759
1514.07327,0.0122460
1513.10889,0.0122196
1512.14452,0.0122072
1511.18014,0.0122131
1510.21576,0.0122217
1509.25138,0.0122264
1508.28700,0.0122169
1507.32263,0.0121961
1506.35825,0.0121857
1505.39387,0.0121747
1504.42949,0.0121534
1503.46512,0.0121302
1502.50074,0.0120984
1501.53636,0.0120723
1500.57198,0.0120674
1499.60760,0.0120693
1498.64323,0.0120714
1497.67885,0.0120669
1496.71447,0.0120550
1495.75009,0.0120522
1494.78571,0.0120580
1493.82134,0.0120650
1492.85696,0.0120840
1491.89258,0.0121140
1490.92820,0.0121368
1489.96382,0.0121607
1488.99945,0.0121918
1488.03507,0.0122196
1487.07069,0.0122461
1486.10631,0.0122687
1485.14194,0.0122952
1484.17756,0.0123300
1483.21318,0.0123545
1482.24880,0.0123830
1481.28442,0.0124331
1480.32005,0.0124866
1479.35567,0.0125314
1478.39129,0.0125781
1477.42691,0.0126394
1476.46253,0.0126995
1475.49816,0.0127449
1474.53378,0.0127838
1473.56940,0.0128233
1472.60502,0.0128658
1471.64065,0.0129050
1470.67627,0.0129560
1469.71189,0.0130332
1468.74751,0.0131139
1467.78313,0.0131925
1466.81876,0.0132733
1465.85438,0.0133509
1464.89000,0.0134171
1463.92562,0.0134704
1462.96124,0.0135243
1461.99687,0.0135869
1461.03249,0.0136591
1460.06811,0.0137346
1459.10373,0.0138158
1458.13935,0.0139127
1457.17498,0.0140098
1456.21060,0.0140867
1455.24622,0.0141474
1454.28184,0.0142050
1453.31747,0.0142515
1452.35309,0.0142872
1451.38871,0.0143321
1450.42433,0.0143878
1449.45995,0.0144502
1448.49558,0.0145299
1447.53120,0.0146247
1446.56682,0.0147171
1445.60244,0.0148047
1444.63806,0.0148847
1443.67369,0.0149545
1442.70931,0.0150181
1441.74493,0.0150740
1440.78055,0.0151378
1439.81618,0.0152075
1438.85180,0.0152636
1437.88742,0.0153163
1436.92304,0.0153764
1435.95866,0.0154406
1434.99429,0.0155065
1434.02991,0.0155761
1433.06553,0.0156388
1432.10115,0.0156956
1431.13677,0.0157693
1430.17240,0.0158646
1429.20802,0.0159687
1428.24364,0.0160592
1427.27926,0.0161270
1426.31488,0.0161782
1425.35051,0.0162285
1424.38613,0.0162962
1423.42175,0.0163594
1422.45737,0.0163920
1421.49300,0.0164066
1420.52862,0.0164338
1419.56424,0.0164715
1418.59986,0.0165019
1417.63548,0.0165358
1416.67111,0.0165678
1415.70673,0.0165908
1414.74235,0.0166180
1413.77797,0.0166538
1412.81359,0.0166955
1411.84922,0.0167304
1410.88484,0.0167642
1409.92046,0.0168053
1408.95608,0.0168443
1407.99171,0.0168772
1407.02733,0.0169098
1406.06295,0.0169461
1405.09857,0.0169856
1404.13419,0.0170319
1403.16982,0.0170729
1402.20544,0.0170972
1401.24106,0.0171132
1400.27668,0.0171252
1399.31230,0.0171431
1398.34793,0.0171597
1397.38355,0.0171654
1396.41917,0.0171805
1395.45479,0.0172038
1394.49041,0.0172139
1393.52604,0.0172233
1392.56166,0.0172487
1391.59728,0.0172792
1390.63290,0.0173134
1389.66853,0.0173350
1388.70415,0.0173401
1387.73977,0.0173634
1386.77539,0.0173986
1385.81101,0.0174326
1384.84664,0.0174680
1383.88226,0.0174936
1382.91788,0.0175066
1381.95350,0.0175142
1380.98912,0.0175258
1380.02475,0.0175436
1379.06037,0.0175765
1378.09599,0.0176170
1377.13161,0.0176544
1376.16724,0.0176953
1375.20286,0.0177310
1374.23848,0.0177693
1373.27410,0.0178054
1372.30972,0.0178264
1371.34535,0.0178417
1370.38097,0.0178432
1369.41659,0.0178368
1368.45221,0.0178408
1367.48783,0.0178665
1366.52346,0.0179040
1365.55908,0.0179236
1364.59470,0.0179249
1363.63032,0.0179229
1362.66594,0.0179276
1361.70157,0.0179331
1360.73719,0.0179345
1359.77281,0.0179381
1358.80843,0.0179406
1357.84406,0.0179563
1356.87968,0.0179838
1355.91530,0.0180028
1354.95092,0.0180150
1353.98654,0.0180196
1353.02217,0.0180209
1352.05779,0.0180296
1351.09341,0.0180466
1350.12903,0.0180711
1349.16465,0.0180984
1348.20028,0.0181196
1347.23590,0.0181356
1346.27152,0.0181592
1345.30714,0.0181823
1344.34276,0.0181938
1343.37839,0.0182075
1342.41401,0.0182240
1341.44963,0.0182461
1340.48525,0.0182820
1339.52088,0.0183175
1338.55650,0.0183460
1337.59212,0.0183646
1336.62774,0.0183680
1335.66336,0.0183589
1334.69899,0.0183469
1333.73461,0.0183411
1332.77023,0.0183434
1331.80585,0.0183542
1330.84147,0.0183699
1329.87710,0.0184013
1328.91272,0.0184549
1327.94834,0.0185130
1326.98396,0.0185654
1326.01959,0.0186059
1325.05521,0.0186380
1324.09083,0.0186682
1323.12645,0.0186932
1322.16207,0.0187191
1321.19770,0.0187547
1320.23332,0.0188037
1319.26894,0.0188562
1318.30456,0.0189013
1317.34018,0.0189432
1316.37581,0.0189864
1315.41143,0.0190229
1314.44705,0.0190459
1313.48267,0.0190704
1312.51829,0.0190974
1311.55392,0.0191257
1310.58954,0.0191718
1309.62516,0.0192346
1308.66078,0.0193064
1307.69641,0.0193727
1306.73203,0.0194242
1305.76765,0.0194798
1304.80327,0.0195441
1303.83889,0.0196039
1302.87452,0.0196612
1301.91014,0.0197224
1300.94576,0.0197807
1299.98138,0.0198375
1299.01700,0.0199000
1298.05263,0.0199603
1297.08825,0.0200151
1296.12387,0.0200710
1295.15949,0.0201287
1294.19512,0.0201908
1293.23074,0.0202576
1292.26636,0.0203264
1291.30198,0.0204060
1290.33760,0.0204905
1289.37323,0.0205606
1288.40885,0.0206232
1287.44447,0.0206862
1286.48009,0.0207355
1285.51571,0.0207709
1284.55134,0.0208087
1283.58696,0.0208488
1282.62258,0.0208901
1281.65820,0.0209377
1280.69382,0.0209907
1279.72945,0.0210616
1278.76507,0.0211398
1277.80069,0.0212036
1276.83631,0.0212708
1275.87194,0.0213357
1274.90756,0.0213832
1273.94318,0.0214284
1272.97880,0.0214780
1272.01442,0.0215291
1271.05005,0.0215747
1270.08567,0.0216141
1269.12129,0.0216567
1268.15691,0.0217022
1267.19253,0.0217434
1266.22816,0.0217753
1265.26378,0.0218029
1264.29940,0.0218322
1263.33502,0.0218712
1262.37065,0.0219106
1261.40627,0.0219395
1260.44189,0.0219740
1259.47751,0.0220117
1258.51313,0.0220467
1257.54876,0.0220778
1256.58438,0.0221001
1255.62000,0.0221248
1254.65562,0.0221430
1253.69124,0.0221483
1252.72687,0.0221551
1251.76249,0.0221620
1250.79811,0.0221599
1249.83373,0.0221568
1248.86935,0.0221725
1247.90498,0.0221970
1246.94060,0.0222150
1245.97622,0.0222289
1245.01184,0.0222427
1244.04747,0.0222613
1243.08309,0.0222753
1242.11871,0.0222877
1241.15433,0.0222981
1240.18995,0.0222966
1239.22558,0.0222973
1238.26120,0.0223047
1237.29682,0.0223068
1236.33244,0.0222918
1235.36806,0.0222655
1234.40369,0.0222495
1233.43931,0.0222390
1232.47493,0.0222185
1231.51055,0.0222002
1230.54618,0.0221962
1229.58180,0.0221894
1228.61742,0.0221787
1227.65304,0.0221753
1226.68866,0.0221629
1225.72429,0.0221400
1224.75991,0.0221161
1223.79553,0.0220904
1222.83115,0.0220696
1221.86677,0.0220383
1220.90240,0.0219891
1219.93802,0.0219446
1218.97364,0.0219025
1218.00926,0.0218587
1217.04488,0.0218234
1216.08051,0.0217805
1215.11613,0.0217155
1214.15175,0.0216425
1213.18737,0.0215778
1212.22300,0.0215254
1211.25862,0.0214789
1210.29424,0.0214264
1209.32986,0.0213773
1208.36548,0.0213369
1207.40111,0.0212929
1206.43673,0.0212606
1205.47235,0.0212386
1204.50797,0.0212056
1203.54359,0.0211618
1202.57922,0.0211122
1201.61484,0.0210758
1200.65046,0.0210509
1199.68608,0.0210152
1198.72171,0.0209717
1197.75733,0.0209280
1196.79295,0.0208847
1195.82857,0.0208501
1194.86419,0.0208278
1193.89982,0.0208042
1192.93544,0.0207790
1191.97106,0.0207542
1191.00668,0.0207202
1190.04230,0.0206791
1189.07793,0.0206394
1188.11355,0.0206100
1187.14917,0.0205797
1186.18479,0.0205455
1185.22041,0.0205292
1184.25604,0.0205328
1183.29166,0.0205332
1182.32728,0.0205226
1181.36290,0.0205190
1180.39853,0.0205220
1179.43415,0.0205230
1178.46977,0.0205114
1177.50539,0.0204861
1176.54101,0.0204621
1175.57664,0.0204353
1174.61226,0.0204104
1173.64788,0.0203864
1172.68350,0.0203562
1171.71912,0.0203276
1170.75475,0.0203079
1169.79037,0.0202992
1168.82599,0.0202813
1167.86161,0.0202453
1166.89724,0.0201888
1165.93286,0.0201274
1164.96848,0.0200848
1164.00410,0.0200398
1163.03972,0.0199935
1162.07535,0.0199573
1161.11097,0.0199295
1160.14659,0.0199106
1159.18221,0.0198958
1158.21783,0.0198748
1157.25346,0.0198335
1156.28908,0.0197887
1155.32470,0.0197534
1154.36032,0.0197318
1153.39594,0.0197187
1152.43157,0.0196973
1151.46719,0.0196849
1150.50281,0.0196751
1149.53843,0.0196493
1148.57406,0.0196220
1147.60968,0.0195992
1146.64530,0.0195766
1145.68092,0.0195451
1144.71654,0.0195027
1143.75217,0.0194541
1142.78779,0.0194006
1141.82341,0.0193487
1140.85903,0.0193084
1139.89465,0.0192816
1138.93028,0.0192487
1137.96590,0.0192112
1137.00152,0.0191963
1136.03714,0.0191790
1135.07276,0.0191426
1134.10839,0.0191111
1133.14401,0.0190732
1132.17963,0.0190396
1131.21525,0.0190381
1130.25088,0.0190660
1129.28650,0.0190999
1128.32212,0.0191158
1127.35774,0.0191262
1126.39336,0.0191422
1125.42899,0.0191610
1124.46461,0.0191538
1123.50023,0.0191205
1122.53585,0.0191037
1121.57147,0.0190957
1120.60710,0.0190983
1119.64272,0.0191160
1118.67834,0.0191332
1117.71396,0.0191401
1116.74959,0.0191403
1115.78521,0.0191564
1114.82083,0.0191772
1113.85645,0.0191983
1112.89207,0.0192168
1111.92770,0.0192312
1110.96332,0.0192537
1109.99894,0.0192773
1109.03456,0.0193043
1108.07018,0.0193312
1107.10581,0.0193583
1106.14143,0.0193759
1105.17705,0.0193861
1104.21267,0.0194053
1103.24829,0.0194285
1102.28392,0.0194592
1101.31954,0.0194740
1100.35516,0.0194796
1099.39078,0.0194950
1098.42641,0.0195097
1097.46203,0.0195355
1096.49765,0.0195596
1095.53327,0.0195581
1094.56889,0.0195382
1093.60452,0.0195421
1092.64014,0.0195745
1091.67576,0.0196140
1090.71138,0.0196583
1089.74700,0.0196929
1088.78263,0.0197414
1087.81825,0.0198136
1086.85387,0.0198959
1085.88949,0.0199855
1084.92512,0.0200543
1083.96074,0.0200913
1082.99636,0.0201127
1082.03198,0.0201356
1081.06760,0.0201524
1080.10323,0.0201679
1079.13885,0.0201904
1078.17447,0.0202026
1077.21009,0.0202142
1076.24571,0.0202435
1075.28134,0.0203001
1074.31696,0.0203659
1073.35258,0.0204021
1072.38820,0.0204113
1071.42382,0.0204330
1070.45945,0.0204745
1069.49507,0.0205092
1068.53069,0.0205304
1067.56631,0.0205367
1066.60194,0.0205306
1065.63756,0.0205277
1064.67318,0.0205492
1063.70880,0.0205931
1062.74442,0.0206308
1061.78005,0.0206543
1060.81567,0.0206830
1059.85129,0.0207392
1058.88691,0.0207903
1057.92253,0.0208040
1056.95816,0.0207895
1055.99378,0.0207636
1055.02940,0.0207459
1054.06502,0.0207182
1053.10065,0.0206836
1052.13627,0.0206365
1051.17189,0.0205597
1050.20751,0.0204942
1049.24313,0.0204541
1048.27876,0.0204090
1047.31438,0.0203201
1046.35000,0.0202017
1045.38562,0.0200896
1044.42124,0.0199867
1043.45687,0.0198792
1042.49249,0.0197500
1041.52811,0.0196351
1040.56373,0.0195362
1039.59935,0.0194342
1038.63498,0.0193486
1037.67060,0.0192747
1036.70622,0.0192063
1035.74184,0.0191206
1034.77747,0.0190134
1033.81309,0.0189081
1032.84871,0.0188024
1031.88433,0.0186747
1030.91995,0.0185261
1029.95558,0.0183923
1028.99120,0.0182682
1028.02682,0.0181445
1027.06244,0.0180250
1026.09806,0.0179108
1025.13369,0.0178190
1024.16931,0.0177393
1023.20493,0.0176497
1022.24055,0.0175630
1021.27618,0.0175035
1020.31180,0.0174379
1019.34742,0.0173560
1018.38304,0.0172970
1017.41866,0.0172588
1016.45429,0.0172304
1015.48991,0.0171934
1014.52553,0.0171478
1013.56115,0.0170999
1012.59677,0.0170399
1011.63240,0.0169684
1010.66802,0.0168936
1009.70364,0.0168324
1008.73926,0.0167526
1007.77488,0.0166542
1006.81051,0.0165800
1005.84613,0.0165241
1004.88175,0.0164770
1003.91737,0.0164349
1002.95300,0.0164080
1001.98862,0.0163812
1001.02424,0.0163499
1000.05986,0.0163358
999.09548,0.0163298
998.13111,0.0163313
997.16673,0.0163172
996.20235,0.0162881
995.23797,0.0162651
994.27359,0.0162443
993.30922,0.0162307
992.34484,0.0162040
991.38046,0.0161686
990.41608,0.0161338
989.45171,0.0160933
988.48733,0.0160488
987.52295,0.0160040
986.55857,0.0159964
985.59419,0.0160096
984.62982,0.0160072
983.66544,0.0159900
982.70106,0.0159648
981.73668,0.0159517
980.77230,0.0159294
979.80793,0.0158834
978.84355,0.0158106
977.87917,0.0157067
976.91479,0.0156104
975.95041,0.0155267
974.98604,0.0154641
974.02166,0.0154328
973.05728,0.0154027
972.09290,0.0153702
971.12853,0.0153379
970.16415,0.0153046
969.19977,0.0152565
968.23539,0.0151826
967.27101,0.0151052
966.30664,0.0150447
965.34226,0.0150076
964.37788,0.0149721
963.41350,0.0149588
962.44912,0.0149875
961.48475,0.0150018
960.52037,0.0149864
959.55599,0.0149401
958.59161,0.0148556
957.62724,0.0147668
956.66286,0.0146978
955.69848,0.0146292
954.73410,0.0145290
953.76972,0.0144186
952.80535,0.0143215
951.84097,0.0142394
950.87659,0.0141641
949.91221,0.0140762
948.94783,0.0140058
947.98346,0.0139764
947.01908,0.0139726
946.05470,0.0139809
945.09032,0.0139940
944.12594,0.0139748
943.16157,0.0139051
942.19719,0.0138560
941.23281,0.0138317
940.26843,0.0137866
939.30406,0.0137360
938.33968,0.0136795
937.37530,0.0136312
936.41092,0.0136125
935.44654,0.0135913
934.48217,0.0135383
933.51779,0.0134715
932.55341,0.0134000
931.58903,0.0133350
930.62465,0.0132990
929.66028,0.0132524
928.69590,0.0131861
927.73152,0.0131245
926.76714,0.0130512
925.80276,0.0129826
924.83839,0.0129435
923.87401,0.0129269
922.90963,0.0129157
921.94525,0.0129084
920.98088,0.0128980
920.01650,0.0128686
919.05212,0.0128284
918.08774,0.0127964
917.12336,0.0128030
916.15899,0.0128098
915.19461,0.0127798
914.23023,0.0127439
913.26585,0.0126899
912.30147,0.0126414
911.33710,0.0126144
910.37272,0.0125552
909.40834,0.0124507
908.44396,0.0123286
907.47959,0.0122341
906.51521,0.0121851
905.55083,0.0121725
904.58645,0.0121835
903.62207,0.0122139
902.65770,0.0122556
901.69332,0.0122858
900.72894,0.0123437
899.76456,0.0124241
898.80018,0.0124622
897.83581,0.0124714
896.87143,0.0124741
895.90705,0.0124699
894.94267,0.0124539
893.97829,0.0124229
893.01392,0.0123930
892.04954,0.0123732
891.08516,0.0123596
890.12078,0.0123617
889.15641,0.0124050
888.19203,0.0124655
887.22765,0.0125124
886.26327,0.0125688
885.29889,0.0126270
884.33452,0.0126478
883.37014,0.0126176
882.40576,0.0125602
881.44138,0.0125251
880.47700,0.0125314
879.51263,0.0125499
878.54825,0.0125609
877.58387,0.0125717
876.61949,0.0125619
875.65512,0.0125359
874.69074,0.0125337
873.72636,0.0125218
872.76198,0.0124789
871.79760,0.0124479
870.83323,0.0124593
869.86885,0.0125283
868.90447,0.0126059
867.94009,0.0126444
866.97571,0.0126678
866.01134,0.0126912
865.04696,0.0127092
864.08258,0.0127145
863.11820,0.0127077
862.15382,0.0126732
861.18945,0.0126179
860.22507,0.0125745
859.26069,0.0125427
858.29631,0.0125311
857.33194,0.0125142
856.36756,0.0125059
855.40318,0.0125617
854.43880,0.0126327
853.47442,0.0126907
852.51005,0.0127239
851.54567,0.0127192
850.58129,0.0127160
849.61691,0.0127226
848.65253,0.0127324
847.68816,0.0127328
846.72378,0.0127248
845.75940,0.0127325
844.79502,0.0127780
843.83065,0.0128391
842.86627,0.0128446
841.90189,0.0128067
840.93751,0.0127610
839.97313,0.0127221
839.00876,0.0127158
838.04438,0.0127168
837.08000,0.0127111
836.11562,0.0126950
835.15124,0.0126745
834.18687,0.0126682
833.22249,0.0126500
832.25811,0.0126095
831.29373,0.0125578
830.32935,0.0125087
829.36498,0.0124697
828.40060,0.0124282
827.43622,0.0123940
826.47184,0.0123815
825.50747,0.0123811
824.54309,0.0123814
823.57871,0.0123919
822.61433,0.0123982
821.64995,0.0123686
820.68558,0.0123389
819.72120,0.0123451
818.75682,0.0123595
817.79244,0.0123475
816.82806,0.0123091
815.86369,0.0122695
814.89931,0.0122294
813.93493,0.0121911
812.97055,0.0121710
812.00618,0.0121520
811.04180,0.0121081
810.07742,0.0120362
809.11304,0.0119854
808.14866,0.0119815
807.18429,0.0119749
806.21991,0.0119572
805.25553,0.0119451
804.29115,0.0119430
803.32677,0.0119613
802.36240,0.0119905
801.39802,0.0120035
800.43364,0.0119847
799.46926,0.0119662
798.50488,0.0119410
797.54051,0.0118875
796.57613,0.0118422
795.61175,0.0118059
794.64737,0.0117639
793.68300,0.0117324
792.71862,0.0117456
791.75424,0.0117918
790.78986,0.0118169
789.82548,0.0118043
788.86111,0.0117722
787.89673,0.0117724
786.93235,0.0117884
785.96797,0.0117801
785.00359,0.0117790
784.03922,0.0117788
783.07484,0.0117544
782.11046,0.0117282
781.14608,0.0117318
780.18171,0.0117385
779.21733,0.0117258
778.25295,0.0117035
777.28857,0.0116834
776.32419,0.0116818
775.35982,0.0116701
774.39544,0.0116544
773.43106,0.0116499
772.46668,0.0116665
771.50230,0.0116982
770.53793,0.0117070
769.57355,0.0117389
768.60917,0.0117703
767.64479,0.0117690
766.68041,0.0117600
765.71604,0.0117089
764.75166,0.0116491
763.78728,0.0116278
762.82290,0.0116268
761.85853,0.0116367
760.89415,0.0116976
759.92977,0.0117738
758.96539,0.0118082
758.00101,0.0118677
757.03664,0.0119460
756.07226,0.0120114
755.10788,0.0120668
754.14350,0.0120839
753.17912,0.0120760
752.21475,0.0120632
751.25037,0.0120258
750.28599,0.0119532
749.32161,0.0118957
748.35724,0.0118390
747.39286,0.0117646
746.42848,0.0117462
745.46410,0.0117988
744.49972,0.0118581
743.53535,0.0118839
742.57097,0.0118955
741.60659,0.0118985
740.64221,0.0119392
739.67783,0.0119742
738.71346,0.0119497
737.74908,0.0119828
736.78470,0.0120202
735.82032,0.0119787
734.85594,0.0119386
733.89157,0.0119272
732.92719,0.0118956
731.96281,0.0118558
730.99843,0.0118559
730.03406,0.0118637
729.06968,0.0119191
728.10530,0.0119836
727.14092,0.0119991
726.17654,0.0120450
725.21217,0.0120546
724.24779,0.0119973
723.28341,0.0119747
722.31903,0.0119970
721.35465,0.0120063
720.39028,0.0120024
719.42590,0.0119966
718.46152,0.0120003
717.49714,0.0120625
716.53276,0.0121206
715.56839,0.0121417
714.60401,0.0121731
713.63963,0.0121881
712.67525,0.0121854
711.71088,0.0122051
710.74650,0.0122524
709.78212,0.0122851
708.81774,0.0122909
707.85336,0.0122943
706.88899,0.0123076
705.92461,0.0123194
704.96023,0.0123303
703.99585,0.0123603
703.03147,0.0123718
702.06710,0.0123692
701.10272,0.0123715
700.13834,0.0123626
699.17396,0.0123829
698.20959,0.0124276
697.24521,0.0124688
696.28083,0.0125089
695.31645,0.0125326
694.35207,0.0125376
693.38770,0.0125484
692.42332,0.0125606
691.45894,0.0125498
690.49456,0.0125456
689.53018,0.0125431
688.56581,0.0125310
687.60143,0.0125590
686.63705,0.0126135
685.67267,0.0126618
684.70829,0.0127008
683.74392,0.0127116
682.77954,0.0127108
681.81516,0.0127237
680.85078,0.0127304
679.88641,0.0127266
678.92203,0.0127337
677.95765,0.0127402
676.99327,0.0127317
676.02889,0.0127345
675.06452,0.0126729
674.10014,0.0125200
673.13576,0.0126500
672.17138,0.0131141
671.20700,0.0135703
670.24263,0.0139118
669.27825,0.0141207
668.31387,0.0141870
667.34949,0.0141443
666.38512,0.0139983
665.42074,0.0137185
664.45636,0.0133126
663.49198,0.0128379
662.52760,0.0124642
661.56323,0.0124847
660.59885,0.0126903
659.63447,0.0127560
658.67009,0.0127580
657.70571,0.0127698
656.74134,0.0128171
655.77696,0.0128817
654.81258,0.0129255
653.84820,0.0129546
652.88382,0.0129814
651.91945,0.0130248
650.95507,0.0130441
649.99069,0.0130205
649.02631,0.0129751
648.06194,0.0129141
647.09756,0.0128326
646.13318,0.0127671
645.16880,0.0127795
644.20442,0.0127956
643.24005,0.0127728
642.27567,0.0127616
641.31129,0.0127481
640.34691,0.0127324
639.38253,0.0127258
638.41816,0.0127229
637.45378,0.0127435
636.48940,0.0127822
635.52502,0.0128051
634.56065,0.0128326
633.59627,0.0128694
632.63189,0.0128651
631.66751,0.0128459
630.70313,0.0128368
629.73876,0.0128565
628.77438,0.0128955
627.81000,0.0128874
626.84562,0.0127856
625.88124,0.0125794
624.91687,0.0123090
623.95249,0.0119269
622.98811,0.0115553
622.02373,0.0113711
621.05935,0.0111922
620.09498,0.0110200
619.13060,0.0111024
618.16622,0.0113792
617.20184,0.0115832
616.23747,0.0117290
615.27309,0.0118436
614.30871,0.0115255
613.34433,0.0108736
612.37995,0.0101988
611.41558,0.0097590
610.45120,0.0097230
609.48682,0.0097827
608.52244,0.0102816
607.55806,0.0114427
606.59369,0.0124976
605.62931,0.0131310
604.66493,0.0136641
603.70055,0.0141258
602.73618,0.0140864
601.77180,0.0137922
600.80742,0.0134927
599.84304,0.0131020
598.87866,0.0128262
597.91429,0.0127502
596.94991,0.0129877
595.98553,0.0132387
595.02115,0.0131373
594.05677,0.0129453
593.09240,0.0129342
592.12802,0.0131542
591.16364,0.0133626
590.19926,0.0135346
589.23488,0.0136465
588.27051,0.0135718
587.30613,0.0135106
586.34175,0.0134999
585.37737,0.0134425
584.41300,0.0132884
583.44862,0.0131522
582.48424,0.0131214
581.51986,0.0130956
580.55548,0.0131826
579.59111,0.0132908
578.62673,0.0133014
577.66235,0.0132706
576.69797,0.0131698
575.73359,0.0131326
574.76922,0.0131857
573.80484,0.0132179
572.84046,0.0131414
571.87608,0.0130116
570.91171,0.0129508
569.94733,0.0128854
568.98295,0.0128384
568.01857,0.0127613
567.05419,0.0126127
566.08982,0.0124835
565.12544,0.0123431
564.16106,0.0122990
563.19668,0.0123785
562.23230,0.0124177
561.26793,0.0124308
560.30355,0.0124858
559.33917,0.0125280
558.37479,0.0125355
557.41041,0.0126022
556.44604,0.0127324
555.48166,0.0128127
554.51728,0.0127832
553.55290,0.0127277
552.58853,0.0127241
551.62415,0.0127129
550.65977,0.0126593
549.69539,0.0126001
548.73101,0.0124992
547.76664,0.0123270
546.80226,0.0122288
545.83788,0.0122722
544.87350,0.0123537
543.90912,0.0124219
542.94475,0.0125080
541.98037,0.0126723
541.01599,0.0128248
540.05161,0.0128620
539.08724,0.0128592
538.12286,0.0128625
537.15848,0.0128740
536.19410,0.0128729
535.22972,0.0128620
534.26535,0.0128710
533.30097,0.0128242
532.33659,0.0127404
531.37221,0.0127000
530.40783,0.0126740
529.44346,0.0126262
528.47908,0.0125212
527.51470,0.0124492
526.55032,0.0124906
525.58594,0.0125251
524.62157,0.0125219
523.65719,0.0125294
522.69281,0.0125192
521.72843,0.0124734
520.76406,0.0124449
519.79968,0.0124661
518.83530,0.0124735
517.87092,0.0124139
516.90654,0.0123224
515.94217,0.0122867
514.97779,0.0122451
514.01341,0.0121558
513.04903,0.0121434
512.08465,0.0121592
511.12028,0.0121619
510.15590,0.0121897
509.19152,0.0121835
508.22714,0.0121995
507.26276,0.0122466
506.29839,0.0122232
505.33401,0.0122131
504.36963,0.0122672
503.40525,0.0122919
502.44088,0.0123327
501.47650,0.0124163
500.51212,0.0124524
499.54774,0.0124466
498.58336,0.0124307
497.61899,0.0123712
496.65461,0.0122841
495.69023,0.0122514
494.72585,0.0122524
493.76147,0.0122543
492.79710,0.0122608
491.83272,0.0122634
490.86834,0.0123255
489.90396,0.0124260
488.93959,0.0125331
487.97521,0.0126364
487.01083,0.0126814
486.04645,0.0126881
485.08207,0.0126989
484.11770,0.0127663
483.15332,0.0127885
482.18894,0.0126702
481.22456,0.0125366
480.26018,0.0124506
479.29581,0.0124113
478.33143,0.0124131
477.36705,0.0124285
476.40267,0.0124062
475.43829,0.0123666
474.47392,0.0124067
473.50954,0.0125053
472.54516,0.0125847
471.58078,0.0125893
470.61641,0.0125663
469.65203,0.0125516
468.68765,0.0125286
467.72327,0.0125726
466.75889,0.0126069
465.79452,0.0124950
464.83014,0.0123145
463.86576,0.0121988
462.90138,0.0121711
461.93700,0.0121765
460.97263,0.0121841
460.00825,0.0122444
459.04387,0.0123752
458.07949,0.0124828
457.11512,0.0126080
456.15074,0.0127412
455.18636,0.0127156
454.22198,0.0126145
453.25760,0.0125623
452.29323,0.0124994
451.32885,0.0123581
450.36447,0.0121648
449.40009,0.0120366
448.43571,0.0120324
447.47134,0.0120932
446.50696,0.0121608
445.54258,0.0122762
444.57820,0.0123818
443.61382,0.0124122
442.64945,0.0124657
441.68507,0.0125028
440.72069,0.0124191
439.75631,0.0122479
438.79194,0.0121025
437.82756,0.0120431
436.86318,0.0120210
435.89880,0.0120213
434.93442,0.0120577
433.97005,0.0121495
433.00567,0.0122289
432.04129,0.0122346
431.07691,0.0122611
430.11253,0.0122959
429.14816,0.0122661
428.18378,0.0121584
427.21940,0.0120261
426.25502,0.0119557
425.29065,0.0119019
424.32627,0.0118359
423.36189,0.0117981
422.39751,0.0118254
421.43313,0.0118998
420.46876,0.0119509
419.50438,0.0120135
418.54000,0.0120815
417.57562,0.0120748
416.61124,0.0120076
415.64687,0.0119340
414.68249,0.0118594
413.71811,0.0117494
412.75373,0.0115849
411.78935,0.0114051
410.82498,0.0112923
409.86060,0.0112412
408.89622,0.0111931
407.93184,0.0111697
406.96747,0.0111941
406.00309,0.0112613
405.03871,0.0113579
404.07433,0.0113579
403.10995,0.0113579
402.14558,0.0113579
401.18120,0.0113579
400.21682,0.0113579
399.25244,0.0113579
