3998.31069,0.0012512
3997.34631,0.0012512
3996.38194,0.0012512
3995.41756,0.0012512
3994.45318,0.0012512
3993.48880,0.0012512
3992.52442,0.0012512
3991.56005,0.0013066
3990.59567,0.0013215
3989.63129,0.0013053
3988.66691,0.0013009
3987.70253,0.0013135
3986.73816,0.0012996
3985.77378,0.0013006
3984.80940,0.0012541
3983.84502,0.0011357
3982.88065,0.0011079
3981.91627,0.0011312
3980.95189,0.0011076
3979.98751,0.0010842
3979.02313,0.0011216
3978.05876,0.0011786
3977.09438,0.0012509
3976.13000,0.0013734
3975.16562,0.0014513
3974.20124,0.0014905
3973.23687,0.0014980
3972.27249,0.0014290
3971.30811,0.0013538
3970.34373,0.0012981
3969.37935,0.0012439
3968.41498,0.0011924
3967.45060,0.0011438
3966.48622,0.0010619
3965.52184,0.0010034
3964.55747,0.0010419
3963.59309,0.0010585
3962.62871,0.0010322
3961.66433,0.0010403
3960.69995,0.0010176
3959.73558,0.0009711
3958.77120,0.0010331
3957.80682,0.0011602
3956.84244,0.0012364
3955.87806,0.0012890
3954.91369,0.0013364
3953.94931,0.0013846
3952.98493,0.0014331
3952.02055,0.0014244
3951.05618,0.0013581
3950.09180,0.0012793
3949.12742,0.0012106
3948.16304,0.0012199
3947.19866,0.0013175
3946.23429,0.0013732
3945.26991,0.0013932
3944.30553,0.0014650
3943.34115,0.0015445
3942.37677,0.0015673
3941.41240,0.0015328
3940.44802,0.0015012
3939.48364,0.0015008
3938.51926,0.0015158
3937.55488,0.0015340
3936.59051,0.0015706
3935.62613,0.0015922
3934.66175,0.0015442
3933.69737,0.0014955
3932.73300,0.0014832
3931.76862,0.0014886
3930.80424,0.0014748
3929.83986,0.0014461
3928.87548,0.0014798
3927.91111,0.0015360
3926.94673,0.0015505
3925.98235,0.0014949
3925.01797,0.0014440
3924.05359,0.0014556
3923.08922,0.0014256
3922.12484,0.0013676
3921.16046,0.0013273
3920.19608,0.0013082
3919.23171,0.0013125
3918.26733,0.0013470
3917.30295,0.0014268
3916.33857,0.0014650
3915.37419,0.0014606
3914.40982,0.0014587
3913.44544,0.0014691
3912.48106,0.0014944
3911.51668,0.0014734
3910.55230,0.0014397
3909.58793,0.0014601
3908.62355,0.0015177
3907.65917,0.0015604
3906.69479,0.0015674
3905.73041,0.0015491
3904.76604,0.0014915
3903.80166,0.0014231
3902.83728,0.0013477
3901.87290,0.0012607
3900.90853,0.0012158
3899.94415,0.0011992
3898.97977,0.0011902
3898.01539,0.0012065
3897.05101,0.0011925
3896.08664,0.0011509
3895.12226,0.0011190
3894.15788,0.0010582
3893.19350,0.0010293
3892.22912,0.0010547
3891.26475,0.0010709
3890.30037,0.0011340
3889.33599,0.0012482
3888.37161,0.0013310
3887.40724,0.0013841
3886.44286,0.0014532
3885.47848,0.0015081
3884.51410,0.0015568
3883.54972,0.0015889
3882.58535,0.0015586
3881.62097,0.0015534
3880.65659,0.0015336
3879.69221,0.0014484
3878.72783,0.0013777
3877.76346,0.0013015
3876.79908,0.0012429
3875.83470,0.0012634
3874.87032,0.0013193
3873.90594,0.0013364
3872.94157,0.0013559
3871.97719,0.0013805
3871.01281,0.0013494
3870.04843,0.0013195
3869.08406,0.0013000
3868.11968,0.0013122
3867.15530,0.0013657
3866.19092,0.0014099
3865.22654,0.0014657
3864.26217,0.0015341
3863.29779,0.0015857
3862.33341,0.0016077
3861.36903,0.0016367
3860.40465,0.0016471
3859.44028,0.0016014
3858.47590,0.0015485
3857.51152,0.0015008
3856.54714,0.0014621
3855.58276,0.0013925
3854.61839,0.0013003
3853.65401,0.0012200
3852.68963,0.0011734
3851.72525,0.0011936
3850.76088,0.0012324
3849.79650,0.0012844
3848.83212,0.0013214
3847.86774,0.0013330
3846.90336,0.0013625
3845.93899,0.0013559
3844.97461,0.0012953
3844.01023,0.0012273
3843.04585,0.0011765
3842.08147,0.0011484
3841.11710,0.0011946
3840.15272,0.0012852
3839.18834,0.0013219
3838.22396,0.0013083
3837.25959,0.0012781
3836.29521,0.0012598
3835.33083,0.0012061
3834.36645,0.0010843
3833.40207,0.0009649
3832.43770,0.0009304
3831.47332,0.0009925
3830.50894,0.0010941
3829.54456,0.0012012
3828.58018,0.0012887
3827.61581,0.0013754
3826.65143,0.0014408
3825.68705,0.0014833
3824.72267,0.0014935
3823.75829,0.0014111
3822.79392,0.0013319
3821.82954,0.0012774
3820.86516,0.0012622
3819.90078,0.0012846
3818.93641,0.0012300
3817.97203,0.0011529
3817.00765,0.0011458
3816.04327,0.0012250
3815.07889,0.0013122
3814.11452,0.0013961
3813.15014,0.0014787
3812.18576,0.0014932
3811.22138,0.0014876
3810.25700,0.0014148
3809.29263,0.0012648
3808.32825,0.0010974
3807.36387,0.0009485
3806.39949,0.0008720
3805.43512,0.0008323
3804.47074,0.0008339
3803.50636,0.0008749
3802.54198,0.0009471
3801.57760,0.0010233
3800.61323,0.0010612
3799.64885,0.0010741
3798.68447,0.0010461
3797.72009,0.0010338
3796.75571,0.0010728
3795.79134,0.0011211
3794.82696,0.0011309
3793.86258,0.0011453
3792.89820,0.0012191
3791.93382,0.0012913
3790.96945,0.0013645
3790.00507,0.0013910
3789.04069,0.0013593
3788.07631,0.0013416
3787.11194,0.0013529
3786.14756,0.0014103
3785.18318,0.0014183
3784.21880,0.0013488
3783.25442,0.0012693
3782.29005,0.0012054
3781.32567,0.0011701
3780.36129,0.0011619
3779.39691,0.0012021
3778.43253,0.0012290
3777.46816,0.0012503
3776.50378,0.0012945
3775.53940,0.0013307
3774.57502,0.0014202
3773.61065,0.0014902
3772.64627,0.0014974
3771.68189,0.0014994
3770.71751,0.0014486
3769.75313,0.0013972
3768.78876,0.0014051
3767.82438,0.0014145
3766.86000,0.0013929
3765.89562,0.0013218
3764.93124,0.0012277
3763.96687,0.0011511
3763.00249,0.0010682
3762.03811,0.0009790
3761.07373,0.0009237
3760.10935,0.0009035
3759.14498,0.0008599
3758.18060,0.0008039
3757.21622,0.0008203
3756.25184,0.0009035
3755.28747,0.0010137
3754.32309,0.0010835
3753.35871,0.0011221
3752.39433,0.0011628
3751.42995,0.0011533
3750.46558,0.0011568
3749.50120,0.0011855
3748.53682,0.0012038
3747.57244,0.0012487
3746.60806,0.0012899
3745.64369,0.0013402
3744.67931,0.0013984
3743.71493,0.0014563
3742.75055,0.0014677
3741.78618,0.0014105
3740.82180,0.0013844
3739.85742,0.0013377
3738.89304,0.0012593
3737.92866,0.0012204
3736.96429,0.0012227
3735.99991,0.0012807
3735.03553,0.0013012
3734.07115,0.0012599
3733.10677,0.0011996
3732.14240,0.0011078
3731.17802,0.0010119
3730.21364,0.0009625
3729.24926,0.0009943
3728.28488,0.0010420
3727.32051,0.0011108
3726.35613,0.0011838
3725.39175,0.0011815
3724.42737,0.0011893
3723.46300,0.0012087
3722.49862,0.0011957
3721.53424,0.0011505
3720.56986,0.0010487
3719.60548,0.0009715
3718.64111,0.0009687
3717.67673,0.0010124
3716.71235,0.0010793
3715.74797,0.0011323
3714.78359,0.0011496
3713.81922,0.0011885
3712.85484,0.0012701
3711.89046,0.0013443
3710.92608,0.0014319
3709.96171,0.0014926
3708.99733,0.0014907
3708.03295,0.0014908
3707.06857,0.0015136
3706.10419,0.0015291
3705.13982,0.0014693
3704.17544,0.0013636
3703.21106,0.0012609
3702.24668,0.0011793
3701.28230,0.0011361
3700.31793,0.0010928
3699.35355,0.0010795
3698.38917,0.0010732
3697.42479,0.0011047
3696.46041,0.0012302
3695.49604,0.0013270
3694.53166,0.0013460
3693.56728,0.0013025
3692.60290,0.0012778
3691.63853,0.0012862
3690.67415,0.0013069
3689.70977,0.0013806
3688.74539,0.0013643
3687.78101,0.0013019
3686.81664,0.0013338
3685.85226,0.0014092
3684.88788,0.0014880
3683.92350,0.0014754
3682.95912,0.0013455
3681.99475,0.0011925
3681.03037,0.0011226
3680.06599,0.0011142
3679.10161,0.0010793
3678.13724,0.0009977
3677.17286,0.0009142
3676.20848,0.0009881
3675.24410,0.0011596
3674.27972,0.0012595
3673.31535,0.0013016
3672.35097,0.0012805
3671.38659,0.0012096
3670.42221,0.0011675
3669.45783,0.0011875
3668.49346,0.0012218
3667.52908,0.0012154
3666.56470,0.0011528
3665.60032,0.0011441
3664.63594,0.0012317
3663.67157,0.0012596
3662.70719,0.0012476
3661.74281,0.0012231
3660.77843,0.0011742
3659.81406,0.0011798
3658.84968,0.0012157
3657.88530,0.0012363
3656.92092,0.0012323
3655.95654,0.0012118
3654.99217,0.0011726
3654.02779,0.0011809
3653.06341,0.0012543
3652.09903,0.0012924
3651.13465,0.0013178
3650.17028,0.0013103
3649.20590,0.0012647
3648.24152,0.0012308
3647.27714,0.0011640
3646.31276,0.0010760
3645.34839,0.0010155
3644.38401,0.0010017
3643.41963,0.0010244
3642.45525,0.0011133
3641.49088,0.0012071
3640.52650,0.0012156
3639.56212,0.0012423
3638.59774,0.0012843
3637.63336,0.0012900
3636.66899,0.0012755
3635.70461,0.0012159
3634.74023,0.0011753
3633.77585,0.0011832
3632.81147,0.0011883
3631.84710,0.0011972
3630.88272,0.0012456
3629.91834,0.0013450
3628.95396,0.0014578
3627.98959,0.0015623
3627.02521,0.0016559
3626.06083,0.0017123
3625.09645,0.0016877
3624.13207,0.0016021
3623.16770,0.0015388
3622.20332,0.0014639
3621.23894,0.0013567
3620.27456,0.0012934
3619.31018,0.0012778
3618.34581,0.0013197
3617.38143,0.0013698
3616.41705,0.0014041
3615.45267,0.0014683
3614.48829,0.0015040
3613.52392,0.0015348
3612.55954,0.0015894
3611.59516,0.0016015
3610.63078,0.0015590
3609.66641,0.0015263
3608.70203,0.0015181
3607.73765,0.0014604
3606.77327,0.0014097
3605.80889,0.0013931
3604.84452,0.0013634
3603.88014,0.0013377
3602.91576,0.0013260
3601.95138,0.0013478
3600.98700,0.0013373
3600.02263,0.0012907
3599.05825,0.0012846
3598.09387,0.0013249
3597.12949,0.0013878
3596.16512,0.0014472
3595.20074,0.0015141
3594.23636,0.0015423
3593.27198,0.0015224
3592.30760,0.0014618
3591.34323,0.0013731
3590.37885,0.0013435
3589.41447,0.0012992
3588.45009,0.0011681
3587.48571,0.0010222
3586.52134,0.0009324
3585.55696,0.0009241
3584.59258,0.0009931
3583.62820,0.0011064
3582.66382,0.0012064
3581.69945,0.0013233
3580.73507,0.0014481
3579.77069,0.0015853
3578.80631,0.0017565
3577.84194,0.0018287
3576.87756,0.0017751
3575.91318,0.0016953
3574.94880,0.0016701
3573.98442,0.0017108
3573.02005,0.0017382
3572.05567,0.0017098
3571.09129,0.0016452
3570.12691,0.0015916
3569.16253,0.0015261
3568.19816,0.0014260
3567.23378,0.0013557
3566.26940,0.0013248
3565.30502,0.0013041
3564.34065,0.0012989
3563.37627,0.0013128
3562.41189,0.0013242
3561.44751,0.0013258
3560.48313,0.0013304
3559.51876,0.0013338
3558.55438,0.0013263
3557.59000,0.0012836
3556.62562,0.0012127
3555.66124,0.0011899
3554.69687,0.0012316
3553.73249,0.0013041
3552.76811,0.0013877
3551.80373,0.0014179
3550.83935,0.0014592
3549.87498,0.0016098
3548.91060,0.0017512
3547.94622,0.0018073
3546.98184,0.0018071
3546.01747,0.0017420
3545.05309,0.0016352
3544.08871,0.0015731
3543.12433,0.0015677
3542.15995,0.0015284
3541.19558,0.0014361
3540.23120,0.0013251
3539.26682,0.0012729
3538.30244,0.0013103
3537.33806,0.0013158
3536.37369,0.0012616
3535.40931,0.0012315
3534.44493,0.0012633
3533.48055,0.0013297
3532.51618,0.0014154
3531.55180,0.0014917
3530.58742,0.0015043
3529.62304,0.0015329
3528.65866,0.0015759
3527.69429,0.0015589
3526.72991,0.0015256
3525.76553,0.0014673
3524.80115,0.0013872
3523.83677,0.0013373
3522.87240,0.0013388
3521.90802,0.0013512
3520.94364,0.0013439
3519.97926,0.0013502
3519.01488,0.0013572
3518.05051,0.0013911
3517.08613,0.0014300
3516.12175,0.0014092
3515.15737,0.0013936
3514.19300,0.0014064
3513.22862,0.0014056
3512.26424,0.0013952
3511.29986,0.0014335
3510.33548,0.0014851
3509.37111,0.0014907
3508.40673,0.0014895
3507.44235,0.0014512
3506.47797,0.0014140
3505.51359,0.0014225
3504.54922,0.0013994
3503.58484,0.0013539
3502.62046,0.0013207
3501.65608,0.0012961
3500.69171,0.0012781
3499.72733,0.0012877
3498.76295,0.0013274
3497.79857,0.0013445
3496.83419,0.0013234
3495.86982,0.0012933
3494.90544,0.0012577
3493.94106,0.0011938
3492.97668,0.0011266
3492.01230,0.0010773
3491.04793,0.0010775
3490.08355,0.0011478
3489.11917,0.0012093
3488.15479,0.0012838
3487.19041,0.0013993
3486.22604,0.0014795
3485.26166,0.0015415
3484.29728,0.0015791
3483.33290,0.0015402
3482.36853,0.0015001
3481.40415,0.0014920
3480.43977,0.0014520
3479.47539,0.0014261
3478.51101,0.0014222
3477.54664,0.0013749
3476.58226,0.0013290
3475.61788,0.0013098
3474.65350,0.0013079
3473.68912,0.0013142
3472.72475,0.0012841
3471.76037,0.0012772
3470.79599,0.0013674
3469.83161,0.0014609
3468.86724,0.0015069
3467.90286,0.0015584
3466.93848,0.0015871
3465.97410,0.0015929
3465.00972,0.0016035
3464.04535,0.0015860
3463.08097,0.0015154
3462.11659,0.0013977
3461.15221,0.0012914
3460.18783,0.0012334
3459.22346,0.0012208
3458.25908,0.0012285
3457.29470,0.0012402
3456.33032,0.0012643
3455.36594,0.0012667
3454.40157,0.0012820
3453.43719,0.0013552
3452.47281,0.0014616
3451.50843,0.0015873
3450.54406,0.0016881
3449.57968,0.0017434
3448.61530,0.0017781
3447.65092,0.0017888
3446.68654,0.0017692
3445.72217,0.0017455
3444.75779,0.0016706
3443.79341,0.0015139
3442.82903,0.0014180
3441.86465,0.0014374
3440.90028,0.0014931
3439.93590,0.0015320
3438.97152,0.0015311
3438.00714,0.0015391
3437.04276,0.0015952
3436.07839,0.0016536
3435.11401,0.0016827
3434.14963,0.0016947
3433.18525,0.0016520
3432.22088,0.0015864
3431.25650,0.0015659
3430.29212,0.0015156
3429.32774,0.0014153
3428.36336,0.0013009
3427.39899,0.0012202
3426.43461,0.0012488
3425.47023,0.0013406
3424.50585,0.0014386
3423.54147,0.0015222
3422.57710,0.0015835
3421.61272,0.0016317
3420.64834,0.0016451
3419.68396,0.0016268
3418.71959,0.0015644
3417.75521,0.0014480
3416.79083,0.0013052
3415.82645,0.0011782
3414.86207,0.0011426
3413.89770,0.0011803
3412.93332,0.0012115
3411.96894,0.0012513
3411.00456,0.0013113
3410.04018,0.0013625
3409.07581,0.0014297
3408.11143,0.0015353
3407.14705,0.0016422
3406.18267,0.0017185
3405.21829,0.0017589
3404.25392,0.0017622
3403.28954,0.0017712
3402.32516,0.0017901
3401.36078,0.0017535
3400.39641,0.0016896
3399.43203,0.0016100
3398.46765,0.0014949
3397.50327,0.0014249
3396.53889,0.0014116
3395.57452,0.0014152
3394.61014,0.0014163
3393.64576,0.0013835
3392.68138,0.0013190
3391.71700,0.0012551
3390.75263,0.0012447
3389.78825,0.0013008
3388.82387,0.0013867
3387.85949,0.0014388
3386.89512,0.0014433
3385.93074,0.0014910
3384.96636,0.0016067
3384.00198,0.0017032
3383.03760,0.0017141
3382.07323,0.0016715
3381.10885,0.0016220
3380.14447,0.0015844
3379.18009,0.0016150
3378.21571,0.0017008
3377.25134,0.0017620
3376.28696,0.0017690
3375.32258,0.0017520
3374.35820,0.0017533
3373.39382,0.0017636
3372.42945,0.0017336
3371.46507,0.0016408
3370.50069,0.0015537
3369.53631,0.0015236
3368.57194,0.0015188
3367.60756,0.0015175
3366.64318,0.0015146
3365.67880,0.0015457
3364.71442,0.0016205
3363.75005,0.0016799
3362.78567,0.0017204
3361.82129,0.0017718
3360.85691,0.0017969
3359.89253,0.0017747
3358.92816,0.0017704
3357.96378,0.0017749
3356.99940,0.0017314
3356.03502,0.0016723
3355.07065,0.0016473
3354.10627,0.0016448
3353.14189,0.0016032
3352.17751,0.0015475
3351.21313,0.0015412
3350.24876,0.0015539
3349.28438,0.0015514
3348.32000,0.0015767
3347.35562,0.0016780
3346.39124,0.0017803
3345.42687,0.0018409
3344.46249,0.0019155
3343.49811,0.0019727
3342.53373,0.0019457
3341.56935,0.0018340
3340.60498,0.0017380
3339.64060,0.0017111
3338.67622,0.0016832
3337.71184,0.0016713
3336.74747,0.0017451
3335.78309,0.0018434
3334.81871,0.0018657
3333.85433,0.0018529
3332.88995,0.0018434
3331.92558,0.0018074
3330.96120,0.0017467
3329.99682,0.0016672
3329.03244,0.0016439
3328.06806,0.0016688
3327.10369,0.0016437
3326.13931,0.0016334
3325.17493,0.0016891
3324.21055,0.0017095
3323.24618,0.0016597
3322.28180,0.0016374
3321.31742,0.0016433
3320.35304,0.0016307
3319.38866,0.0016356
3318.42429,0.0016727
3317.45991,0.0017285
3316.49553,0.0017211
3315.53115,0.0016537
3314.56677,0.0016243
3313.60240,0.0016175
3312.63802,0.0016088
3311.67364,0.0016104
3310.70926,0.0016626
3309.74488,0.0017330
3308.78051,0.0017465
3307.81613,0.0017408
3306.85175,0.0017554
3305.88737,0.0017757
3304.92300,0.0017398
3303.95862,0.0016732
3302.99424,0.0016466
3302.02986,0.0016470
3301.06548,0.0016688
3300.10111,0.0016861
3299.13673,0.0017364
3298.17235,0.0018216
3297.20797,0.0018501
3296.24359,0.0018508
3295.27922,0.0018837
3294.31484,0.0019225
3293.35046,0.0018976
3292.38608,0.0018515
3291.42171,0.0018491
3290.45733,0.0018571
3289.49295,0.0018390
3288.52857,0.0017683
3287.56419,0.0017262
3286.59982,0.0017312
3285.63544,0.0017293
3284.67106,0.0017578
3283.70668,0.0017758
3282.74230,0.0017689
3281.77793,0.0017685
3280.81355,0.0017807
3279.84917,0.0018159
3278.88479,0.0018371
3277.92041,0.0018327
3276.95604,0.0018174
3275.99166,0.0018076
3275.02728,0.0017880
3274.06290,0.0017675
3273.09853,0.0017519
3272.13415,0.0016768
3271.16977,0.0015835
3270.20539,0.0015303
3269.24101,0.0015325
3268.27664,0.0016060
3267.31226,0.0017011
3266.34788,0.0018087
3265.38350,0.0019300
3264.41912,0.0020092
3263.45475,0.0020339
3262.49037,0.0020412
3261.52599,0.0020232
3260.56161,0.0019614
3259.59724,0.0018896
3258.63286,0.0018392
3257.66848,0.0018247
3256.70410,0.0018318
3255.73972,0.0018197
3254.77535,0.0017769
3253.81097,0.0017361
3252.84659,0.0017133
3251.88221,0.0017247
3250.91783,0.0017583
3249.95346,0.0017597
3248.98908,0.0017797
3248.02470,0.0018213
3247.06032,0.0018315
3246.09594,0.0018429
3245.13157,0.0018667
3244.16719,0.0018992
3243.20281,0.0019155
3242.23843,0.0019206
3241.27406,0.0019294
3240.30968,0.0019356
3239.34530,0.0019332
3238.38092,0.0018876
3237.41654,0.0018435
3236.45217,0.0018051
3235.48779,0.0017555
3234.52341,0.0017381
3233.55903,0.0017380
3232.59465,0.0017424
3231.63028,0.0017476
3230.66590,0.0017565
3229.70152,0.0017608
3228.73714,0.0017796
3227.77276,0.0018164
3226.80839,0.0018319
3225.84401,0.0018711
3224.87963,0.0019220
3223.91525,0.0019356
3222.95088,0.0019314
3221.98650,0.0019237
3221.02212,0.0019130
3220.05774,0.0019218
3219.09336,0.0019300
3218.12899,0.0018839
3217.16461,0.0018548
3216.20023,0.0018480
3215.23585,0.0018257
3214.27147,0.0018352
3213.30710,0.0018376
3212.34272,0.0017962
3211.37834,0.0017499
3210.41396,0.0017588
3209.44959,0.0017925
3208.48521,0.0018186
3207.52083,0.0018467
3206.55645,0.0018436
3205.59207,0.0018639
3204.62770,0.0019085
3203.66332,0.0019385
3202.69894,0.0019726
3201.73456,0.0019870
3200.77018,0.0019670
3199.80581,0.0019391
3198.84143,0.0019433
3197.87705,0.0019561
3196.91267,0.0019652
3195.94829,0.0019366
3194.98392,0.0018535
3194.01954,0.0017973
3193.05516,0.0017609
3192.09078,0.0017529
3191.12641,0.0017689
3190.16203,0.0017607
3189.19765,0.0017583
3188.23327,0.0017885
3187.26889,0.0018602
3186.30452,0.0019310
3185.34014,0.0019561
3184.37576,0.0019248
3183.41138,0.0018774
3182.44700,0.0018440
3181.48263,0.0018075
3180.51825,0.0018250
3179.55387,0.0018779
3178.58949,0.0019122
3177.62512,0.0019510
3176.66074,0.0019912
3175.69636,0.0020189
3174.73198,0.0020061
3173.76760,0.0019672
3172.80323,0.0019414
3171.83885,0.0019020
3170.87447,0.0018321
3169.91009,0.0017835
3168.94571,0.0017761
3167.98134,0.0017597
3167.01696,0.0017122
3166.05258,0.0016468
3165.08820,0.0015917
3164.12382,0.0015618
3163.15945,0.0015604
3162.19507,0.0016135
3161.23069,0.0017153
3160.26631,0.0018097
3159.30194,0.0018809
3158.33756,0.0019636
3157.37318,0.0020169
3156.40880,0.0019903
3155.44442,0.0019006
3154.48005,0.0017832
3153.51567,0.0016835
3152.55129,0.0016022
3151.58691,0.0015628
3150.62253,0.0015889
3149.65816,0.0016243
3148.69378,0.0016540
3147.72940,0.0016928
3146.76502,0.0017377
3145.80065,0.0017604
3144.83627,0.0017306
3143.87189,0.0016743
3142.90751,0.0016261
3141.94313,0.0015999
3140.97876,0.0015945
3140.01438,0.0016095
3139.05000,0.0016423
3138.08562,0.0016817
3137.12124,0.0017326
3136.15687,0.0017855
3135.19249,0.0018353
3134.22811,0.0018826
3133.26373,0.0019083
3132.29935,0.0019051
3131.33498,0.0018743
3130.37060,0.0018570
3129.40622,0.0018551
3128.44184,0.0018124
3127.47747,0.0017620
3126.51309,0.0017205
3125.54871,0.0016629
3124.58433,0.0016327
3123.61995,0.0016528
3122.65558,0.0017095
3121.69120,0.0017942
3120.72682,0.0018900
3119.76244,0.0019864
3118.79806,0.0020726
3117.83369,0.0020993
3116.86931,0.0020446
3115.90493,0.0019476
3114.94055,0.0018198
3113.97618,0.0016897
3113.01180,0.0016146
3112.04742,0.0016078
3111.08304,0.0016431
3110.11866,0.0016917
3109.15429,0.0017395
3108.18991,0.0017604
3107.22553,0.0017595
3106.26115,0.0017583
3105.29677,0.0017752
3104.33240,0.0018315
3103.36802,0.0018821
3102.40364,0.0018928
3101.43926,0.0018982
3100.47488,0.0019195
3099.51051,0.0019224
3098.54613,0.0018965
3097.58175,0.0018629
3096.61737,0.0018096
3095.65300,0.0017811
3094.68862,0.0018074
3093.72424,0.0018576
3092.75986,0.0019127
3091.79548,0.0019104
3090.83111,0.0018374
3089.86673,0.0017669
3088.90235,0.0017368
3087.93797,0.0017332
3086.97359,0.0017390
3086.00922,0.0017303
3085.04484,0.0017118
3084.08046,0.0017180
3083.11608,0.0017282
3082.15171,0.0017357
3081.18733,0.0017224
3080.22295,0.0016612
3079.25857,0.0016171
3078.29419,0.0016276
3077.32982,0.0016600
3076.36544,0.0016685
3075.40106,0.0016460
3074.43668,0.0016251
3073.47230,0.0016274
3072.50793,0.0016436
3071.54355,0.0016655
3070.57917,0.0017144
3069.61479,0.0017298
3068.65041,0.0017004
3067.68604,0.0016987
3066.72166,0.0017123
3065.75728,0.0017176
3064.79290,0.0016914
3063.82853,0.0016675
3062.86415,0.0016681
3061.89977,0.0016615
3060.93539,0.0016896
3059.97101,0.0017559
3059.00664,0.0018295
3058.04226,0.0018714
3057.07788,0.0018632
3056.11350,0.0018368
3055.14912,0.0018095
3054.18475,0.0017774
3053.22037,0.0017033
3052.25599,0.0016313
3051.29161,0.0015822
3050.32724,0.0015278
3049.36286,0.0015105
3048.39848,0.0015159
3047.43410,0.0015388
3046.46972,0.0015741
3045.50535,0.0016114
3044.54097,0.0016544
3043.57659,0.0016599
3042.61221,0.0016520
3041.64783,0.0016514
3040.68346,0.0016643
3039.71908,0.0017045
3038.75470,0.0017419
3037.79032,0.0017609
3036.82594,0.0017375
3035.86157,0.0016886
3034.89719,0.0016588
3033.93281,0.0016395
3032.96843,0.0015921
3032.00406,0.0015320
3031.03968,0.0015209
3030.07530,0.0015316
3029.11092,0.0015497
3028.14654,0.0016049
3027.18217,0.0016636
3026.21779,0.0016965
3025.25341,0.0016910
3024.28903,0.0016674
3023.32465,0.0016557
3022.36028,0.0016222
3021.39590,0.0015831
3020.43152,0.0015912
3019.46714,0.0016105
3018.50276,0.0016140
3017.53839,0.0016275
3016.57401,0.0016445
3015.60963,0.0016442
3014.64525,0.0016467
3013.68088,0.0016598
3012.71650,0.0016615
3011.75212,0.0016757
3010.78774,0.0017242
3009.82336,0.0018022
3008.85899,0.0018759
3007.89461,0.0019058
3006.93023,0.0019352
3005.96585,0.0019649
3005.00147,0.0019638
3004.03710,0.0019555
3003.07272,0.0019374
3002.10834,0.0019092
3001.14396,0.0018759
3000.17959,0.0018612
2999.21521,0.0018550
2998.25083,0.0018107
2997.28645,0.0017588
2996.32207,0.0017245
2995.35770,0.0017054
2994.39332,0.0016804
2993.42894,0.0016462
2992.46456,0.0016441
2991.50018,0.0016424
2990.53581,0.0016277
2989.57143,0.0016383
2988.60705,0.0016593
2987.64267,0.0016675
2986.67829,0.0016645
2985.71392,0.0016842
2984.74954,0.0017172
2983.78516,0.0017214
2982.82078,0.0017304
2981.85641,0.0017469
2980.89203,0.0017404
2979.92765,0.0017328
2978.96327,0.0017517
2977.99889,0.0018030
2977.03452,0.0018505
2976.07014,0.0018899
2975.10576,0.0019403
2974.14138,0.0019807
2973.17700,0.0020051
2972.21263,0.0020246
2971.24825,0.0020690
2970.28387,0.0021034
2969.31949,0.0021047
2968.35512,0.0021420
2967.39074,0.0022091
2966.42636,0.0022972
2965.46198,0.0023906
2964.49760,0.0024445
2963.53323,0.0024753
2962.56885,0.0024977
2961.60447,0.0025524
2960.64009,0.0026322
2959.67571,0.0026848
2958.71134,0.0027172
2957.74696,0.0027344
2956.78258,0.0027301
2955.81820,0.0027133
2954.85382,0.0027134
2953.88945,0.0026961
2952.92507,0.0026279
2951.96069,0.0025766
2950.99631,0.0025757
2950.03194,0.0026199
2949.06756,0.0026675
2948.10318,0.0026984
2947.13880,0.0027619
2946.17442,0.0028217
2945.21005,0.0028382
2944.24567,0.0028664
2943.28129,0.0029399
2942.31691,0.0030186
2941.35253,0.0030675
2940.38816,0.0031347
2939.42378,0.0032620
2938.45940,0.0034263
2937.49502,0.0035804
2936.53065,0.0037307
2935.56627,0.0039105
2934.60189,0.0040530
2933.63751,0.0041360
2932.67313,0.0042436
2931.70876,0.0043819
2930.74438,0.0044985
2929.78000,0.0045946
2928.81562,0.0047292
2927.85124,0.0049148
2926.88687,0.0050915
2925.92249,0.0052090
2924.95811,0.0052789
2923.99373,0.0053266
2923.02935,0.0053120
2922.06498,0.0052222
2921.10060,0.0050806
2920.13622,0.0048936
2919.17184,0.0046874
2918.20747,0.0044800
2917.24309,0.0042828
2916.27871,0.0041032
2915.31433,0.0039479
2914.34995,0.0038137
2913.38558,0.0037050
2912.42120,0.0036394
2911.45682,0.0035868
2910.49244,0.0035225
2909.52806,0.0034368
2908.56369,0.0033434
2907.59931,0.0032646
2906.63493,0.0031786
2905.67055,0.0030936
2904.70618,0.0030296
2903.74180,0.0029943
2902.77742,0.0029728
2901.81304,0.0029331
2900.84866,0.0028744
2899.88429,0.0028080
2898.91991,0.0027638
2897.95553,0.0027297
2896.99115,0.0026772
2896.02677,0.0026289
2895.06240,0.0025937
2894.09802,0.0025556
2893.13364,0.0025124
2892.16926,0.0024782
2891.20488,0.0024231
2890.24051,0.0023389
2889.27613,0.0022729
2888.31175,0.0022265
2887.34737,0.0022008
2886.38300,0.0021912
2885.41862,0.0021824
2884.45424,0.0021912
2883.48986,0.0021956
2882.52548,0.0021717
2881.56111,0.0021550
2880.59673,0.0021573
2879.63235,0.0021543
2878.66797,0.0021606
2877.70359,0.0021920
2876.73922,0.0022299
2875.77484,0.0022664
2874.81046,0.0022971
2873.84608,0.0023248
2872.88171,0.0023418
2871.91733,0.0023253
2870.95295,0.0023091
2869.98857,0.0023153
2869.02419,0.0023112
2868.05982,0.0022992
2867.09544,0.0022997
2866.13106,0.0023359
2865.16668,0.0024099
2864.20230,0.0024870
2863.23793,0.0025663
2862.27355,0.0026610
2861.30917,0.0027666
2860.34479,0.0028830
2859.38041,0.0030222
2858.41604,0.0031675
2857.45166,0.0032828
2856.48728,0.0033906
2855.52290,0.0035001
2854.55853,0.0035831
2853.59415,0.0036179
2852.62977,0.0035852
2851.66539,0.0035065
2850.70101,0.0034065
2849.73664,0.0032954
2848.77226,0.0031688
2847.80788,0.0030096
2846.84350,0.0028362
2845.87912,0.0026671
2844.91475,0.0025045
2843.95037,0.0023488
2842.98599,0.0022132
2842.02161,0.0021001
2841.05724,0.0020014
2840.09286,0.0019517
2839.12848,0.0019468
2838.16410,0.0019563
2837.19972,0.0019644
2836.23535,0.0019506
2835.27097,0.0019433
2834.30659,0.0019347
2833.34221,0.0018951
2832.37783,0.0018493
2831.41346,0.0018161
2830.44908,0.0017949
2829.48470,0.0017707
2828.52032,0.0017440
2827.55594,0.0017086
2826.59157,0.0016679
2825.62719,0.0016517
2824.66281,0.0016550
2823.69843,0.0016728
2822.73406,0.0016751
2821.76968,0.0016523
2820.80530,0.0016300
2819.84092,0.0015954
2818.87654,0.0015663
2817.91217,0.0015451
2816.94779,0.0015193
2815.98341,0.0015045
2815.01903,0.0015129
2814.05465,0.0015559
2813.09028,0.0016008
2812.12590,0.0016254
2811.16152,0.0016183
2810.19714,0.0015811
2809.23276,0.0015469
2808.26839,0.0015043
2807.30401,0.0014706
2806.33963,0.0014692
2805.37525,0.0014809
2804.41088,0.0014992
2803.44650,0.0015060
2802.48212,0.0014974
2801.51774,0.0014834
2800.55336,0.0014716
2799.58899,0.0014411
2798.62461,0.0013767
2797.66023,0.0013317
2796.69585,0.0013169
2795.73147,0.0013144
2794.76710,0.0013337
2793.80272,0.0013676
2792.83834,0.0014115
2791.87396,0.0014468
2790.90959,0.0014663
2789.94521,0.0014808
2788.98083,0.0014870
2788.01645,0.0014706
2787.05207,0.0014223
2786.08770,0.0013802
2785.12332,0.0013499
2784.15894,0.0013110
2783.19456,0.0012828
2782.23018,0.0012778
2781.26581,0.0013035
2780.30143,0.0013461
2779.33705,0.0013816
2778.37267,0.0013979
2777.40829,0.0014080
2776.44392,0.0014235
2775.47954,0.0014260
2774.51516,0.0014340
2773.55078,0.0014329
2772.58641,0.0014000
2771.62203,0.0013689
2770.65765,0.0013454
2769.69327,0.0013227
2768.72889,0.0013053
2767.76452,0.0012957
2766.80014,0.0012748
2765.83576,0.0012445
2764.87138,0.0012165
2763.90700,0.0011933
2762.94263,0.0011942
2761.97825,0.0011768
2761.01387,0.0011447
2760.04949,0.0011421
2759.08512,0.0011490
2758.12074,0.0011636
2757.15636,0.0011888
2756.19198,0.0012219
2755.22760,0.0012509
2754.26323,0.0012670
2753.29885,0.0012773
2752.33447,0.0012858
2751.37009,0.0012918
2750.40571,0.0012783
2749.44134,0.0012595
2748.47696,0.0012522
2747.51258,0.0012501
2746.54820,0.0012368
2745.58382,0.0012193
2744.61945,0.0012194
2743.65507,0.0012201
2742.69069,0.0012266
2741.72631,0.0012437
2740.76194,0.0012709
2739.79756,0.0013025
2738.83318,0.0013097
2737.86880,0.0013039
2736.90442,0.0013076
2735.94005,0.0013057
2734.97567,0.0012613
2734.01129,0.0012155
2733.04691,0.0011947
2732.08253,0.0011594
2731.11816,0.0011334
2730.15378,0.0011296
2729.18940,0.0011397
2728.22502,0.0011411
2727.26065,0.0011282
2726.29627,0.0011320
2725.33189,0.0011442
2724.36751,0.0011583
2723.40313,0.0011677
2722.43876,0.0011823
2721.47438,0.0011987
2720.51000,0.0011917
2719.54562,0.0011810
2718.58124,0.0011826
2717.61687,0.0011766
2716.65249,0.0011507
2715.68811,0.0011468
2714.72373,0.0011620
2713.75935,0.0011766
2712.79498,0.0012207
2711.83060,0.0012727
2710.86622,0.0012936
2709.90184,0.0012862
2708.93747,0.0012866
2707.97309,0.0012844
2707.00871,0.0012652
2706.04433,0.0012569
2705.07995,0.0012527
2704.11558,0.0012520
2703.15120,0.0012452
2702.18682,0.0012472
2701.22244,0.0012700
2700.25806,0.0012767
2699.29369,0.0012601
2698.32931,0.0012315
2697.36493,0.0012233
2696.40055,0.0012260
2695.43618,0.0012321
2694.47180,0.0012548
2693.50742,0.0012546
2692.54304,0.0012384
2691.57866,0.0012332
2690.61429,0.0012427
2689.64991,0.0012540
2688.68553,0.0012568
2687.72115,0.0012554
2686.75677,0.0012377
2685.79240,0.0012304
2684.82802,0.0012361
2683.86364,0.0012233
2682.89926,0.0011962
2681.93488,0.0011614
2680.97051,0.0011327
2680.00613,0.0011108
2679.04175,0.0010907
2678.07737,0.0010802
2677.11300,0.0010749
2676.14862,0.0010620
2675.18424,0.0010446
2674.21986,0.0010390
2673.25548,0.0010302
2672.29111,0.0010066
2671.32673,0.0009930
2670.36235,0.0009974
2669.39797,0.0010203
2668.43359,0.0010514
2667.46922,0.0010668
2666.50484,0.0010749
2665.54046,0.0010741
2664.57608,0.0010629
2663.61171,0.0010675
2662.64733,0.0010754
2661.68295,0.0010718
2660.71857,0.0010751
2659.75419,0.0010965
2658.78982,0.0011286
2657.82544,0.0011594
2656.86106,0.0011722
2655.89668,0.0011632
2654.93230,0.0011494
2653.96793,0.0011132
2653.00355,0.0010697
2652.03917,0.0010562
2651.07479,0.0010427
2650.11041,0.0010333
2649.14604,0.0010486
2648.18166,0.0010714
2647.21728,0.0010931
2646.25290,0.0011096
2645.28853,0.0011280
2644.32415,0.0011504
2643.35977,0.0011488
2642.39539,0.0011156
2641.43101,0.0010869
2640.46664,0.0010755
2639.50226,0.0010730
2638.53788,0.0010678
2637.57350,0.0010412
2636.60912,0.0010033
2635.64475,0.0009619
2634.68037,0.0009319
2633.71599,0.0009216
2632.75161,0.0008999
2631.78724,0.0008645
2630.82286,0.0008480
2629.85848,0.0008599
2628.89410,0.0008988
2627.92972,0.0009607
2626.96535,0.0010025
2626.00097,0.0010323
2625.03659,0.0010711
2624.07221,0.0011023
2623.10783,0.0011610
2622.14346,0.0012314
2621.17908,0.0012787
2620.21470,0.0012929
2619.25032,0.0012743
2618.28594,0.0012567
2617.32157,0.0012260
2616.35719,0.0011852
2615.39281,0.0011385
2614.42843,0.0010988
2613.46406,0.0010980
2612.49968,0.0011110
2611.53530,0.0011397
2610.57092,0.0011596
2609.60654,0.0011397
2608.64217,0.0010999
2607.67779,0.0010820
2606.71341,0.0010925
2605.74903,0.0010438
2604.78465,0.0009532
2603.82028,0.0008847
2602.85590,0.0008588
2601.89152,0.0009054
2600.92714,0.0009656
2599.96276,0.0010115
2598.99839,0.0010500
2598.03401,0.0010780
2597.06963,0.0011293
2596.10525,0.0011821
2595.14088,0.0011995
2594.17650,0.0011672
2593.21212,0.0011073
2592.24774,0.0010578
2591.28336,0.0010076
2590.31899,0.0009590
2589.35461,0.0009346
2588.39023,0.0009514
2587.42585,0.0009872
2586.46147,0.0010024
2585.49710,0.0009967
2584.53272,0.0009913
2583.56834,0.0010304
2582.60396,0.0010774
2581.63959,0.0010594
2580.67521,0.0010060
2579.71083,0.0009620
2578.74645,0.0009664
2577.78207,0.0010260
2576.81770,0.0010886
2575.85332,0.0011120
2574.88894,0.0011123
2573.92456,0.0011238
2572.96018,0.0011347
2571.99581,0.0011390
2571.03143,0.0011046
2570.06705,0.0010234
2569.10267,0.0009765
2568.13829,0.0009791
2567.17392,0.0009826
2566.20954,0.0009620
2565.24516,0.0009393
2564.28078,0.0009359
2563.31641,0.0009658
2562.35203,0.0010295
2561.38765,0.0010907
2560.42327,0.0011781
2559.45889,0.0012750
2558.49452,0.0013219
2557.53014,0.0013445
2556.56576,0.0013316
2555.60138,0.0012519
2554.63700,0.0011582
2553.67263,0.0011151
2552.70825,0.0010816
2551.74387,0.0010130
2550.77949,0.0009328
2549.81512,0.0008760
2548.85074,0.0008902
2547.88636,0.0009276
2546.92198,0.0009089
2545.95760,0.0008701
2544.99323,0.0008585
2544.02885,0.0008427
2543.06447,0.0008210
2542.10009,0.0008232
2541.13571,0.0007703
2540.17134,0.0006576
2539.20696,0.0005811
2538.24258,0.0005725
2537.27820,0.0006587
2536.31382,0.0007856
2535.34945,0.0008662
2534.38507,0.0009456
2533.42069,0.0010403
2532.45631,0.0010894
2531.49194,0.0011177
2530.52756,0.0011356
2529.56318,0.0011058
2528.59880,0.0010813
2527.63442,0.0010872
2526.67005,0.0010887
2525.70567,0.0010679
2524.74129,0.0010087
2523.77691,0.0009491
2522.81253,0.0009229
2521.84816,0.0008689
2520.88378,0.0007842
2519.91940,0.0007408
2518.95502,0.0007320
2517.99065,0.0007719
2517.02627,0.0008564
2516.06189,0.0009255
2515.09751,0.0009686
2514.13313,0.0009643
2513.16876,0.0009639
2512.20438,0.0010129
2511.24000,0.0010207
2510.27562,0.0009436
2509.31124,0.0008562
2508.34687,0.0008192
2507.38249,0.0008179
2506.41811,0.0008452
2505.45373,0.0008915
2504.48935,0.0009579
2503.52498,0.0009920
2502.56060,0.0009244
2501.59622,0.0008413
2500.63184,0.0007669
2499.66747,0.0006657
2498.70309,0.0006105
2497.73871,0.0006492
2496.77433,0.0007328
2495.80995,0.0007831
2494.84558,0.0007773
2493.88120,0.0007542
2492.91682,0.0007269
2491.95244,0.0006296
2490.98806,0.0005174
2490.02369,0.0004777
2489.05931,0.0004753
2488.09493,0.0005557
2487.13055,0.0007242
2486.16618,0.0009192
2485.20180,0.0010760
2484.23742,0.0011298
2483.27304,0.0011059
2482.30866,0.0010196
2481.34429,0.0009146
2480.37991,0.0008368
2479.41553,0.0008093
2478.45115,0.0008213
2477.48677,0.0008315
2476.52240,0.0008961
2475.55802,0.0009795
2474.59364,0.0010111
2473.62926,0.0010066
2472.66488,0.0009734
2471.70051,0.0009634
2470.73613,0.0009702
2469.77175,0.0009811
2468.80737,0.0010145
2467.84300,0.0010312
2466.87862,0.0010326
2465.91424,0.0010300
2464.94986,0.0010233
2463.98548,0.0009979
2463.02111,0.0009402
2462.05673,0.0008832
2461.09235,0.0008247
2460.12797,0.0007788
2459.16359,0.0007090
2458.19922,0.0005855
2457.23484,0.0004972
2456.27046,0.0004234
2455.30608,0.0003913
2454.34171,0.0004634
2453.37733,0.0005601
2452.41295,0.0006680
2451.44857,0.0007951
2450.48419,0.0009145
2449.51982,0.0009526
2448.55544,0.0009197
2447.59106,0.0008876
2446.62668,0.0008367
2445.66230,0.0008287
2444.69793,0.0008434
2443.73355,0.0008775
2442.76917,0.0009744
2441.80479,0.0010389
2440.84041,0.0010953
2439.87604,0.0011637
2438.91166,0.0011779
2437.94728,0.0010869
2436.98290,0.0009477
2436.01853,0.0008358
2435.05415,0.0007004
2434.08977,0.0005925
2433.12539,0.0005093
2432.16101,0.0004624
2431.19664,0.0005221
2430.23226,0.0006136
2429.26788,0.0007338
2428.30350,0.0008407
2427.33912,0.0008889
2426.37475,0.0009286
2425.41037,0.0009423
2424.44599,0.0009049
2423.48161,0.0008369
2422.51724,0.0007814
2421.55286,0.0007278
2420.58848,0.0007195
2419.62410,0.0007710
2418.65972,0.0007879
2417.69535,0.0007799
2416.73097,0.0007620
2415.76659,0.0007503
2414.80221,0.0007830
2413.83783,0.0008171
2412.87346,0.0008098
2411.90908,0.0007794
2410.94470,0.0007450
2409.98032,0.0006913
2409.01594,0.0006763
2408.05157,0.0007124
2407.08719,0.0007333
2406.12281,0.0007460
2405.15843,0.0007484
2404.19406,0.0007425
2403.22968,0.0007391
2402.26530,0.0007646
2401.30092,0.0008077
2400.33654,0.0007898
2399.37217,0.0007528
2398.40779,0.0007412
2397.44341,0.0007677
2396.47903,0.0008412
2395.51465,0.0008847
2394.55028,0.0008811
2393.58590,0.0008632
2392.62152,0.0008359
2391.65714,0.0007878
2390.69276,0.0007505
2389.72839,0.0007356
2388.76401,0.0007044
2387.79963,0.0007122
2386.83525,0.0007494
2385.87088,0.0007804
2384.90650,0.0008184
2383.94212,0.0008323
2382.97774,0.0008681
2382.01336,0.0009346
2381.04899,0.0010158
2380.08461,0.0011282
2379.12023,0.0012378
2378.15585,0.0013571
2377.19147,0.0014966
2376.22710,0.0016456
2375.26272,0.0017984
2374.29834,0.0019601
2373.33396,0.0021336
2372.36959,0.0023041
2371.40521,0.0025030
2370.44083,0.0026987
2369.47645,0.0028665
2368.51207,0.0030532
2367.54770,0.0032072
2366.58332,0.0032946
2365.61894,0.0033614
2364.65456,0.0034166
2363.69018,0.0034557
2362.72581,0.0034857
2361.76143,0.0035003
2360.79705,0.0034909
2359.83267,0.0034693
2358.86829,0.0034294
2357.90392,0.0033595
2356.93954,0.0032789
2355.97516,0.0031683
2355.01078,0.0029887
2354.04641,0.0027413
2353.08203,0.0024460
2352.11765,0.0021559
2351.15327,0.0019255
2350.18889,0.0017768
2349.22452,0.0017187
2348.26014,0.0017479
2347.29576,0.0018614
2346.33138,0.0020387
2345.36700,0.0022547
2344.40263,0.0024794
2343.43825,0.0026433
2342.47387,0.0027252
2341.50949,0.0027691
2340.54512,0.0027931
2339.58074,0.0028130
2338.61636,0.0028387
2337.65198,0.0028537
2336.68760,0.0028495
2335.72323,0.0028156
2334.75885,0.0027768
2333.79447,0.0027522
2332.83009,0.0027130
2331.86571,0.0026661
2330.90134,0.0026204
2329.93696,0.0025633
2328.97258,0.0025011
2328.00820,0.0024595
2327.04382,0.0024448
2326.07945,0.0024321
2325.11507,0.0023959
2324.15069,0.0023216
2323.18631,0.0022425
2322.22194,0.0021625
2321.25756,0.0020782
2320.29318,0.0020291
2319.32880,0.0019986
2318.36442,0.0019810
2317.40005,0.0019603
2316.43567,0.0019132
2315.47129,0.0018442
2314.50691,0.0017433
2313.54253,0.0016254
2312.57816,0.0014941
2311.61378,0.0013644
2310.64940,0.0012493
2309.68502,0.0011788
2308.72065,0.0011566
2307.75627,0.0011337
2306.79189,0.0011126
2305.82751,0.0010433
2304.86313,0.0009439
2303.89876,0.0008868
2302.93438,0.0008599
2301.97000,0.0008542
2301.00562,0.0008515
2300.04124,0.0008768
2299.07687,0.0009317
2298.11249,0.0009969
2297.14811,0.0010081
2296.18373,0.0009333
2295.21935,0.0008514
2294.25498,0.0007250
2293.29060,0.0006044
2292.32622,0.0005765
2291.36184,0.0005703
2290.39747,0.0005413
2289.43309,0.0005320
2288.46871,0.0006046
2287.50433,0.0006922
2286.53995,0.0007551
2285.57558,0.0007851
2284.61120,0.0007814
2283.64682,0.0007808
2282.68244,0.0007604
2281.71806,0.0007730
2280.75369,0.0007789
2279.78931,0.0007066
2278.82493,0.0005923
2277.86055,0.0004732
2276.89618,0.0004218
2275.93180,0.0004197
2274.96742,0.0004141
2274.00304,0.0003976
2273.03866,0.0004107
2272.07429,0.0004904
2271.10991,0.0006381
2270.14553,0.0008390
2269.18115,0.0009799
2268.21677,0.0009971
2267.25240,0.0009272
2266.28802,0.0009001
2265.32364,0.0009854
2264.35926,0.0010112
2263.39488,0.0008786
2262.43051,0.0006781
2261.46613,0.0004618
2260.50175,0.0002264
2259.53737,0.0000229
2258.57300,-0.0001054
2257.60862,-0.0001873
2256.64424,-0.0002564
2255.67986,-0.0001920
2254.71548,0.0001621
2253.75111,0.0006254
2252.78673,0.0008914
2251.82235,0.0009529
2250.85797,0.0009146
2249.89359,0.0007664
2248.92922,0.0006569
2247.96484,0.0006656
2247.00046,0.0006579
2246.03608,0.0006957
2245.07171,0.0008091
2244.10733,0.0009824
2243.14295,0.0012291
2242.17857,0.0013848
2241.21419,0.0012479
2240.24982,0.0008951
2239.28544,0.0005191
2238.32106,0.0001778
2237.35668,-0.0000322
2236.39230,-0.0001689
2235.42793,-0.0003209
2234.46355,-0.0003674
2233.49917,-0.0003345
2232.53479,-0.0002870
2231.57041,-0.0001965
2230.60604,-0.0001196
2229.64166,-0.0001293
2228.67728,-0.0001618
2227.71290,-0.0001616
2226.74853,-0.0001613
2225.78415,-0.0001611
2224.81977,-0.0001608
2223.85539,-0.0001606
2222.89101,-0.0001603
2221.92664,-0.0001601
2220.96226,-0.0001598
2219.99788,-0.0001596
2219.03350,-0.0001593
2218.06912,-0.0001591
2217.10475,-0.0001588
2216.14037,-0.0001586
2215.17599,-0.0001583
2214.21161,-0.0001580
2213.24724,-0.0001578
2212.28286,-0.0001575
2211.31848,-0.0001573
2210.35410,-0.0001570
2209.38972,-0.0001568
2208.42535,-0.0001565
2207.46097,-0.0001563
2206.49659,-0.0001560
2205.53221,-0.0001558
2204.56783,-0.0001555
2203.60346,-0.0001553
2202.63908,-0.0001550
2201.67470,-0.0001548
2200.71032,-0.0001545
2199.74594,-0.0001543
2198.78157,-0.0001540
2197.81719,-0.0001537
2196.85281,-0.0001535
2195.88843,-0.0001532
2194.92406,-0.0001530
2193.95968,-0.0001527
2192.99530,-0.0001525
2192.03092,-0.0001522
2191.06654,-0.0001520
2190.10217,-0.0001517
2189.13779,-0.0001515
2188.17341,-0.0001512
2187.20903,-0.0001510
2186.24465,-0.0001507
2185.28028,-0.0001505
2184.31590,-0.0001502
2183.35152,-0.0001500
2182.38714,-0.0001497
2181.42276,-0.0001494
2180.45839,-0.0001492
2179.49401,-0.0001489
2178.52963,-0.0001487
2177.56525,-0.0001484
2176.60088,-0.0001482
2175.63650,-0.0001479
2174.67212,-0.0001477
2173.70774,-0.0001474
2172.74336,-0.0001472
2171.77899,-0.0001469
2170.81461,-0.0001467
2169.85023,-0.0001464
2168.88585,-0.0001462
2167.92147,-0.0001459
2166.95710,-0.0001457
2165.99272,-0.0001454
2165.02834,-0.0001451
2164.06396,-0.0001449
2163.09959,-0.0001446
2162.13521,-0.0001444
2161.17083,-0.0001441
2160.20645,-0.0001439
2159.24207,-0.0001436
2158.27770,-0.0001434
2157.31332,-0.0001431
2156.34894,-0.0001429
2155.38456,-0.0001426
2154.42018,-0.0001424
2153.45581,-0.0001421
2152.49143,-0.0001419
2151.52705,-0.0001416
2150.56267,-0.0001414
2149.59829,-0.0001411
2148.63392,-0.0001408
2147.66954,-0.0001406
2146.70516,-0.0001403
2145.74078,-0.0001401
2144.77641,-0.0001398
2143.81203,-0.0001396
2142.84765,-0.0001393
2141.88327,-0.0001391
2140.91889,-0.0001388
2139.95452,-0.0001386
2138.99014,-0.0001383
2138.02576,-0.0001381
2137.06138,-0.0001378
2136.09700,-0.0001376
2135.13263,-0.0001373
2134.16825,-0.0001370
2133.20387,-0.0001368
2132.23949,-0.0001365
2131.27512,-0.0001363
2130.31074,-0.0001360
2129.34636,-0.0001358
2128.38198,-0.0001355
2127.41760,-0.0001353
2126.45323,-0.0001350
2125.48885,-0.0001348
2124.52447,-0.0001345
2123.56009,-0.0001343
2122.59571,-0.0001340
2121.63134,-0.0001338
2120.66696,-0.0001335
2119.70258,-0.0001333
2118.73820,-0.0001330
2117.77382,-0.0001327
2116.80945,-0.0001325
2115.84507,-0.0001322
2114.88069,-0.0001320
2113.91631,-0.0001317
2112.95194,-0.0001315
2111.98756,-0.0001312
2111.02318,-0.0001310
2110.05880,-0.0001307
2109.09442,-0.0001305
2108.13005,-0.0001302
2107.16567,-0.0001300
2106.20129,-0.0001297
2105.23691,-0.0001295
2104.27253,-0.0001292
2103.30816,-0.0001290
2102.34378,-0.0001287
2101.37940,-0.0001284
2100.41502,-0.0001282
2099.45065,-0.0001279
2098.48627,-0.0001277
2097.52189,-0.0001274
2096.55751,-0.0001272
2095.59313,-0.0001269
2094.62876,-0.0001267
2093.66438,-0.0001264
2092.70000,-0.0001262
2091.73562,-0.0001259
2090.77124,-0.0001257
2089.80687,-0.0001254
2088.84249,-0.0001252
2087.87811,-0.0001249
2086.91373,-0.0001247
2085.94935,-0.0001244
2084.98498,-0.0001241
2084.02060,-0.0001239
2083.05622,-0.0001236
2082.09184,-0.0001234
2081.12747,-0.0001231
2080.16309,-0.0001229
2079.19871,-0.0001226
2078.23433,-0.0001224
2077.26995,-0.0001221
2076.30558,-0.0001219
2075.34120,-0.0001216
2074.37682,-0.0001214
2073.41244,-0.0001211
2072.44806,-0.0001209
2071.48369,-0.0001206
2070.51931,-0.0001204
2069.55493,-0.0001201
2068.59055,-0.0001198
2067.62618,-0.0001196
2066.66180,-0.0001193
2065.69742,-0.0001191
2064.73304,-0.0001188
2063.76866,-0.0001186
2062.80429,-0.0001183
2061.83991,-0.0001181
2060.87553,-0.0001178
2059.91115,-0.0001176
2058.94677,-0.0001173
2057.98240,-0.0001171
2057.01802,-0.0001168
2056.05364,-0.0001166
2055.08926,-0.0001163
2054.12488,-0.0001161
2053.16051,-0.0001158
2052.19613,-0.0001155
2051.23175,-0.0001153
2050.26737,-0.0001150
2049.30300,-0.0001148
2048.33862,-0.0001145
2047.37424,-0.0001143
2046.40986,-0.0001140
2045.44548,-0.0001138
2044.48111,-0.0001135
2043.51673,-0.0001133
2042.55235,-0.0001130
2041.58797,-0.0001128
2040.62359,-0.0001125
2039.65922,-0.0001123
2038.69484,-0.0001120
2037.73046,-0.0001117
2036.76608,-0.0001115
2035.80171,-0.0001112
2034.83733,-0.0001110
2033.87295,-0.0001107
2032.90857,-0.0001105
2031.94419,-0.0001102
2030.97982,-0.0001100
2030.01544,-0.0001097
2029.05106,-0.0001095
2028.08668,-0.0001092
2027.12230,-0.0001090
2026.15793,-0.0001087
2025.19355,-0.0001085
2024.22917,-0.0001082
2023.26479,-0.0001080
2022.30041,-0.0001077
2021.33604,-0.0001074
2020.37166,-0.0001072
2019.40728,-0.0001069
2018.44290,-0.0001067
2017.47853,-0.0001064
2016.51415,-0.0001062
2015.54977,-0.0001059
2014.58539,-0.0001057
2013.62101,-0.0001054
2012.65664,-0.0001052
2011.69226,-0.0001049
2010.72788,-0.0001047
2009.76350,-0.0001044
2008.79912,-0.0001042
2007.83475,-0.0001039
2006.87037,-0.0001037
2005.90599,-0.0001034
2004.94161,-0.0001031
2003.97724,-0.0001029
2003.01286,-0.0001026
2002.04848,-0.0001024
2001.08410,-0.0001021
2000.11972,-0.0001019
1999.15535,-0.0001016
1998.19097,-0.0001014
1997.22659,-0.0001011
1996.26221,-0.0001009
1995.29783,-0.0001006
1994.33346,-0.0001004
1993.36908,-0.0001001
1992.40470,-0.0000999
1991.44032,-0.0000996
1990.47594,-0.0000994
1989.51157,-0.0000991
1988.54719,-0.0000988
1987.58281,-0.0000986
1986.61843,-0.0000983
1985.65406,-0.0000981
1984.68968,-0.0000978
1983.72530,-0.0000976
1982.76092,-0.0000973
1981.79654,-0.0000971
1980.83217,-0.0000968
1979.86779,-0.0000966
1978.90341,-0.0000963
1977.93903,-0.0000961
1976.97465,-0.0000958
1976.01028,-0.0000956
1975.04590,-0.0000953
1974.08152,-0.0000951
1973.11714,-0.0000948
1972.15276,-0.0000945
1971.18839,-0.0000943
1970.22401,-0.0000940
1969.25963,-0.0000938
1968.29525,-0.0000935
1967.33088,-0.0000933
1966.36650,-0.0000930
1965.40212,-0.0000928
1964.43774,-0.0000925
1963.47336,-0.0000923
1962.50899,-0.0000920
1961.54461,-0.0000918
1960.58023,-0.0000915
1959.61585,-0.0000913
1958.65147,-0.0000910
1957.68710,-0.0000908
1956.72272,-0.0000905
1955.75834,-0.0000902
1954.79396,-0.0000900
1953.82959,-0.0000897
1952.86521,-0.0000895
1951.90083,-0.0000892
1950.93645,-0.0000890
1949.97207,-0.0000887
1949.00770,-0.0000885
1948.04332,-0.0000882
1947.07894,-0.0000880
1946.11456,-0.0000877
1945.15018,-0.0000875
1944.18581,-0.0000872
1943.22143,-0.0000870
1942.25705,-0.0000867
1941.29267,-0.0000864
1940.32829,-0.0000862
1939.36392,-0.0000859
1938.39954,-0.0000857
1937.43516,-0.0001221
1936.47078,-0.0001453
1935.50641,-0.0000886
1934.54203,-0.0000284
1933.57765,0.0000025
1932.61327,0.0000542
1931.64889,0.0002096
1930.68452,0.0004403
1929.72014,0.0006723
1928.75576,0.0009732
1927.79138,0.0012449
1926.82700,0.0013318
1925.86263,0.0012688
1924.89825,0.0012246
1923.93387,0.0012541
1922.96949,0.0011558
1922.00512,0.0009107
1921.04074,0.0006713
1920.07636,0.0005157
1919.11198,0.0004088
1918.14760,0.0003323
1917.18323,0.0003923
1916.21885,0.0004504
1915.25447,0.0003739
1914.29009,0.0003232
1913.32571,0.0004457
1912.36134,0.0006544
1911.39696,0.0006914
1910.43258,0.0006332
1909.46820,0.0006234
1908.50382,0.0005518
1907.53945,0.0004441
1906.57507,0.0003773
1905.61069,0.0004177
1904.64631,0.0005313
1903.68194,0.0005786
1902.71756,0.0005799
1901.75318,0.0006165
1900.78880,0.0006694
1899.82442,0.0006649
1898.86005,0.0006521
1897.89567,0.0006335
1896.93129,0.0005503
1895.96691,0.0004935
1895.00253,0.0004878
1894.03816,0.0005375
1893.07378,0.0006288
1892.10940,0.0006512
1891.14502,0.0006064
1890.18065,0.0005577
1889.21627,0.0005541
1888.25189,0.0006139
1887.28751,0.0006620
1886.32313,0.0006901
1885.35876,0.0007743
1884.39438,0.0008303
1883.43000,0.0007731
1882.46562,0.0007006
1881.50124,0.0006931
1880.53687,0.0007316
1879.57249,0.0007517
1878.60811,0.0007405
1877.64373,0.0007513
1876.67935,0.0007960
1875.71498,0.0008180
1874.75060,0.0008314
1873.78622,0.0008848
1872.82184,0.0008833
1871.85747,0.0008022
1870.89309,0.0007455
1869.92871,0.0007582
1868.96433,0.0007874
1867.99995,0.0007793
1867.03558,0.0007638
1866.07120,0.0007049
1865.10682,0.0006006
1864.14244,0.0005293
1863.17806,0.0004908
1862.21369,0.0004858
1861.24931,0.0005237
1860.28493,0.0005831
1859.32055,0.0006293
1858.35618,0.0006747
1857.39180,0.0007286
1856.42742,0.0007785
1855.46304,0.0008082
1854.49866,0.0007708
1853.53429,0.0007125
1852.56991,0.0006669
1851.60553,0.0006209
1850.64115,0.0005966
1849.67677,0.0005938
1848.71240,0.0006066
1847.74802,0.0005938
1846.78364,0.0005727
1845.81926,0.0005575
1844.85488,0.0005206
1843.89051,0.0005100
1842.92613,0.0005225
1841.96175,0.0005398
1840.99737,0.0005752
1840.03300,0.0006050
1839.06862,0.0005957
1838.10424,0.0005677
1837.13986,0.0005687
1836.17548,0.0005626
1835.21111,0.0005409
1834.24673,0.0005373
1833.28235,0.0005345
1832.31797,0.0005370
1831.35359,0.0005430
1830.38922,0.0005447
1829.42484,0.0005676
1828.46046,0.0005892
1827.49608,0.0005780
1826.53171,0.0005632
1825.56733,0.0005486
1824.60295,0.0005321
1823.63857,0.0005511
1822.67419,0.0005965
1821.70982,0.0006135
1820.74544,0.0006005
1819.78106,0.0006109
1818.81668,0.0006611
1817.85230,0.0007250
1816.88793,0.0007654
1815.92355,0.0007705
1814.95917,0.0007558
1813.99479,0.0007134
1813.03041,0.0006748
1812.06604,0.0006682
1811.10166,0.0006652
1810.13728,0.0006612
1809.17290,0.0006464
1808.20853,0.0006222
1807.24415,0.0006077
1806.27977,0.0005906
1805.31539,0.0005767
1804.35101,0.0005815
1803.38664,0.0005897
1802.42226,0.0005965
1801.45788,0.0006143
1800.49350,0.0006405
1799.52912,0.0006617
1798.56475,0.0006693
1797.60037,0.0006532
1796.63599,0.0006214
1795.67161,0.0006160
1794.70724,0.0006354
1793.74286,0.0006371
1792.77848,0.0006209
1791.81410,0.0006006
1790.84972,0.0005910
1789.88535,0.0005934
1788.92097,0.0005889
1787.95659,0.0005861
1786.99221,0.0005908
1786.02783,0.0005978
1785.06346,0.0006127
1784.09908,0.0006534
1783.13470,0.0006963
1782.17032,0.0006981
1781.20594,0.0006807
1780.24157,0.0006580
1779.27719,0.0006329
1778.31281,0.0006150
1777.34843,0.0006032
1776.38406,0.0006116
1775.41968,0.0006128
1774.45530,0.0006029
1773.49092,0.0006268
1772.52654,0.0006717
1771.56217,0.0007039
1770.59779,0.0007241
1769.63341,0.0007471
1768.66903,0.0007682
1767.70465,0.0007801
1766.74028,0.0007906
1765.77590,0.0008144
1764.81152,0.0008404
1763.84714,0.0008381
1762.88276,0.0008443
1761.91839,0.0008866
1760.95401,0.0009212
1759.98963,0.0009417
1759.02525,0.0009728
1758.06088,0.0010105
1757.09650,0.0010392
1756.13212,0.0010716
1755.16774,0.0011277
1754.20336,0.0012002
1753.23899,0.0012594
1752.27461,0.0013026
1751.31023,0.0013649
1750.34585,0.0014382
1749.38147,0.0014933
1748.41710,0.0015388
1747.45272,0.0015819
1746.48834,0.0016164
1745.52396,0.0016470
1744.55959,0.0016919
1743.59521,0.0017438
1742.63083,0.0017750
1741.66645,0.0017805
1740.70207,0.0017772
1739.73770,0.0017700
1738.77332,0.0017570
1737.80894,0.0017433
1736.84456,0.0017247
1735.88018,0.0016916
1734.91581,0.0016456
1733.95143,0.0016091
1732.98705,0.0015805
1732.02267,0.0015367
1731.05829,0.0014934
1730.09392,0.0014649
1729.12954,0.0014456
1728.16516,0.0014421
1727.20078,0.0014672
1726.23641,0.0014946
1725.27203,0.0015005
1724.30765,0.0015088
1723.34327,0.0015242
1722.37889,0.0015545
1721.41452,0.0015887
1720.45014,0.0016034
1719.48576,0.0016193
1718.52138,0.0016271
1717.55700,0.0016274
1716.59263,0.0016426
1715.62825,0.0016595
1714.66387,0.0016659
1713.69949,0.0016734
1712.73512,0.0016882
1711.77074,0.0016951
1710.80636,0.0017152
1709.84198,0.0017354
1708.87760,0.0017164
1707.91323,0.0016720
1706.94885,0.0016077
1705.98447,0.0015425
1705.02009,0.0014928
1704.05571,0.0014551
1703.09134,0.0014288
1702.12696,0.0013981
1701.16258,0.0013659
1700.19820,0.0013453
1699.23382,0.0013373
1698.26945,0.0013193
1697.30507,0.0012843
1696.34069,0.0012560
1695.37631,0.0012393
1694.41194,0.0012261
1693.44756,0.0012222
1692.48318,0.0012348
1691.51880,0.0012369
1690.55442,0.0012264
1689.59005,0.0012264
1688.62567,0.0012235
1687.66129,0.0012217
1686.69691,0.0012249
1685.73253,0.0012266
1684.76816,0.0012306
1683.80378,0.0012300
1682.83940,0.0012162
1681.87502,0.0012075
1680.91065,0.0012169
1679.94627,0.0012174
1678.98189,0.0012158
1678.01751,0.0012190
1677.05313,0.0012094
1676.08876,0.0012115
1675.12438,0.0012304
1674.16000,0.0012466
1673.19562,0.0012550
1672.23124,0.0012584
1671.26687,0.0012612
1670.30249,0.0012654
1669.33811,0.0012717
1668.37373,0.0012755
1667.40935,0.0012720
1666.44498,0.0012601
1665.48060,0.0012540
1664.51622,0.0012733
1663.55184,0.0013149
1662.58747,0.0013464
1661.62309,0.0013632
1660.65871,0.0013869
1659.69433,0.0013989
1658.72995,0.0013983
1657.76558,0.0014060
1656.80120,0.0014143
1655.83682,0.0014130
1654.87244,0.0014055
1653.90806,0.0014054
1652.94369,0.0014046
1651.97931,0.0013935
1651.01493,0.0013590
1650.05055,0.0013094
1649.08618,0.0012725
1648.12180,0.0012366
1647.15742,0.0012170
1646.19304,0.0012234
1645.22866,0.0012334
1644.26429,0.0012444
1643.29991,0.0012412
1642.33553,0.0012209
1641.37115,0.0011938
1640.40677,0.0011640
1639.44240,0.0011246
1638.47802,0.0010834
1637.51364,0.0010593
1636.54926,0.0010459
1635.58488,0.0010411
1634.62051,0.0010340
1633.65613,0.0010160
1632.69175,0.0009952
1631.72737,0.0009695
1630.76300,0.0009485
1629.79862,0.0009428
1628.83424,0.0009395
1627.86986,0.0009280
1626.90548,0.0009190
1625.94111,0.0009144
1624.97673,0.0009086
1624.01235,0.0008965
1623.04797,0.0008668
1622.08359,0.0008287
1621.11922,0.0008000
1620.15484,0.0007778
1619.19046,0.0007539
1618.22608,0.0007326
1617.26171,0.0007146
1616.29733,0.0006939
1615.33295,0.0006761
1614.36857,0.0006612
1613.40419,0.0006488
1612.43982,0.0006424
1611.47544,0.0006398
1610.51106,0.0006433
1609.54668,0.0006538
1608.58230,0.0006631
1607.61793,0.0006695
1606.65355,0.0006777
1605.68917,0.0006768
1604.72479,0.0006586
1603.76041,0.0006340
1602.79604,0.0006136
1601.83166,0.0005997
1600.86728,0.0005877
1599.90290,0.0005690
1598.93853,0.0005456
1597.97415,0.0005301
1597.00977,0.0005232
1596.04539,0.0005255
1595.08101,0.0005232
1594.11664,0.0005003
1593.15226,0.0004808
1592.18788,0.0004735
1591.22350,0.0004753
1590.25912,0.0004858
1589.29475,0.0004866
1588.33037,0.0004771
1587.36599,0.0004709
1586.40161,0.0004766
1585.43724,0.0004837
1584.47286,0.0004834
1583.50848,0.0004780
1582.54410,0.0004704
1581.57972,0.0004702
1580.61535,0.0004683
1579.65097,0.0004655
1578.68659,0.0004763
1577.72221,0.0004960
1576.75783,0.0005187
1575.79346,0.0005408
1574.82908,0.0005642
1573.86470,0.0005860
1572.90032,0.0005999
1571.93594,0.0006095
1570.97157,0.0006147
1570.00719,0.0006103
1569.04281,0.0006015
1568.07843,0.0005986
1567.11406,0.0005974
1566.14968,0.0005945
1565.18530,0.0005981
1564.22092,0.0006149
1563.25654,0.0006405
1562.29217,0.0006641
1561.32779,0.0006857
1560.36341,0.0007039
1559.39903,0.0007184
1558.43465,0.0007310
1557.47028,0.0007389
1556.50590,0.0007387
1555.54152,0.0007345
1554.57714,0.0007444
1553.61276,0.0007672
1552.64839,0.0007859
1551.68401,0.0007937
1550.71963,0.0007961
1549.75525,0.0008038
1548.79088,0.0008113
1547.82650,0.0008254
1546.86212,0.0008498
1545.89774,0.0008662
1544.93336,0.0008735
1543.96899,0.0008808
1543.00461,0.0008893
1542.04023,0.0008874
1541.07585,0.0008739
1540.11147,0.0008632
1539.14710,0.0008535
1538.18272,0.0008406
1537.21834,0.0008400
1536.25396,0.0008613
1535.28959,0.0008891
1534.32521,0.0009025
1533.36083,0.0008949
1532.39645,0.0008772
1531.43207,0.0008646
1530.46770,0.0008615
1529.50332,0.0008677
1528.53894,0.0008768
1527.57456,0.0008755
1526.61018,0.0008699
1525.64581,0.0008731
1524.68143,0.0008729
1523.71705,0.0008684
1522.75267,0.0008661
1521.78829,0.0008541
1520.82392,0.0008425
1519.85954,0.0008392
1518.89516,0.0008347
1517.93078,0.0008325
1516.96641,0.0008326
1516.00203,0.0008307
1515.03765,0.0008255
1514.07327,0.0008109
1513.10889,0.0007931
1512.14452,0.0007955
1511.18014,0.0008119
1510.21576,0.0008159
1509.25138,0.0008118
1508.28700,0.0008079
1507.32263,0.0007987
1506.35825,0.0007898
1505.39387,0.0007878
1504.42949,0.0007833
1503.46512,0.0007689
1502.50074,0.0007482
1501.53636,0.0007358
1500.57198,0.0007363
1499.60760,0.0007287
1498.64323,0.0007125
1497.67885,0.0006980
1496.71447,0.0006847
1495.75009,0.0006730
1494.78571,0.0006624
1493.82134,0.0006619
1492.85696,0.0006664
1491.89258,0.0006700
1490.92820,0.0006785
1489.96382,0.0006862
1488.99945,0.0006956
1488.03507,0.0007077
1487.07069,0.0007254
1486.10631,0.0007426
1485.14194,0.0007460
1484.17756,0.0007407
1483.21318,0.0007287
1482.24880,0.0007252
1481.28442,0.0007370
1480.32005,0.0007509
1479.35567,0.0007681
1478.39129,0.0007849
1477.42691,0.0008111
1476.46253,0.0008542
1475.49816,0.0009026
1474.53378,0.0009521
1473.56940,0.0010003
1472.60502,0.0010532
1471.64065,0.0011110
1470.67627,0.0011786
1469.71189,0.0012580
1468.74751,0.0013219
1467.78313,0.0013680
1466.81876,0.0014022
1465.85438,0.0014216
1464.89000,0.0014333
1463.92562,0.0014340
1462.96124,0.0014300
1461.99687,0.0014310
1461.03249,0.0014382
1460.06811,0.0014457
1459.10373,0.0014486
1458.13935,0.0014576
1457.17498,0.0014621
1456.21060,0.0014598
1455.24622,0.0014575
1454.28184,0.0014438
1453.31747,0.0014253
1452.35309,0.0014142
1451.38871,0.0014076
1450.42433,0.0013952
1449.45995,0.0013822
1448.49558,0.0013772
1447.53120,0.0013737
1446.56682,0.0013746
1445.60244,0.0013824
1444.63806,0.0014024
1443.67369,0.0014303
1442.70931,0.0014519
1441.74493,0.0014690
1440.78055,0.0014868
1439.81618,0.0014971
1438.85180,0.0014857
1437.88742,0.0014632
1436.92304,0.0014375
1435.95866,0.0014128
1434.99429,0.0014004
1434.02991,0.0013916
1433.06553,0.0013826
1432.10115,0.0013714
1431.13677,0.0013647
1430.17240,0.0013631
1429.20802,0.0013617
1428.24364,0.0013662
1427.27926,0.0013619
1426.31488,0.0013499
1425.35051,0.0013480
1424.38613,0.0013639
1423.42175,0.0013845
1422.45737,0.0013821
1421.49300,0.0013602
1420.52862,0.0013402
1419.56424,0.0013334
1418.59986,0.0013260
1417.63548,0.0013136
1416.67111,0.0012988
1415.70673,0.0012740
1414.74235,0.0012531
1413.77797,0.0012395
1412.81359,0.0012301
1411.84922,0.0012237
1410.88484,0.0012195
1409.92046,0.0012260
1408.95608,0.0012389
1407.99171,0.0012488
1407.02733,0.0012486
1406.06295,0.0012388
1405.09857,0.0012211
1404.13419,0.0012037
1403.16982,0.0011896
1402.20544,0.0011747
1401.24106,0.0011608
1400.27668,0.0011395
1399.31230,0.0011291
1398.34793,0.0011375
1397.38355,0.0011422
1396.41917,0.0011428
1395.45479,0.0011423
1394.49041,0.0011333
1393.52604,0.0011197
1392.56166,0.0011202
1391.59728,0.0011300
1390.63290,0.0011388
1389.66853,0.0011342
1388.70415,0.0011141
1387.73977,0.0011138
1386.77539,0.0011262
1385.81101,0.0011376
1384.84664,0.0011543
1383.88226,0.0011707
1382.91788,0.0011833
1381.95350,0.0011918
1380.98912,0.0012082
1380.02475,0.0012228
1379.06037,0.0012345
1378.09599,0.0012436
1377.13161,0.0012436
1376.16724,0.0012444
1375.20286,0.0012314
1374.23848,0.0012139
1373.27410,0.0012010
1372.30972,0.0011851
1371.34535,0.0011763
1370.38097,0.0011685
1369.41659,0.0011599
1368.45221,0.0011556
1367.48783,0.0011655
1366.52346,0.0011852
1365.55908,0.0011975
1364.59470,0.0011943
1363.63032,0.0011725
1362.66594,0.0011500
1361.70157,0.0011345
1360.73719,0.0011271
1359.77281,0.0011252
1358.80843,0.0011133
1357.84406,0.0011008
1356.87968,0.0010990
1355.91530,0.0011029
1354.95092,0.0011078
1353.98654,0.0011018
1353.02217,0.0010771
1352.05779,0.0010511
1351.09341,0.0010425
1350.12903,0.0010501
1349.16465,0.0010561
1348.20028,0.0010412
1347.23590,0.0010172
1346.27152,0.0010107
1345.30714,0.0010214
1344.34276,0.0010334
1343.37839,0.0010405
1342.41401,0.0010347
1341.44963,0.0010276
1340.48525,0.0010404
1339.52088,0.0010566
1338.55650,0.0010557
1337.59212,0.0010253
1336.62774,0.0009801
1335.66336,0.0009488
1334.69899,0.0009316
1333.73461,0.0009234
1332.77023,0.0009198
1331.80585,0.0009233
1330.84147,0.0009302
1329.87710,0.0009515
1328.91272,0.0009850
1327.94834,0.0009973
1326.98396,0.0009920
1326.01959,0.0009748
1325.05521,0.0009618
1324.09083,0.0009563
1323.12645,0.0009358
1322.16207,0.0009205
1321.19770,0.0009277
1320.23332,0.0009526
1319.26894,0.0009745
1318.30456,0.0009885
1317.34018,0.0009995
1316.37581,0.0009989
1315.41143,0.0009928
1314.44705,0.0009811
1313.48267,0.0009678
1312.51829,0.0009462
1311.55392,0.0009280
1310.58954,0.0009428
1309.62516,0.0009761
1308.66078,0.0010152
1307.69641,0.0010439
1306.73203,0.0010553
1305.76765,0.0010656
1304.80327,0.0010781
1303.83889,0.0010835
1302.87452,0.0010710
1301.91014,0.0010477
1300.94576,0.0010215
1299.98138,0.0010056
1299.01700,0.0009979
1298.05263,0.0009923
1297.08825,0.0010034
1296.12387,0.0010174
1295.15949,0.0010227
1294.19512,0.0010290
1293.23074,0.0010445
1292.26636,0.0010653
1291.30198,0.0010820
1290.33760,0.0010987
1289.37323,0.0011179
1288.40885,0.0011427
1287.44447,0.0011643
1286.48009,0.0011747
1285.51571,0.0011799
1284.55134,0.0011747
1283.58696,0.0011608
1282.62258,0.0011485
1281.65820,0.0011429
1280.69382,0.0011427
1279.72945,0.0011416
1278.76507,0.0011452
1277.80069,0.0011679
1276.83631,0.0012044
1275.87194,0.0012302
1274.90756,0.0012396
1273.94318,0.0012523
1272.97880,0.0012854
1272.01442,0.0013309
1271.05005,0.0013664
1270.08567,0.0013825
1269.12129,0.0013835
1268.15691,0.0013757
1267.19253,0.0013749
1266.22816,0.0013885
1265.26378,0.0013974
1264.29940,0.0014019
1263.33502,0.0014173
1262.37065,0.0014423
1261.40627,0.0014788
1260.44189,0.0015159
1259.47751,0.0015359
1258.51313,0.0015494
1257.54876,0.0015669
1256.58438,0.0015769
1255.62000,0.0015826
1254.65562,0.0015949
1253.69124,0.0016065
1252.72687,0.0016178
1251.76249,0.0016331
1250.79811,0.0016504
1249.83373,0.0016730
1248.86935,0.0017026
1247.90498,0.0017364
1246.94060,0.0017784
1245.97622,0.0018256
1245.01184,0.0018594
1244.04747,0.0018876
1243.08309,0.0019246
1242.11871,0.0019595
1241.15433,0.0019878
1240.18995,0.0020162
1239.22558,0.0020514
1238.26120,0.0020903
1237.29682,0.0021281
1236.33244,0.0021602
1235.36806,0.0021835
1234.40369,0.0022062
1233.43931,0.0022247
1232.47493,0.0022367
1231.51055,0.0022537
1230.54618,0.0022822
1229.58180,0.0023182
1228.61742,0.0023579
1227.65304,0.0024062
1226.68866,0.0024562
1225.72429,0.0025025
1224.75991,0.0025491
1223.79553,0.0025944
1222.83115,0.0026378
1221.86677,0.0026725
1220.90240,0.0026988
1219.93802,0.0027317
1218.97364,0.0027677
1218.00926,0.0028007
1217.04488,0.0028389
1216.08051,0.0028778
1215.11613,0.0028991
1214.15175,0.0029045
1213.18737,0.0029189
1212.22300,0.0029425
1211.25862,0.0029578
1210.29424,0.0029705
1209.32986,0.0029904
1208.36548,0.0030155
1207.40111,0.0030382
1206.43673,0.0030647
1205.47235,0.0031039
1204.50797,0.0031360
1203.54359,0.0031530
1202.57922,0.0031702
1201.61484,0.0031921
1200.65046,0.0032109
1199.68608,0.0032255
1198.72171,0.0032402
1197.75733,0.0032468
1196.79295,0.0032469
1195.82857,0.0032482
1194.86419,0.0032500
1193.89982,0.0032536
1192.93544,0.0032680
1191.97106,0.0032989
1191.00668,0.0033225
1190.04230,0.0033205
1189.07793,0.0033176
1188.11355,0.0033312
1187.14917,0.0033372
1186.18479,0.0033279
1185.22041,0.0033286
1184.25604,0.0033402
1183.29166,0.0033497
1182.32728,0.0033605
1181.36290,0.0033875
1180.39853,0.0034216
1179.43415,0.0034418
1178.46977,0.0034514
1177.50539,0.0034570
1176.54101,0.0034691
1175.57664,0.0034821
1174.61226,0.0034884
1173.64788,0.0034974
1172.68350,0.0035048
1171.71912,0.0035130
1170.75475,0.0035215
1169.79037,0.0035303
1168.82599,0.0035376
1167.86161,0.0035282
1166.89724,0.0035061
1165.93286,0.0034815
1164.96848,0.0034594
1164.00410,0.0034318
1163.03972,0.0034044
1162.07535,0.0033946
1161.11097,0.0033927
1160.14659,0.0033920
1159.18221,0.0033898
1158.21783,0.0033887
1157.25346,0.0033866
1156.28908,0.0033821
1155.32470,0.0033930
1154.36032,0.0034033
1153.39594,0.0033987
1152.43157,0.0033991
1151.46719,0.0034134
1150.50281,0.0034338
1149.53843,0.0034405
1148.57406,0.0034301
1147.60968,0.0034104
1146.64530,0.0033857
1145.68092,0.0033633
1144.71654,0.0033391
1143.75217,0.0033230
1142.78779,0.0033152
1141.82341,0.0033103
1140.85903,0.0033258
1139.89465,0.0033527
1138.93028,0.0033777
1137.96590,0.0033929
1137.00152,0.0033994
1136.03714,0.0033920
1135.07276,0.0033525
1134.10839,0.0033004
1133.14401,0.0032458
1132.17963,0.0032045
1131.21525,0.0031858
1130.25088,0.0031805
1129.28650,0.0032091
1128.32212,0.0032469
1127.35774,0.0032679
1126.39336,0.0032760
1125.42899,0.0032853
1124.46461,0.0033036
1123.50023,0.0032956
1122.53585,0.0032655
1121.57147,0.0032424
1120.60710,0.0032345
1119.64272,0.0032377
1118.67834,0.0032414
1117.71396,0.0032401
1116.74959,0.0032216
1115.78521,0.0031852
1114.82083,0.0031394
1113.85645,0.0031119
1112.89207,0.0031089
1111.92770,0.0031028
1110.96332,0.0030966
1109.99894,0.0031017
1109.03456,0.0031143
1108.07018,0.0031071
1107.10581,0.0030728
1106.14143,0.0030350
1105.17705,0.0030006
1104.21267,0.0029609
1103.24829,0.0029227
1102.28392,0.0029071
1101.31954,0.0029001
1100.35516,0.0029005
1099.39078,0.0029162
1098.42641,0.0029359
1097.46203,0.0029485
1096.49765,0.0029415
1095.53327,0.0029352
1094.56889,0.0029335
1093.60452,0.0029280
1092.64014,0.0029197
1091.67576,0.0029055
1090.71138,0.0028867
1089.74700,0.0028578
1088.78263,0.0028402
1087.81825,0.0028380
1086.85387,0.0028322
1085.88949,0.0028182
1084.92512,0.0028063
1083.96074,0.0028098
1082.99636,0.0028106
1082.03198,0.0028121
1081.06760,0.0028204
1080.10323,0.0028298
1079.13885,0.0028344
1078.17447,0.0028186
1077.21009,0.0027915
1076.24571,0.0027595
1075.28134,0.0027348
1074.31696,0.0027208
1073.35258,0.0026948
1072.38820,0.0026640
1071.42382,0.0026560
1070.45945,0.0026800
1069.49507,0.0027229
1068.53069,0.0027622
1067.56631,0.0027713
1066.60194,0.0027556
1065.63756,0.0027357
1064.67318,0.0027242
1063.70880,0.0027210
1062.74442,0.0026944
1061.78005,0.0026476
1060.81567,0.0026248
1059.85129,0.0026459
1058.88691,0.0026758
1057.92253,0.0026877
1056.95816,0.0026965
1055.99378,0.0027048
1055.02940,0.0027127
1054.06502,0.0027116
1053.10065,0.0026974
1052.13627,0.0026583
1051.17189,0.0025939
1050.20751,0.0025580
1049.24313,0.0025643
1048.27876,0.0025700
1047.31438,0.0025370
1046.35000,0.0024843
1045.38562,0.0024525
1044.42124,0.0024351
1043.45687,0.0024050
1042.49249,0.0023505
1041.52811,0.0022908
1040.56373,0.0022381
1039.59935,0.0022098
1038.63498,0.0022106
1037.67060,0.0022127
1036.70622,0.0022163
1035.74184,0.0022199
1034.77747,0.0022170
1033.81309,0.0022137
1032.84871,0.0022123
1031.88433,0.0021850
1030.91995,0.0021202
1029.95558,0.0020710
1028.99120,0.0020492
1028.02682,0.0020275
1027.06244,0.0019974
1026.09806,0.0019624
1025.13369,0.0019447
1024.16931,0.0019441
1023.20493,0.0019253
1022.24055,0.0018947
1021.27618,0.0018903
1020.31180,0.0018815
1019.34742,0.0018558
1018.38304,0.0018517
1017.41866,0.0018601
1016.45429,0.0018557
1015.48991,0.0018381
1014.52553,0.0018225
1013.56115,0.0018011
1012.59677,0.0017720
1011.63240,0.0017471
1010.66802,0.0017384
1009.70364,0.0017508
1008.73926,0.0017362
1007.77488,0.0016853
1006.81051,0.0016321
1005.84613,0.0015891
1004.88175,0.0015469
1003.91737,0.0015019
1002.95300,0.0014791
1001.98862,0.0014599
1001.02424,0.0014443
1000.05986,0.0014598
999.09548,0.0014970
998.13111,0.0015310
997.16673,0.0015249
996.20235,0.0015009
995.23797,0.0014876
994.27359,0.0014703
993.30922,0.0014507
992.34484,0.0014392
991.38046,0.0014330
990.41608,0.0014036
989.45171,0.0013577
988.48733,0.0013245
987.52295,0.0013139
986.55857,0.0013253
985.59419,0.0013396
984.62982,0.0013599
983.66544,0.0013697
982.70106,0.0013576
981.73668,0.0013777
980.77230,0.0014372
979.80793,0.0014899
978.84355,0.0015030
977.87917,0.0014803
976.91479,0.0014568
975.95041,0.0014434
974.98604,0.0014405
974.02166,0.0014459
973.05728,0.0014347
972.09290,0.0013872
971.12853,0.0013284
970.16415,0.0013136
969.19977,0.0013455
968.23539,0.0013812
967.27101,0.0013735
966.30664,0.0013278
965.34226,0.0012991
964.37788,0.0012923
963.41350,0.0013220
962.44912,0.0013870
961.48475,0.0014297
960.52037,0.0014363
959.55599,0.0014213
958.59161,0.0014111
957.62724,0.0014101
956.66286,0.0013937
955.69848,0.0013469
954.73410,0.0012881
953.76972,0.0012471
952.80535,0.0012078
951.84097,0.0011843
950.87659,0.0011779
949.91221,0.0011652
948.94783,0.0011566
947.98346,0.0011463
947.01908,0.0011568
946.05470,0.0011833
945.09032,0.0012014
944.12594,0.0012107
943.16157,0.0011931
942.19719,0.0011706
941.23281,0.0011414
940.26843,0.0011017
939.30406,0.0010834
938.33968,0.0010629
937.37530,0.0010204
936.41092,0.0009795
935.44654,0.0009621
934.48217,0.0009563
933.51779,0.0009469
932.55341,0.0009390
931.58903,0.0009447
930.62465,0.0009776
929.66028,0.0010114
928.69590,0.0010259
927.73152,0.0010239
926.76714,0.0009971
925.80276,0.0009673
924.83839,0.0009463
923.87401,0.0009353
922.90963,0.0009554
921.94525,0.0009778
920.98088,0.0009675
920.01650,0.0009481
919.05212,0.0009268
918.08774,0.0008965
917.12336,0.0008832
916.15899,0.0008971
915.19461,0.0009318
914.23023,0.0009760
913.26585,0.0010023
912.30147,0.0010299
911.33710,0.0010828
910.37272,0.0011025
909.40834,0.0010439
908.44396,0.0009559
907.47959,0.0008947
906.51521,0.0008595
905.55083,0.0008474
904.58645,0.0008667
903.62207,0.0009108
902.65770,0.0009659
901.69332,0.0010155
900.72894,0.0010621
899.76456,0.0011155
898.80018,0.0011521
897.83581,0.0011409
896.87143,0.0011102
895.90705,0.0011069
894.94267,0.0011065
893.97829,0.0010756
893.01392,0.0010443
892.04954,0.0010522
891.08516,0.0010812
890.12078,0.0011042
889.15641,0.0011351
888.19203,0.0011704
887.22765,0.0011889
886.26327,0.0011945
885.29889,0.0012104
884.33452,0.0012227
883.37014,0.0011973
882.40576,0.0011509
881.44138,0.0011026
880.47700,0.0010863
879.51263,0.0011201
878.54825,0.0011572
877.58387,0.0011786
876.61949,0.0011866
875.65512,0.0011851
874.69074,0.0012018
873.72636,0.0012322
872.76198,0.0012375
871.79760,0.0012310
870.83323,0.0012469
869.86885,0.0012780
868.90447,0.0013171
867.94009,0.0013377
866.97571,0.0013150
866.01134,0.0012841
865.04696,0.0012779
864.08258,0.0012770
863.11820,0.0012481
862.15382,0.0011923
861.18945,0.0011388
860.22507,0.0011010
859.26069,0.0010772
858.29631,0.0010816
857.33194,0.0010841
856.36756,0.0010542
855.40318,0.0010490
854.43880,0.0010987
853.47442,0.0011725
852.51005,0.0012208
851.54567,0.0012238
850.58129,0.0012257
849.61691,0.0012440
848.65253,0.0012416
847.68816,0.0012025
846.72378,0.0011547
845.75940,0.0011003
844.79502,0.0010445
843.83065,0.0010142
842.86627,0.0010026
841.90189,0.0010025
840.93751,0.0009961
839.97313,0.0009883
839.00876,0.0010039
838.04438,0.0010279
837.08000,0.0010321
836.11562,0.0010103
835.15124,0.0009921
834.18687,0.0009902
833.22249,0.0010094
832.25811,0.0010338
831.29373,0.0010534
830.32935,0.0010932
829.36498,0.0011088
828.40060,0.0010916
827.43622,0.0010939
826.47184,0.0011293
825.50747,0.0011556
824.54309,0.0011291
823.57871,0.0010800
822.61433,0.0010162
821.64995,0.0009539
820.68558,0.0009230
819.72120,0.0009322
818.75682,0.0009762
817.79244,0.0009969
816.82806,0.0010024
815.86369,0.0010261
814.89931,0.0010591
813.93493,0.0010784
812.97055,0.0010646
812.00618,0.0010262
811.04180,0.0009682
810.07742,0.0009297
809.11304,0.0009246
808.14866,0.0009354
807.18429,0.0009396
806.21991,0.0009081
805.25553,0.0008626
804.29115,0.0008201
803.32677,0.0008056
802.36240,0.0008334
801.39802,0.0008586
800.43364,0.0008533
799.46926,0.0008565
798.50488,0.0008741
797.54051,0.0008706
796.57613,0.0008756
795.61175,0.0008696
794.64737,0.0008418
793.68300,0.0008361
792.71862,0.0008495
791.75424,0.0008886
790.78986,0.0009128
789.82548,0.0008695
788.86111,0.0007943
787.89673,0.0007419
786.93235,0.0006995
785.96797,0.0006589
785.00359,0.0006591
784.03922,0.0006931
783.07484,0.0007484
782.11046,0.0007930
781.14608,0.0008220
780.18171,0.0008515
779.21733,0.0008420
778.25295,0.0008103
777.28857,0.0007782
776.32419,0.0007254
775.35982,0.0006603
774.39544,0.0006290
773.43106,0.0006443
772.46668,0.0006927
771.50230,0.0007313
770.53793,0.0007121
769.57355,0.0007100
768.60917,0.0007193
767.64479,0.0006920
766.68041,0.0006627
765.71604,0.0005924
764.75166,0.0005048
763.78728,0.0004823
762.82290,0.0005126
761.85853,0.0005374
760.89415,0.0005693
759.92977,0.0006184
758.96539,0.0006553
758.00101,0.0007012
757.03664,0.0007385
756.07226,0.0007514
755.10788,0.0007331
754.14350,0.0006716
753.17912,0.0006209
752.21475,0.0006131
751.25037,0.0005783
750.28599,0.0004936
749.32161,0.0004756
748.35724,0.0004983
747.39286,0.0005103
746.42848,0.0005894
745.46410,0.0007281
744.49972,0.0008477
743.53535,0.0008716
742.57097,0.0008339
741.60659,0.0007915
740.64221,0.0007885
739.67783,0.0008006
738.71346,0.0007836
737.74908,0.0008222
736.78470,0.0008540
735.82032,0.0008409
734.85594,0.0008386
733.89157,0.0008181
732.92719,0.0007934
731.96281,0.0007688
730.99843,0.0007573
730.03406,0.0007566
729.06968,0.0007782
728.10530,0.0007969
727.14092,0.0007617
726.17654,0.0007507
725.21217,0.0007661
724.24779,0.0007593
723.28341,0.0007508
722.31903,0.0007620
721.35465,0.0008165
720.39028,0.0008874
719.42590,0.0009135
718.46152,0.0008894
717.49714,0.0008416
716.53276,0.0007701
715.56839,0.0006953
714.60401,0.0006654
713.63963,0.0006801
712.67525,0.0007028
711.71088,0.0007157
710.74650,0.0007127
709.78212,0.0007098
708.81774,0.0007021
707.85336,0.0006752
706.88899,0.0006597
705.92461,0.0006364
704.96023,0.0006167
703.99585,0.0006335
703.03147,0.0006533
702.06710,0.0006744
701.10272,0.0006769
700.13834,0.0006654
699.17396,0.0006617
698.20959,0.0006437
697.24521,0.0006155
696.28083,0.0006033
695.31645,0.0006171
694.35207,0.0006187
693.38770,0.0006278
692.42332,0.0006546
691.45894,0.0006667
690.49456,0.0006927
689.53018,0.0007186
688.56581,0.0007521
687.60143,0.0008039
686.63705,0.0008281
685.67267,0.0008307
684.70829,0.0008261
683.74392,0.0008031
682.77954,0.0007758
681.81516,0.0007665
680.85078,0.0007645
679.88641,0.0007785
678.92203,0.0008107
677.95765,0.0008404
676.99327,0.0008729
676.02889,0.0009106
675.06452,0.0008794
674.10014,0.0007522
673.13576,0.0008037
672.17138,0.0010974
671.20700,0.0014102
670.24263,0.0016429
669.27825,0.0017612
668.31387,0.0017903
667.34949,0.0017340
666.38512,0.0016004
665.42074,0.0014029
664.45636,0.0011346
663.49198,0.0008272
662.52760,0.0005776
661.56323,0.0005954
660.59885,0.0007612
659.63447,0.0008381
658.67009,0.0008477
657.70571,0.0008319
656.74134,0.0008307
655.77696,0.0008478
654.81258,0.0008785
653.84820,0.0009090
652.88382,0.0009223
651.91945,0.0009476
650.95507,0.0009786
649.99069,0.0009905
649.02631,0.0009831
648.06194,0.0009776
647.09756,0.0009345
646.13318,0.0008726
645.16880,0.0008742
644.20442,0.0008964
643.24005,0.0009050
642.27567,0.0009077
641.31129,0.0009159
640.34691,0.0009436
639.38253,0.0009714
638.41816,0.0009810
637.45378,0.0009887
636.48940,0.0010026
635.52502,0.0009539
634.56065,0.0008621
633.59627,0.0008041
632.63189,0.0007429
631.66751,0.0006467
630.70313,0.0006200
629.73876,0.0007735
628.77438,0.0009625
627.81000,0.0013970
626.84562,0.0022646
625.88124,0.0029350
624.91687,0.0030637
623.95249,0.0027826
622.98811,0.0023731
622.02373,0.0020708
621.05935,0.0015488
620.09498,0.0004646
619.13060,-0.0007224
618.16622,-0.0013985
617.20184,-0.0013064
616.23747,-0.0000364
615.27309,0.0017700
614.30871,0.0027447
613.34433,0.0029931
612.37995,0.0030673
611.41558,0.0032408
610.45120,0.0032686
609.48682,0.0024012
608.52244,0.0011019
607.55806,0.0000849
606.59369,-0.0005405
605.62931,-0.0004734
604.66493,0.0002689
603.70055,0.0010933
602.73618,0.0015385
601.77180,0.0018451
600.80742,0.0022282
599.84304,0.0025795
598.87866,0.0026659
597.91429,0.0024867
596.94991,0.0025240
595.98553,0.0024206
595.02115,0.0019452
594.05677,0.0016415
593.09240,0.0015469
592.12802,0.0016051
591.16364,0.0016471
590.19926,0.0015868
589.23488,0.0015496
588.27051,0.0014600
587.30613,0.0013946
586.34175,0.0014101
585.37737,0.0013995
584.41300,0.0012818
583.44862,0.0011291
582.48424,0.0010463
581.51986,0.0009555
580.55548,0.0009076
579.59111,0.0009010
578.62673,0.0008817
577.66235,0.0008839
576.69797,0.0008631
575.73359,0.0008944
574.76922,0.0009424
573.80484,0.0009438
572.84046,0.0009600
571.87608,0.0009564
570.91171,0.0009775
569.94733,0.0009584
568.98295,0.0008424
568.01857,0.0007527
567.05419,0.0006735
566.08982,0.0005992
565.12544,0.0005869
564.16106,0.0006235
563.19668,0.0006669
562.23230,0.0006832
561.26793,0.0006754
560.30355,0.0006307
559.33917,0.0005368
558.37479,0.0004129
557.41041,0.0003589
556.44604,0.0004120
555.48166,0.0004298
554.51728,0.0004050
553.55290,0.0004887
552.58853,0.0006731
551.62415,0.0008015
550.65977,0.0008076
549.69539,0.0007393
548.73101,0.0005741
547.76664,0.0003583
546.80226,0.0002805
545.83788,0.0002990
544.87350,0.0002380
543.90912,0.0001127
542.94475,0.0000200
541.98037,0.0001070
541.01599,0.0003307
540.05161,0.0004073
539.08724,0.0003958
538.12286,0.0004695
537.15848,0.0005580
536.19410,0.0006554
535.22972,0.0007471
534.26535,0.0007653
533.30097,0.0006941
532.33659,0.0005778
531.37221,0.0005388
530.40783,0.0006290
529.44346,0.0007330
528.47908,0.0007336
527.51470,0.0007455
526.55032,0.0008443
525.58594,0.0009532
524.62157,0.0010772
523.65719,0.0011329
522.69281,0.0010346
521.72843,0.0008341
520.76406,0.0006305
519.79968,0.0005311
518.83530,0.0005008
517.87092,0.0004298
516.90654,0.0003245
515.94217,0.0002549
514.97779,0.0001763
514.01341,0.0001018
513.04903,0.0001073
512.08465,0.0000666
511.12028,-0.0000357
510.15590,-0.0000895
509.19152,-0.0000807
508.22714,0.0000507
507.26276,0.0002528
506.29839,0.0003506
505.33401,0.0003876
504.36963,0.0005198
503.40525,0.0006724
502.44088,0.0007664
501.47650,0.0008459
500.51212,0.0008597
499.54774,0.0008341
498.58336,0.0008267
497.61899,0.0008060
496.65461,0.0008128
495.69023,0.0008130
494.72585,0.0007213
493.76147,0.0006624
492.79710,0.0007407
491.83272,0.0008264
490.86834,0.0008734
489.90396,0.0009182
488.93959,0.0009506
487.97521,0.0010084
487.01083,0.0010204
486.04645,0.0009891
485.08207,0.0010086
484.11770,0.0010095
483.15332,0.0010007
482.18894,0.0010399
481.22456,0.0010967
480.26018,0.0011600
479.29581,0.0012606
478.33143,0.0013865
477.36705,0.0014659
476.40267,0.0014650
475.43829,0.0013311
474.47392,0.0011285
473.50954,0.0009484
472.54516,0.0007592
471.58078,0.0006415
470.61641,0.0005944
469.65203,0.0005709
468.68765,0.0006450
467.72327,0.0008176
466.75889,0.0009866
465.79452,0.0010224
464.83014,0.0009613
463.86576,0.0009041
462.90138,0.0008574
461.93700,0.0008026
460.97263,0.0007357
460.00825,0.0006862
459.04387,0.0006417
458.07949,0.0006422
457.11512,0.0007252
456.15074,0.0007886
455.18636,0.0007708
454.22198,0.0007180
453.25760,0.0006950
452.29323,0.0007223
451.32885,0.0007597
450.36447,0.0007531
449.40009,0.0007518
448.43571,0.0007786
447.47134,0.0007897
446.50696,0.0008316
445.54258,0.0008864
444.57820,0.0008963
443.61382,0.0008729
442.64945,0.0008386
441.68507,0.0008007
440.72069,0.0007540
439.75631,0.0007214
438.79194,0.0007019
437.82756,0.0007038
436.86318,0.0007124
435.89880,0.0007138
434.93442,0.0007494
433.97005,0.0007992
433.00567,0.0008307
432.04129,0.0008296
431.07691,0.0008287
430.11253,0.0008217
429.14816,0.0007593
428.18378,0.0006714
427.21940,0.0005752
426.25502,0.0005166
425.29065,0.0005078
424.32627,0.0005319
423.36189,0.0005913
422.39751,0.0006556
421.43313,0.0007462
420.46876,0.0008470
419.50438,0.0009302
418.54000,0.0009678
417.57562,0.0009674
416.61124,0.0009841
415.64687,0.0009547
414.68249,0.0008767
413.71811,0.0007976
412.75373,0.0006913
411.78935,0.0005596
410.82498,0.0004637
409.86060,0.0004223
408.89622,0.0003494
407.93184,0.0002451
406.96747,0.0001773
406.00309,0.0001981
405.03871,0.0002690
404.07433,0.0002690
403.10995,0.0002690
402.14558,0.0002690
401.18120,0.0002690
400.21682,0.0002690
399.25244,0.0002690
