3998.31069,0.0012772
3997.34631,0.0012772
3996.38194,0.0012772
3995.41756,0.0012772
3994.45318,0.0012772
3993.48880,0.0012772
3992.52442,0.0012772
3991.56005,0.0012101
3990.59567,0.0011373
3989.63129,0.0011207
3988.66691,0.0011383
3987.70253,0.0011613
3986.73816,0.0012252
3985.77378,0.0013753
3984.80940,0.0014717
3983.84502,0.0014413
3982.88065,0.0014028
3981.91627,0.0013939
3980.95189,0.0013941
3979.98751,0.0013953
3979.02313,0.0014273
3978.05876,0.0014691
3977.09438,0.0014896
3976.13000,0.0015546
3975.16562,0.0016646
3974.20124,0.0017501
3973.23687,0.0017452
3972.27249,0.0016681
3971.30811,0.0016149
3970.34373,0.0015923
3969.37935,0.0015566
3968.41498,0.0014839
3967.45060,0.0013864
3966.48622,0.0012858
3965.52184,0.0011895
3964.55747,0.0011595
3963.59309,0.0011711
3962.62871,0.0011091
3961.66433,0.0010175
3960.69995,0.0009835
3959.73558,0.0009895
3958.77120,0.0010373
3957.80682,0.0011199
3956.84244,0.0011809
3955.87806,0.0012481
3954.91369,0.0013619
3953.94931,0.0014743
3952.98493,0.0015746
3952.02055,0.0016529
3951.05618,0.0016494
3950.09180,0.0016128
3949.12742,0.0016196
3948.16304,0.0016362
3947.19866,0.0016531
3946.23429,0.0016696
3945.26991,0.0016705
3944.30553,0.0017150
3943.34115,0.0017677
3942.37677,0.0017488
3941.41240,0.0017156
3940.44802,0.0016907
3939.48364,0.0016378
3938.51926,0.0016012
3937.55488,0.0016089
3936.59051,0.0015867
3935.62613,0.0015175
3934.66175,0.0014648
3933.69737,0.0014558
3932.73300,0.0014838
3931.76862,0.0015164
3930.80424,0.0015694
3929.83986,0.0016505
3928.87548,0.0016974
3927.91111,0.0017291
3926.94673,0.0017527
3925.98235,0.0016996
3925.01797,0.0016128
3924.05359,0.0015505
3923.08922,0.0014704
3922.12484,0.0013938
3921.16046,0.0013881
3920.19608,0.0014513
3919.23171,0.0015361
3918.26733,0.0015973
3917.30295,0.0016515
3916.33857,0.0017059
3915.37419,0.0017022
3914.40982,0.0016246
3913.44544,0.0015329
3912.48106,0.0014377
3911.51668,0.0013146
3910.55230,0.0012180
3909.58793,0.0011982
3908.62355,0.0012490
3907.65917,0.0013336
3906.69479,0.0014264
3905.73041,0.0015224
3904.76604,0.0016126
3903.80166,0.0016836
3902.83728,0.0016685
3901.87290,0.0015708
3900.90853,0.0014715
3899.94415,0.0014000
3898.97977,0.0013511
3898.01539,0.0013192
3897.05101,0.0013083
3896.08664,0.0012882
3895.12226,0.0012598
3894.15788,0.0012369
3893.19350,0.0012524
3892.22912,0.0013080
3891.26475,0.0012895
3890.30037,0.0012451
3889.33599,0.0012626
3888.37161,0.0013198
3887.40724,0.0013963
3886.44286,0.0014670
3885.47848,0.0015446
3884.51410,0.0016185
3883.54972,0.0016888
3882.58535,0.0017178
3881.62097,0.0016808
3880.65659,0.0015998
3879.69221,0.0014638
3878.72783,0.0013688
3877.76346,0.0013380
3876.79908,0.0013548
3875.83470,0.0014577
3874.87032,0.0015795
3873.90594,0.0016667
3872.94157,0.0017118
3871.97719,0.0017358
3871.01281,0.0017286
3870.04843,0.0016629
3869.08406,0.0015744
3868.11968,0.0015100
3867.15530,0.0014875
3866.19092,0.0014767
3865.22654,0.0014981
3864.26217,0.0015542
3863.29779,0.0015708
3862.33341,0.0015543
3861.36903,0.0015374
3860.40465,0.0015319
3859.44028,0.0015678
3858.47590,0.0016197
3857.51152,0.0016641
3856.54714,0.0016885
3855.58276,0.0016530
3854.61839,0.0016216
3853.65401,0.0016244
3852.68963,0.0016066
3851.72525,0.0016045
3850.76088,0.0015964
3849.79650,0.0015030
3848.83212,0.0013705
3847.86774,0.0013285
3846.90336,0.0013635
3845.93899,0.0013752
3844.97461,0.0013319
3844.01023,0.0012623
3843.04585,0.0012581
3842.08147,0.0012950
3841.11710,0.0013445
3840.15272,0.0014142
3839.18834,0.0014078
3838.22396,0.0013270
3837.25959,0.0012593
3836.29521,0.0012534
3835.33083,0.0012397
3834.36645,0.0011628
3833.40207,0.0010698
3832.43770,0.0010114
3831.47332,0.0010402
3830.50894,0.0011035
3829.54456,0.0011702
3828.58018,0.0012223
3827.61581,0.0012400
3826.65143,0.0012700
3825.68705,0.0012962
3824.72267,0.0013017
3823.75829,0.0012739
3822.79392,0.0012723
3821.82954,0.0013260
3820.86516,0.0014032
3819.90078,0.0014724
3818.93641,0.0014418
3817.97203,0.0013967
3817.00765,0.0013937
3816.04327,0.0014164
3815.07889,0.0015066
3814.11452,0.0016044
3813.15014,0.0016756
3812.18576,0.0017176
3811.22138,0.0017437
3810.25700,0.0017263
3809.29263,0.0016274
3808.32825,0.0014702
3807.36387,0.0013074
3806.39949,0.0012394
3805.43512,0.0012293
3804.47074,0.0012518
3803.50636,0.0013478
3802.54198,0.0014813
3801.57760,0.0015994
3800.61323,0.0016351
3799.64885,0.0015950
3798.68447,0.0015241
3797.72009,0.0014519
3796.75571,0.0013920
3795.79134,0.0013380
3794.82696,0.0012960
3793.86258,0.0012913
3792.89820,0.0013433
3791.93382,0.0014197
3790.96945,0.0015284
3790.00507,0.0016078
3789.04069,0.0015845
3788.07631,0.0015336
3787.11194,0.0015006
3786.14756,0.0014715
3785.18318,0.0014024
3784.21880,0.0012860
3783.25442,0.0011771
3782.29005,0.0011330
3781.32567,0.0011454
3780.36129,0.0011464
3779.39691,0.0011649
3778.43253,0.0012020
3777.46816,0.0012136
3776.50378,0.0011969
3775.53940,0.0011655
3774.57502,0.0011743
3773.61065,0.0011979
3772.64627,0.0011983
3771.68189,0.0011978
3770.71751,0.0012049
3769.75313,0.0012478
3768.78876,0.0013305
3767.82438,0.0014190
3766.86000,0.0015027
3765.89562,0.0015422
3764.93124,0.0015096
3763.96687,0.0014527
3763.00249,0.0013898
3762.03811,0.0013363
3761.07373,0.0013009
3760.10935,0.0012479
3759.14498,0.0011780
3758.18060,0.0011249
3757.21622,0.0011181
3756.25184,0.0011633
3755.28747,0.0012768
3754.32309,0.0013870
3753.35871,0.0014347
3752.39433,0.0014468
3751.42995,0.0014443
3750.46558,0.0015069
3749.50120,0.0015823
3748.53682,0.0016107
3747.57244,0.0016489
3746.60806,0.0016636
3745.64369,0.0016371
3744.67931,0.0015970
3743.71493,0.0015410
3742.75055,0.0014162
3741.78618,0.0012859
3740.82180,0.0012231
3739.85742,0.0011855
3738.89304,0.0011699
3737.92866,0.0011578
3736.96429,0.0011981
3735.99991,0.0012662
3735.03553,0.0012481
3734.07115,0.0011520
3733.10677,0.0010412
3732.14240,0.0009437
3731.17802,0.0008560
3730.21364,0.0008955
3729.24926,0.0010544
3728.28488,0.0012207
3727.32051,0.0013832
3726.35613,0.0015126
3725.39175,0.0015960
3724.42737,0.0015478
3723.46300,0.0014084
3722.49862,0.0012621
3721.53424,0.0010969
3720.56986,0.0009566
3719.60548,0.0008792
3718.64111,0.0009283
3717.67673,0.0010215
3716.71235,0.0011410
3715.74797,0.0013378
3714.78359,0.0015330
3713.81922,0.0017099
3712.85484,0.0017801
3711.89046,0.0017407
3710.92608,0.0016537
3709.96171,0.0015495
3708.99733,0.0015250
3708.03295,0.0015453
3707.06857,0.0015190
3706.10419,0.0014439
3705.13982,0.0014105
3704.17544,0.0014126
3703.21106,0.0013778
3702.24668,0.0013146
3701.28230,0.0012102
3700.31793,0.0010804
3699.35355,0.0009652
3698.38917,0.0008968
3697.42479,0.0008903
3696.46041,0.0009181
3695.49604,0.0009547
3694.53166,0.0010184
3693.56728,0.0010839
3692.60290,0.0011013
3691.63853,0.0011029
3690.67415,0.0011234
3689.70977,0.0012113
3688.74539,0.0013184
3687.78101,0.0013938
3686.81664,0.0014841
3685.85226,0.0015570
3684.88788,0.0016150
3683.92350,0.0016240
3682.95912,0.0015340
3681.99475,0.0013636
3681.03037,0.0011903
3680.06599,0.0011156
3679.10161,0.0010887
3678.13724,0.0010281
3677.17286,0.0009851
3676.20848,0.0011027
3675.24410,0.0012796
3674.27972,0.0014047
3673.31535,0.0015361
3672.35097,0.0015710
3671.38659,0.0015125
3670.42221,0.0014470
3669.45783,0.0014328
3668.49346,0.0015157
3667.52908,0.0015907
3666.56470,0.0015764
3665.60032,0.0015339
3664.63594,0.0015278
3663.67157,0.0014252
3662.70719,0.0012817
3661.74281,0.0012053
3660.77843,0.0011175
3659.81406,0.0010926
3658.84968,0.0011122
3657.88530,0.0011419
3656.92092,0.0012307
3655.95654,0.0013459
3654.99217,0.0014237
3654.02779,0.0014475
3653.06341,0.0014852
3652.09903,0.0014828
3651.13465,0.0014563
3650.17028,0.0014580
3649.20590,0.0014518
3648.24152,0.0014748
3647.27714,0.0014809
3646.31276,0.0014175
3645.34839,0.0013379
3644.38401,0.0013229
3643.41963,0.0013405
3642.45525,0.0013722
3641.49088,0.0014054
3640.52650,0.0013504
3639.56212,0.0013307
3638.59774,0.0013624
3637.63336,0.0013634
3636.66899,0.0014126
3635.70461,0.0014688
3634.74023,0.0014887
3633.77585,0.0015519
3632.81147,0.0016845
3631.84710,0.0017816
3630.88272,0.0018249
3629.91834,0.0018762
3628.95396,0.0019427
3627.98959,0.0020407
3627.02521,0.0020690
3626.06083,0.0020100
3625.09645,0.0019393
3624.13207,0.0018275
3623.16770,0.0017004
3622.20332,0.0016174
3621.23894,0.0016008
3620.27456,0.0016039
3619.31018,0.0016474
3618.34581,0.0018126
3617.38143,0.0019825
3616.41705,0.0020482
3615.45267,0.0020373
3614.48829,0.0020027
3613.52392,0.0019874
3612.55954,0.0019585
3611.59516,0.0018709
3610.63078,0.0017936
3609.66641,0.0018006
3608.70203,0.0018042
3607.73765,0.0017604
3606.77327,0.0017466
3605.80889,0.0017302
3604.84452,0.0016719
3603.88014,0.0016019
3602.91576,0.0015558
3601.95138,0.0015532
3600.98700,0.0015203
3600.02263,0.0014568
3599.05825,0.0014647
3598.09387,0.0015347
3597.12949,0.0015919
3596.16512,0.0016001
3595.20074,0.0016060
3594.23636,0.0016348
3593.27198,0.0016243
3592.30760,0.0015707
3591.34323,0.0015159
3590.37885,0.0014888
3589.41447,0.0014590
3588.45009,0.0013883
3587.48571,0.0013437
3586.52134,0.0013612
3585.55696,0.0014237
3584.59258,0.0014920
3583.62820,0.0015172
3582.66382,0.0015275
3581.69945,0.0015548
3580.73507,0.0016134
3579.77069,0.0016750
3578.80631,0.0017084
3577.84194,0.0017219
3576.87756,0.0016978
3575.91318,0.0016841
3574.94880,0.0016925
3573.98442,0.0016976
3573.02005,0.0017236
3572.05567,0.0017187
3571.09129,0.0016800
3570.12691,0.0016726
3569.16253,0.0016813
3568.19816,0.0016581
3567.23378,0.0016313
3566.26940,0.0016516
3565.30502,0.0016852
3564.34065,0.0016956
3563.37627,0.0016746
3562.41189,0.0016538
3561.44751,0.0016657
3560.48313,0.0016892
3559.51876,0.0017176
3558.55438,0.0017690
3557.59000,0.0018317
3556.62562,0.0018402
3555.66124,0.0018238
3554.69687,0.0018395
3553.73249,0.0018661
3552.76811,0.0018876
3551.80373,0.0018627
3550.83935,0.0018394
3549.87498,0.0018839
3548.91060,0.0019550
3547.94622,0.0019925
3546.98184,0.0019865
3546.01747,0.0019845
3545.05309,0.0019594
3544.08871,0.0019538
3543.12433,0.0020001
3542.15995,0.0019765
3541.19558,0.0018755
3540.23120,0.0017584
3539.26682,0.0017134
3538.30244,0.0017300
3537.33806,0.0016628
3536.37369,0.0015465
3535.40931,0.0014938
3534.44493,0.0015211
3533.48055,0.0015757
3532.51618,0.0016328
3531.55180,0.0016721
3530.58742,0.0016369
3529.62304,0.0016173
3528.65866,0.0016915
3527.69429,0.0018197
3526.72991,0.0019347
3525.76553,0.0019555
3524.80115,0.0019556
3523.83677,0.0020122
3522.87240,0.0020607
3521.90802,0.0020773
3520.94364,0.0020749
3519.97926,0.0020234
3519.01488,0.0019105
3518.05051,0.0018089
3517.08613,0.0017481
3516.12175,0.0016945
3515.15737,0.0016633
3514.19300,0.0016756
3513.22862,0.0017235
3512.26424,0.0017836
3511.29986,0.0018602
3510.33548,0.0019378
3509.37111,0.0019834
3508.40673,0.0020001
3507.44235,0.0019512
3506.47797,0.0018506
3505.51359,0.0017821
3504.54922,0.0017769
3503.58484,0.0018347
3502.62046,0.0019496
3501.65608,0.0020511
3500.69171,0.0020829
3499.72733,0.0021071
3498.76295,0.0021360
3497.79857,0.0021520
3496.83419,0.0021569
3495.86982,0.0020947
3494.90544,0.0019798
3493.94106,0.0018929
3492.97668,0.0018698
3492.01230,0.0018767
3491.04793,0.0019298
3490.08355,0.0020372
3489.11917,0.0021225
3488.15479,0.0022174
3487.19041,0.0023048
3486.22604,0.0023088
3485.26166,0.0022687
3484.29728,0.0022017
3483.33290,0.0021015
3482.36853,0.0020270
3481.40415,0.0020188
3480.43977,0.0020172
3479.47539,0.0020288
3478.51101,0.0020733
3477.54664,0.0020908
3476.58226,0.0020909
3475.61788,0.0020594
3474.65350,0.0020312
3473.68912,0.0020391
3472.72475,0.0020033
3471.76037,0.0020018
3470.79599,0.0021306
3469.83161,0.0022959
3468.86724,0.0024015
3467.90286,0.0024625
3466.93848,0.0025026
3465.97410,0.0025058
3465.00972,0.0024892
3464.04535,0.0024516
3463.08097,0.0023617
3462.11659,0.0021920
3461.15221,0.0019882
3460.18783,0.0018848
3459.22346,0.0018797
3458.25908,0.0018792
3457.29470,0.0019025
3456.33032,0.0019569
3455.36594,0.0019968
3454.40157,0.0020550
3453.43719,0.0021649
3452.47281,0.0022566
3451.50843,0.0022875
3450.54406,0.0022962
3449.57968,0.0023020
3448.61530,0.0023255
3447.65092,0.0023668
3446.68654,0.0023891
3445.72217,0.0023968
3444.75779,0.0023836
3443.79341,0.0023394
3442.82903,0.0023024
3441.86465,0.0022967
3440.90028,0.0022845
3439.93590,0.0022298
3438.97152,0.0021702
3438.00714,0.0021359
3437.04276,0.0021459
3436.07839,0.0022065
3435.11401,0.0022582
3434.14963,0.0022772
3433.18525,0.0022958
3432.22088,0.0023234
3431.25650,0.0023151
3430.29212,0.0022701
3429.32774,0.0022189
3428.36336,0.0021264
3427.39899,0.0020522
3426.43461,0.0020773
3425.47023,0.0021402
3424.50585,0.0021806
3423.54147,0.0022055
3422.57710,0.0022484
3421.61272,0.0023269
3420.64834,0.0024056
3419.68396,0.0024300
3418.71959,0.0024281
3417.75521,0.0023999
3416.79083,0.0022876
3415.82645,0.0021873
3414.86207,0.0021570
3413.89770,0.0021066
3412.93332,0.0020403
3411.96894,0.0020533
3411.00456,0.0021490
3410.04018,0.0022500
3409.07581,0.0023413
3408.11143,0.0024143
3407.14705,0.0024819
3406.18267,0.0025443
3405.21829,0.0025326
3404.25392,0.0025024
3403.28954,0.0024989
3402.32516,0.0024712
3401.36078,0.0024276
3400.39641,0.0023915
3399.43203,0.0023413
3398.46765,0.0022445
3397.50327,0.0021383
3396.53889,0.0020692
3395.57452,0.0020609
3394.61014,0.0020835
3393.64576,0.0020719
3392.68138,0.0020762
3391.71700,0.0021172
3390.75263,0.0021389
3389.78825,0.0021470
3388.82387,0.0021743
3387.85949,0.0022221
3386.89512,0.0022597
3385.93074,0.0022931
3384.96636,0.0023558
3384.00198,0.0024197
3383.03760,0.0024283
3382.07323,0.0024124
3381.10885,0.0024034
3380.14447,0.0023965
3379.18009,0.0024224
3378.21571,0.0024733
3377.25134,0.0025550
3376.28696,0.0026629
3375.32258,0.0027417
3374.35820,0.0027667
3373.39382,0.0027488
3372.42945,0.0027162
3371.46507,0.0026509
3370.50069,0.0025686
3369.53631,0.0025010
3368.57194,0.0024393
3367.60756,0.0024023
3366.64318,0.0023965
3365.67880,0.0024363
3364.71442,0.0025021
3363.75005,0.0025424
3362.78567,0.0025459
3361.82129,0.0025466
3360.85691,0.0025669
3359.89253,0.0025594
3358.92816,0.0025215
3357.96378,0.0024592
3356.99940,0.0023768
3356.03502,0.0023206
3355.07065,0.0023299
3354.10627,0.0024100
3353.14189,0.0024782
3352.17751,0.0024984
3351.21313,0.0025041
3350.24876,0.0025272
3349.28438,0.0025549
3348.32000,0.0025607
3347.35562,0.0025928
3346.39124,0.0026079
3345.42687,0.0025761
3344.46249,0.0025517
3343.49811,0.0025652
3342.53373,0.0026146
3341.56935,0.0026145
3340.60498,0.0025826
3339.64060,0.0025790
3338.67622,0.0025906
3337.71184,0.0026328
3336.74747,0.0027343
3335.78309,0.0028748
3334.81871,0.0029353
3333.85433,0.0029167
3332.88995,0.0029043
3331.92558,0.0028887
3330.96120,0.0028382
3329.99682,0.0027469
3329.03244,0.0026837
3328.06806,0.0026522
3327.10369,0.0026207
3326.13931,0.0026147
3325.17493,0.0026469
3324.21055,0.0026824
3323.24618,0.0026638
3322.28180,0.0026648
3321.31742,0.0027039
3320.35304,0.0027050
3319.38866,0.0026880
3318.42429,0.0026955
3317.45991,0.0027233
3316.49553,0.0026923
3315.53115,0.0026257
3314.56677,0.0025813
3313.60240,0.0025536
3312.63802,0.0025591
3311.67364,0.0025587
3310.70926,0.0025827
3309.74488,0.0026212
3308.78051,0.0026047
3307.81613,0.0025789
3306.85175,0.0025735
3305.88737,0.0025804
3304.92300,0.0025670
3303.95862,0.0025595
3302.99424,0.0025812
3302.02986,0.0026109
3301.06548,0.0026706
3300.10111,0.0027153
3299.13673,0.0027426
3298.17235,0.0027747
3297.20797,0.0027815
3296.24359,0.0027961
3295.27922,0.0028461
3294.31484,0.0029021
3293.35046,0.0029061
3292.38608,0.0028680
3291.42171,0.0028339
3290.45733,0.0028158
3289.49295,0.0028255
3288.52857,0.0028161
3287.56419,0.0027636
3286.59982,0.0027255
3285.63544,0.0027292
3284.67106,0.0027409
3283.70668,0.0027420
3282.74230,0.0027392
3281.77793,0.0027306
3280.81355,0.0027587
3279.84917,0.0028227
3278.88479,0.0028629
3277.92041,0.0028901
3276.95604,0.0028913
3275.99166,0.0028475
3275.02728,0.0028143
3274.06290,0.0027835
3273.09853,0.0027117
3272.13415,0.0026266
3271.16977,0.0025649
3270.20539,0.0025491
3269.24101,0.0025918
3268.27664,0.0026486
3267.31226,0.0026797
3266.34788,0.0027129
3265.38350,0.0027478
3264.41912,0.0027799
3263.45475,0.0028186
3262.49037,0.0028205
3261.52599,0.0028085
3260.56161,0.0028329
3259.59724,0.0028720
3258.63286,0.0029045
3257.66848,0.0029219
3256.70410,0.0029257
3255.73972,0.0028759
3254.77535,0.0027455
3253.81097,0.0026089
3252.84659,0.0025413
3251.88221,0.0025324
3250.91783,0.0025178
3249.95346,0.0025214
3248.98908,0.0025938
3248.02470,0.0026682
3247.06032,0.0027105
3246.09594,0.0027632
3245.13157,0.0028126
3244.16719,0.0028031
3243.20281,0.0027516
3242.23843,0.0027323
3241.27406,0.0027523
3240.30968,0.0027705
3239.34530,0.0027556
3238.38092,0.0027221
3237.41654,0.0027056
3236.45217,0.0026684
3235.48779,0.0026157
3234.52341,0.0025879
3233.55903,0.0025548
3232.59465,0.0025281
3231.63028,0.0025477
3230.66590,0.0026018
3229.70152,0.0026492
3228.73714,0.0027067
3227.77276,0.0027813
3226.80839,0.0028232
3225.84401,0.0028445
3224.87963,0.0028191
3223.91525,0.0027641
3222.95088,0.0027513
3221.98650,0.0027448
3221.02212,0.0027330
3220.05774,0.0027289
3219.09336,0.0027117
3218.12899,0.0026687
3217.16461,0.0026317
3216.20023,0.0025724
3215.23585,0.0024694
3214.27147,0.0024156
3213.30710,0.0023738
3212.34272,0.0023489
3211.37834,0.0023951
3210.41396,0.0024452
3209.44959,0.0024862
3208.48521,0.0025220
3207.52083,0.0025558
3206.55645,0.0025466
3205.59207,0.0025005
3204.62770,0.0024861
3203.66332,0.0025118
3202.69894,0.0025785
3201.73456,0.0026274
3200.77018,0.0026768
3199.80581,0.0027564
3198.84143,0.0028313
3197.87705,0.0029010
3196.91267,0.0029113
3195.94829,0.0028467
3194.98392,0.0027386
3194.01954,0.0026420
3193.05516,0.0025859
3192.09078,0.0025368
3191.12641,0.0024787
3190.16203,0.0024245
3189.19765,0.0024289
3188.23327,0.0024925
3187.26889,0.0025998
3186.30452,0.0026783
3185.34014,0.0026574
3184.37576,0.0026308
3183.41138,0.0026193
3182.44700,0.0025798
3181.48263,0.0025420
3180.51825,0.0025264
3179.55387,0.0024975
3178.58949,0.0024727
3177.62512,0.0025052
3176.66074,0.0025737
3175.69636,0.0026528
3174.73198,0.0026610
3173.76760,0.0026282
3172.80323,0.0026474
3171.83885,0.0026440
3170.87447,0.0026186
3169.91009,0.0026082
3168.94571,0.0025921
3167.98134,0.0025473
3167.01696,0.0024740
3166.05258,0.0024158
3165.08820,0.0023743
3164.12382,0.0023283
3163.15945,0.0022696
3162.19507,0.0022565
3161.23069,0.0022995
3160.26631,0.0023449
3159.30194,0.0024192
3158.33756,0.0025157
3157.37318,0.0026052
3156.40880,0.0026414
3155.44442,0.0026096
3154.48005,0.0025884
3153.51567,0.0025705
3152.55129,0.0025168
3151.58691,0.0024676
3150.62253,0.0024501
3149.65816,0.0024346
3148.69378,0.0024147
3147.72940,0.0024130
3146.76502,0.0024224
3145.80065,0.0024241
3144.83627,0.0023837
3143.87189,0.0023231
3142.90751,0.0022955
3141.94313,0.0022915
3140.97876,0.0023192
3140.01438,0.0023830
3139.05000,0.0024485
3138.08562,0.0025014
3137.12124,0.0025390
3136.15687,0.0025699
3135.19249,0.0026049
3134.22811,0.0026202
3133.26373,0.0025954
3132.29935,0.0025436
3131.33498,0.0024842
3130.37060,0.0024565
3129.40622,0.0024717
3128.44184,0.0024663
3127.47747,0.0024387
3126.51309,0.0024166
3125.54871,0.0023880
3124.58433,0.0023962
3123.61995,0.0024385
3122.65558,0.0024599
3121.69120,0.0024634
3120.72682,0.0024672
3119.76244,0.0024991
3118.79806,0.0025546
3117.83369,0.0025730
3116.86931,0.0025288
3115.90493,0.0024803
3114.94055,0.0024521
3113.97618,0.0024254
3113.01180,0.0024330
3112.04742,0.0024559
3111.08304,0.0024606
3110.11866,0.0024512
3109.15429,0.0024513
3108.18991,0.0024861
3107.22553,0.0025070
3106.26115,0.0025101
3105.29677,0.0025244
3104.33240,0.0025579
3103.36802,0.0025954
3102.40364,0.0026012
3101.43926,0.0026133
3100.47488,0.0026353
3099.51051,0.0026506
3098.54613,0.0026470
3097.58175,0.0026099
3096.61737,0.0025593
3095.65300,0.0024947
3094.68862,0.0024721
3093.72424,0.0024852
3092.75986,0.0024856
3091.79548,0.0024742
3090.83111,0.0024269
3089.86673,0.0024000
3088.90235,0.0024287
3087.93797,0.0024833
3086.97359,0.0025118
3086.00922,0.0024716
3085.04484,0.0024264
3084.08046,0.0024204
3083.11608,0.0024468
3082.15171,0.0024684
3081.18733,0.0024664
3080.22295,0.0024556
3079.25857,0.0024351
3078.29419,0.0024522
3077.32982,0.0025043
3076.36544,0.0025229
3075.40106,0.0024826
3074.43668,0.0024217
3073.47230,0.0023994
3072.50793,0.0023995
3071.54355,0.0023840
3070.57917,0.0023614
3069.61479,0.0023550
3068.65041,0.0023762
3067.68604,0.0024114
3066.72166,0.0024472
3065.75728,0.0024774
3064.79290,0.0024884
3063.82853,0.0024839
3062.86415,0.0024749
3061.89977,0.0024518
3060.93539,0.0024193
3059.97101,0.0023886
3059.00664,0.0023570
3058.04226,0.0023371
3057.07788,0.0023447
3056.11350,0.0023508
3055.14912,0.0023350
3054.18475,0.0023164
3053.22037,0.0022927
3052.25599,0.0022874
3051.29161,0.0022947
3050.32724,0.0022787
3049.36286,0.0022599
3048.39848,0.0022392
3047.43410,0.0022411
3046.46972,0.0022816
3045.50535,0.0023308
3044.54097,0.0023684
3043.57659,0.0023797
3042.61221,0.0023879
3041.64783,0.0023837
3040.68346,0.0023672
3039.71908,0.0023620
3038.75470,0.0023646
3037.79032,0.0023687
3036.82594,0.0023388
3035.86157,0.0023166
3034.89719,0.0023380
3033.93281,0.0023504
3032.96843,0.0023518
3032.00406,0.0023523
3031.03968,0.0023424
3030.07530,0.0023269
3029.11092,0.0023350
3028.14654,0.0023805
3027.18217,0.0024282
3026.21779,0.0024392
3025.25341,0.0024007
3024.28903,0.0023494
3023.32465,0.0023034
3022.36028,0.0022303
3021.39590,0.0021578
3020.43152,0.0021285
3019.46714,0.0021234
3018.50276,0.0021455
3017.53839,0.0021814
3016.57401,0.0021944
3015.60963,0.0021996
3014.64525,0.0022091
3013.68088,0.0022186
3012.71650,0.0022087
3011.75212,0.0022024
3010.78774,0.0022483
3009.82336,0.0023235
3008.85899,0.0023979
3007.89461,0.0024400
3006.93023,0.0024567
3005.96585,0.0024751
3005.00147,0.0024797
3004.03710,0.0024795
3003.07272,0.0024839
3002.10834,0.0024970
3001.14396,0.0025199
3000.17959,0.0025591
2999.21521,0.0025958
2998.25083,0.0025701
2997.28645,0.0025080
2996.32207,0.0024614
2995.35770,0.0024375
2994.39332,0.0024184
2993.42894,0.0023715
2992.46456,0.0023323
2991.50018,0.0023312
2990.53581,0.0023320
2989.57143,0.0023268
2988.60705,0.0023246
2987.64267,0.0023060
2986.67829,0.0022584
2985.71392,0.0022050
2984.74954,0.0021755
2983.78516,0.0021571
2982.82078,0.0021371
2981.85641,0.0021193
2980.89203,0.0021103
2979.92765,0.0021217
2978.96327,0.0021289
2977.99889,0.0021587
2977.03452,0.0022460
2976.07014,0.0023510
2975.10576,0.0024544
2974.14138,0.0025282
2973.17700,0.0025721
2972.21263,0.0026130
2971.24825,0.0026414
2970.28387,0.0026373
2969.31949,0.0025890
2968.35512,0.0025437
2967.39074,0.0025324
2966.42636,0.0025673
2965.46198,0.0026490
2964.49760,0.0027404
2963.53323,0.0028434
2962.56885,0.0029281
2961.60447,0.0029744
2960.64009,0.0030060
2959.67571,0.0030165
2958.71134,0.0030079
2957.74696,0.0029798
2956.78258,0.0029369
2955.81820,0.0028910
2954.85382,0.0028530
2953.88945,0.0028149
2952.92507,0.0027743
2951.96069,0.0027651
2950.99631,0.0027724
2950.03194,0.0027852
2949.06756,0.0028201
2948.10318,0.0028894
2947.13880,0.0030001
2946.17442,0.0030852
2945.21005,0.0031135
2944.24567,0.0031257
2943.28129,0.0031310
2942.31691,0.0031267
2941.35253,0.0031138
2940.38816,0.0031084
2939.42378,0.0031420
2938.45940,0.0032168
2937.49502,0.0032960
2936.53065,0.0033830
2935.56627,0.0034959
2934.60189,0.0035692
2933.63751,0.0036008
2932.67313,0.0036478
2931.70876,0.0036901
2930.74438,0.0037341
2929.78000,0.0038051
2928.81562,0.0039039
2927.85124,0.0040338
2926.88687,0.0041506
2925.92249,0.0042067
2924.95811,0.0042318
2923.99373,0.0042643
2923.02935,0.0042774
2922.06498,0.0042462
2921.10060,0.0041750
2920.13622,0.0040688
2919.17184,0.0039545
2918.20747,0.0038546
2917.24309,0.0037564
2916.27871,0.0036501
2915.31433,0.0035333
2914.34995,0.0033993
2913.38558,0.0032931
2912.42120,0.0032569
2911.45682,0.0032479
2910.49244,0.0032167
2909.52806,0.0031680
2908.56369,0.0031212
2907.59931,0.0030552
2906.63493,0.0029733
2905.67055,0.0029136
2904.70618,0.0028806
2903.74180,0.0028642
2902.77742,0.0028347
2901.81304,0.0028119
2900.84866,0.0028164
2899.88429,0.0028042
2898.91991,0.0027873
2897.95553,0.0027839
2896.99115,0.0027641
2896.02677,0.0027118
2895.06240,0.0026606
2894.09802,0.0026374
2893.13364,0.0026269
2892.16926,0.0026060
2891.20488,0.0025468
2890.24051,0.0024890
2889.27613,0.0024642
2888.31175,0.0024473
2887.34737,0.0024586
2886.38300,0.0024864
2885.41862,0.0024943
2884.45424,0.0024908
2883.48986,0.0024887
2882.52548,0.0024810
2881.56111,0.0024681
2880.59673,0.0024533
2879.63235,0.0024325
2878.66797,0.0024490
2877.70359,0.0025175
2876.73922,0.0025984
2875.77484,0.0026614
2874.81046,0.0026792
2873.84608,0.0026726
2872.88171,0.0026576
2871.91733,0.0026203
2870.95295,0.0025746
2869.98857,0.0025292
2869.02419,0.0024930
2868.05982,0.0024800
2867.09544,0.0025007
2866.13106,0.0025616
2865.16668,0.0026309
2864.20230,0.0026729
2863.23793,0.0026994
2862.27355,0.0027340
2861.30917,0.0027720
2860.34479,0.0028087
2859.38041,0.0028495
2858.41604,0.0028835
2857.45166,0.0029129
2856.48728,0.0029468
2855.52290,0.0029847
2854.55853,0.0030379
2853.59415,0.0030835
2852.62977,0.0031019
2851.66539,0.0031044
2850.70101,0.0030839
2849.73664,0.0030537
2848.77226,0.0030047
2847.80788,0.0029070
2846.84350,0.0027778
2845.87912,0.0026464
2844.91475,0.0025375
2843.95037,0.0024539
2842.98599,0.0023964
2842.02161,0.0023704
2841.05724,0.0023751
2840.09286,0.0024031
2839.12848,0.0024269
2838.16410,0.0024514
2837.19972,0.0024524
2836.23535,0.0024067
2835.27097,0.0023667
2834.30659,0.0023307
2833.34221,0.0022783
2832.37783,0.0022196
2831.41346,0.0021591
2830.44908,0.0021120
2829.48470,0.0020838
2828.52032,0.0020694
2827.55594,0.0020603
2826.59157,0.0020660
2825.62719,0.0020794
2824.66281,0.0021054
2823.69843,0.0021681
2822.73406,0.0022070
2821.76968,0.0022060
2820.80530,0.0021963
2819.84092,0.0021519
2818.87654,0.0020978
2817.91217,0.0020702
2816.94779,0.0020466
2815.98341,0.0020184
2815.01903,0.0020129
2814.05465,0.0020334
2813.09028,0.0020692
2812.12590,0.0021149
2811.16152,0.0021345
2810.19714,0.0021219
2809.23276,0.0021012
2808.26839,0.0020846
2807.30401,0.0020859
2806.33963,0.0020895
2805.37525,0.0020694
2804.41088,0.0020432
2803.44650,0.0020310
2802.48212,0.0020092
2801.51774,0.0019871
2800.55336,0.0019837
2799.58899,0.0019633
2798.62461,0.0019350
2797.66023,0.0019409
2796.69585,0.0019674
2795.73147,0.0019751
2794.76710,0.0019668
2793.80272,0.0019793
2792.83834,0.0020138
2791.87396,0.0020381
2790.90959,0.0020403
2789.94521,0.0020475
2788.98083,0.0020627
2788.01645,0.0020625
2787.05207,0.0020623
2786.08770,0.0020617
2785.12332,0.0020354
2784.15894,0.0019949
2783.19456,0.0019685
2782.23018,0.0019727
2781.26581,0.0019998
2780.30143,0.0020293
2779.33705,0.0020582
2778.37267,0.0020769
2777.40829,0.0020805
2776.44392,0.0020790
2775.47954,0.0020596
2774.51516,0.0020298
2773.55078,0.0019976
2772.58641,0.0019449
2771.62203,0.0018868
2770.65765,0.0018519
2769.69327,0.0018553
2768.72889,0.0018820
2767.76452,0.0019096
2766.80014,0.0019265
2765.83576,0.0019213
2764.87138,0.0019052
2763.90700,0.0018893
2762.94263,0.0018813
2761.97825,0.0018642
2761.01387,0.0018249
2760.04949,0.0017954
2759.08512,0.0017843
2758.12074,0.0017915
2757.15636,0.0018113
2756.19198,0.0018334
2755.22760,0.0018594
2754.26323,0.0018714
2753.29885,0.0018746
2752.33447,0.0018843
2751.37009,0.0018970
2750.40571,0.0019008
2749.44134,0.0018870
2748.47696,0.0018751
2747.51258,0.0018657
2746.54820,0.0018540
2745.58382,0.0018592
2744.61945,0.0018713
2743.65507,0.0018784
2742.69069,0.0018888
2741.72631,0.0018979
2740.76194,0.0019056
2739.79756,0.0019101
2738.83318,0.0018895
2737.86880,0.0018488
2736.90442,0.0018186
2735.94005,0.0017935
2734.97567,0.0017588
2734.01129,0.0017333
2733.04691,0.0017216
2732.08253,0.0017145
2731.11816,0.0017189
2730.15378,0.0017323
2729.18940,0.0017410
2728.22502,0.0017275
2727.26065,0.0017094
2726.29627,0.0017161
2725.33189,0.0017282
2724.36751,0.0017416
2723.40313,0.0017654
2722.43876,0.0017863
2721.47438,0.0018030
2720.51000,0.0018119
2719.54562,0.0018189
2718.58124,0.0018330
2717.61687,0.0018333
2716.65249,0.0018166
2715.68811,0.0018148
2714.72373,0.0018209
2713.75935,0.0018093
2712.79498,0.0018073
2711.83060,0.0018138
2710.86622,0.0017804
2709.90184,0.0017317
2708.93747,0.0017168
2707.97309,0.0017204
2707.00871,0.0017197
2706.04433,0.0017188
2705.07995,0.0017258
2704.11558,0.0017352
2703.15120,0.0017387
2702.18682,0.0017483
2701.22244,0.0017677
2700.25806,0.0017681
2699.29369,0.0017333
2698.32931,0.0017029
2697.36493,0.0017072
2696.40055,0.0017253
2695.43618,0.0017469
2694.47180,0.0017686
2693.50742,0.0017818
2692.54304,0.0017945
2691.57866,0.0018179
2690.61429,0.0018445
2689.64991,0.0018599
2688.68553,0.0018696
2687.72115,0.0018687
2686.75677,0.0018522
2685.79240,0.0018322
2684.82802,0.0018092
2683.86364,0.0017757
2682.89926,0.0017275
2681.93488,0.0016899
2680.97051,0.0016697
2680.00613,0.0016467
2679.04175,0.0016408
2678.07737,0.0016678
2677.11300,0.0017106
2676.14862,0.0017371
2675.18424,0.0017456
2674.21986,0.0017476
2673.25548,0.0017285
2672.29111,0.0016974
2671.32673,0.0016668
2670.36235,0.0016409
2669.39797,0.0016205
2668.43359,0.0016093
2667.46922,0.0016290
2666.50484,0.0016644
2665.54046,0.0016922
2664.57608,0.0017181
2663.61171,0.0017521
2662.64733,0.0017747
2661.68295,0.0017649
2660.71857,0.0017482
2659.75419,0.0017340
2658.78982,0.0017165
2657.82544,0.0017063
2656.86106,0.0017056
2655.89668,0.0017073
2654.93230,0.0017018
2653.96793,0.0016881
2653.00355,0.0016748
2652.03917,0.0016613
2651.07479,0.0016275
2650.11041,0.0015948
2649.14604,0.0015897
2648.18166,0.0015896
2647.21728,0.0015873
2646.25290,0.0015814
2645.28853,0.0015921
2644.32415,0.0016248
2643.35977,0.0016393
2642.39539,0.0016366
2641.43101,0.0016355
2640.46664,0.0016256
2639.50226,0.0015950
2638.53788,0.0015741
2637.57350,0.0015569
2636.60912,0.0015096
2635.64475,0.0014711
2634.68037,0.0014565
2633.71599,0.0014725
2632.75161,0.0015145
2631.78724,0.0015452
2630.82286,0.0015703
2629.85848,0.0015775
2628.89410,0.0015619
2627.92972,0.0015535
2626.96535,0.0015572
2626.00097,0.0015398
2625.03659,0.0014973
2624.07221,0.0014807
2623.10783,0.0014837
2622.14346,0.0014943
2621.17908,0.0015423
2620.21470,0.0016105
2619.25032,0.0016595
2618.28594,0.0016918
2617.32157,0.0017332
2616.35719,0.0017751
2615.39281,0.0017932
2614.42843,0.0017975
2613.46406,0.0018074
2612.49968,0.0017931
2611.53530,0.0017447
2610.57092,0.0017018
2609.60654,0.0016459
2608.64217,0.0015587
2607.67779,0.0014817
2606.71341,0.0014498
2605.74903,0.0014297
2604.78465,0.0013915
2603.82028,0.0013826
2602.85590,0.0014326
2601.89152,0.0015281
2600.92714,0.0016121
2599.96276,0.0016569
2598.99839,0.0016848
2598.03401,0.0016871
2597.06963,0.0016868
2596.10525,0.0016963
2595.14088,0.0017044
2594.17650,0.0016998
2593.21212,0.0016906
2592.24774,0.0017169
2591.28336,0.0017457
2590.31899,0.0017567
2589.35461,0.0017596
2588.39023,0.0017357
2587.42585,0.0016963
2586.46147,0.0016590
2585.49710,0.0016181
2584.53272,0.0015847
2583.56834,0.0016052
2582.60396,0.0016365
2581.63959,0.0016258
2580.67521,0.0015975
2579.71083,0.0015561
2578.74645,0.0015454
2577.78207,0.0015694
2576.81770,0.0015847
2575.85332,0.0015942
2574.88894,0.0015939
2573.92456,0.0015802
2572.96018,0.0015607
2571.99581,0.0015440
2571.03143,0.0015044
2570.06705,0.0014205
2569.10267,0.0013299
2568.13829,0.0012977
2567.17392,0.0013427
2566.20954,0.0014011
2565.24516,0.0014623
2564.28078,0.0015529
2563.31641,0.0016459
2562.35203,0.0017131
2561.38765,0.0017679
2560.42327,0.0018649
2559.45889,0.0019698
2558.49452,0.0019736
2557.53014,0.0019076
2556.56576,0.0018638
2555.60138,0.0018043
2554.63700,0.0017121
2553.67263,0.0016510
2552.70825,0.0016272
2551.74387,0.0016032
2550.77949,0.0015316
2549.81512,0.0014597
2548.85074,0.0014832
2547.88636,0.0015156
2546.92198,0.0014479
2545.95760,0.0013806
2544.99323,0.0013981
2544.02885,0.0014271
2543.06447,0.0014566
2542.10009,0.0015004
2541.13571,0.0014830
2540.17134,0.0013696
2539.20696,0.0012175
2538.24258,0.0011121
2537.27820,0.0010834
2536.31382,0.0010871
2535.34945,0.0010613
2534.38507,0.0010704
2533.42069,0.0012068
2532.45631,0.0013952
2531.49194,0.0015579
2530.52756,0.0016709
2529.56318,0.0017231
2528.59880,0.0017186
2527.63442,0.0016860
2526.67005,0.0016681
2525.70567,0.0016407
2524.74129,0.0015937
2523.77691,0.0015205
2522.81253,0.0014532
2521.84816,0.0014455
2520.88378,0.0014378
2519.91940,0.0014265
2518.95502,0.0014319
2517.99065,0.0014199
2517.02627,0.0013850
2516.06189,0.0013421
2515.09751,0.0013144
2514.13313,0.0012887
2513.16876,0.0012858
2512.20438,0.0013384
2511.24000,0.0013900
2510.27562,0.0013863
2509.31124,0.0013767
2508.34687,0.0014261
2507.38249,0.0014800
2506.41811,0.0014806
2505.45373,0.0014485
2504.48935,0.0014172
2503.52498,0.0013797
2502.56060,0.0013230
2501.59622,0.0013012
2500.63184,0.0013074
2499.66747,0.0012648
2498.70309,0.0012019
2497.73871,0.0012111
2496.77433,0.0012682
2495.80995,0.0012892
2494.84558,0.0012714
2493.88120,0.0012715
2492.91682,0.0013259
2491.95244,0.0013574
2490.98806,0.0013533
2490.02369,0.0014013
2489.05931,0.0014685
2488.09493,0.0015165
2487.13055,0.0015387
2486.16618,0.0015195
2485.20180,0.0014500
2484.23742,0.0013337
2483.27304,0.0012468
2482.30866,0.0012120
2481.34429,0.0011897
2480.37991,0.0011913
2479.41553,0.0012558
2478.45115,0.0013772
2477.48677,0.0015175
2476.52240,0.0016732
2475.55802,0.0017694
2474.59364,0.0017307
2473.62926,0.0016333
2472.66488,0.0015833
2471.70051,0.0016014
2470.73613,0.0015953
2469.77175,0.0015200
2468.80737,0.0014549
2467.84300,0.0014112
2466.87862,0.0013480
2465.91424,0.0012936
2464.94986,0.0012871
2463.98548,0.0012780
2463.02111,0.0012348
2462.05673,0.0012416
2461.09235,0.0013008
2460.12797,0.0013389
2459.16359,0.0013060
2458.19922,0.0012110
2457.23484,0.0011434
2456.27046,0.0010916
2455.30608,0.0010509
2454.34171,0.0010916
2453.37733,0.0012079
2452.41295,0.0013352
2451.44857,0.0014154
2450.48419,0.0014785
2449.51982,0.0015033
2448.55544,0.0014651
2447.59106,0.0013913
2446.62668,0.0013081
2445.66230,0.0012977
2444.69793,0.0012868
2443.73355,0.0012599
2442.76917,0.0012972
2441.80479,0.0013215
2440.84041,0.0013108
2439.87604,0.0013229
2438.91166,0.0013828
2437.94728,0.0013971
2436.98290,0.0013628
2436.01853,0.0013590
2435.05415,0.0013691
2434.08977,0.0014139
2433.12539,0.0014105
2432.16101,0.0013660
2431.19664,0.0013507
2430.23226,0.0012890
2429.26788,0.0012362
2428.30350,0.0012369
2427.33912,0.0012324
2426.37475,0.0012096
2425.41037,0.0012226
2424.44599,0.0012693
2423.48161,0.0012939
2422.51724,0.0013235
2421.55286,0.0013676
2420.58848,0.0014146
2419.62410,0.0014207
2418.65972,0.0013858
2417.69535,0.0013869
2416.73097,0.0014106
2415.76659,0.0014258
2414.80221,0.0014550
2413.83783,0.0015116
2412.87346,0.0015362
2411.90908,0.0015108
2410.94470,0.0014744
2409.98032,0.0014264
2409.01594,0.0013882
2408.05157,0.0013693
2407.08719,0.0013718
2406.12281,0.0013783
2405.15843,0.0013633
2404.19406,0.0013362
2403.22968,0.0013342
2402.26530,0.0013853
2401.30092,0.0014096
2400.33654,0.0013771
2399.37217,0.0013362
2398.40779,0.0012923
2397.44341,0.0012921
2396.47903,0.0013474
2395.51465,0.0013684
2394.55028,0.0013373
2393.58590,0.0013259
2392.62152,0.0013358
2391.65714,0.0013627
2390.69276,0.0014113
2389.72839,0.0014204
2388.76401,0.0013964
2387.79963,0.0013942
2386.83525,0.0014110
2385.87088,0.0014285
2384.90650,0.0014261
2383.94212,0.0013977
2382.97774,0.0014016
2382.01336,0.0014674
2381.04899,0.0015798
2380.08461,0.0017540
2379.12023,0.0019271
2378.15585,0.0020533
2377.19147,0.0022020
2376.22710,0.0023857
2375.26272,0.0025670
2374.29834,0.0027507
2373.33396,0.0029611
2372.36959,0.0032032
2371.40521,0.0034635
2370.44083,0.0037144
2369.47645,0.0039390
2368.51207,0.0041178
2367.54770,0.0041995
2366.58332,0.0042083
2365.61894,0.0042223
2364.65456,0.0042299
2363.69018,0.0042128
2362.72581,0.0042155
2361.76143,0.0042299
2360.79705,0.0042499
2359.83267,0.0042872
2358.86829,0.0042819
2357.90392,0.0042155
2356.93954,0.0041092
2355.97516,0.0039592
2355.01078,0.0037561
2354.04641,0.0034867
2353.08203,0.0031767
2352.11765,0.0028893
2351.15327,0.0026652
2350.18889,0.0024978
2349.22452,0.0024308
2348.26014,0.0024827
2347.29576,0.0025777
2346.33138,0.0027218
2345.36700,0.0029234
2344.40263,0.0031221
2343.43825,0.0032700
2342.47387,0.0033791
2341.50949,0.0034880
2340.54512,0.0035650
2339.58074,0.0035955
2338.61636,0.0035942
2337.65198,0.0035836
2336.68760,0.0035749
2335.72323,0.0035337
2334.75885,0.0034978
2333.79447,0.0034819
2332.83009,0.0034458
2331.86571,0.0034041
2330.90134,0.0033725
2329.93696,0.0033361
2328.97258,0.0032691
2328.00820,0.0031898
2327.04382,0.0031314
2326.07945,0.0030859
2325.11507,0.0030406
2324.15069,0.0029917
2323.18631,0.0029344
2322.22194,0.0028441
2321.25756,0.0027212
2320.29318,0.0026096
2319.32880,0.0025343
2318.36442,0.0024835
2317.40005,0.0024142
2316.43567,0.0023191
2315.47129,0.0022461
2314.50691,0.0021910
2313.54253,0.0021141
2312.57816,0.0020008
2311.61378,0.0018601
2310.64940,0.0017353
2309.68502,0.0016443
2308.72065,0.0015852
2307.75627,0.0015834
2306.79189,0.0016074
2305.82751,0.0015976
2304.86313,0.0015730
2303.89876,0.0015696
2302.93438,0.0015686
2301.97000,0.0015332
2301.00562,0.0014649
2300.04124,0.0013966
2299.07687,0.0013652
2298.11249,0.0013609
2297.14811,0.0013337
2296.18373,0.0013241
2295.21935,0.0013493
2294.25498,0.0013448
2293.29060,0.0013565
2292.32622,0.0013941
2291.36184,0.0013756
2290.39747,0.0012954
2289.43309,0.0012225
2288.46871,0.0012064
2287.50433,0.0011929
2286.53995,0.0011519
2285.57558,0.0011042
2284.61120,0.0010768
2283.64682,0.0010973
2282.68244,0.0011596
2281.71806,0.0012908
2280.75369,0.0014051
2279.78931,0.0014119
2278.82493,0.0013959
2277.86055,0.0014193
2276.89618,0.0014506
2275.93180,0.0013997
2274.96742,0.0013158
2274.00304,0.0013350
2273.03866,0.0013939
2272.07429,0.0013536
2271.10991,0.0013050
2270.14553,0.0014029
2269.18115,0.0014769
2268.21677,0.0013743
2267.25240,0.0012231
2266.28802,0.0011671
2265.32364,0.0012013
2264.35926,0.0011707
2263.39488,0.0011104
2262.43051,0.0011363
2261.46613,0.0010932
2260.50175,0.0008969
2259.53737,0.0007392
2258.57300,0.0006968
2257.60862,0.0005583
2256.64424,0.0003113
2255.67986,0.0002366
2254.71548,0.0004325
2253.75111,0.0007525
2252.78673,0.0009918
2251.82235,0.0010805
2250.85797,0.0010805
2249.89359,0.0009995
2248.92922,0.0008770
2247.96484,0.0007530
2247.00046,0.0005880
2246.03608,0.0004484
2245.07171,0.0005019
2244.10733,0.0008176
2243.14295,0.0012842
2242.17857,0.0017128
2241.21419,0.0019176
2240.24982,0.0018390
2239.28544,0.0016217
2238.32106,0.0013504
2237.35668,0.0010338
2236.39230,0.0006947
2235.42793,0.0003486
2234.46355,0.0001275
2233.49917,0.0000998
2232.53479,0.0001719
2231.57041,0.0002741
2230.60604,0.0003335
2229.64166,0.0003247
2228.67728,0.0003100
2227.71290,0.0003115
2226.74853,0.0003130
2225.78415,0.0003145
2224.81977,0.0003160
2223.85539,0.0003175
2222.89101,0.0003190
2221.92664,0.0003205
2220.96226,0.0003220
2219.99788,0.0003234
2219.03350,0.0003249
2218.06912,0.0003264
2217.10475,0.0003279
2216.14037,0.0003294
2215.17599,0.0003309
2214.21161,0.0003324
2213.24724,0.0003339
2212.28286,0.0003354
2211.31848,0.0003369
2210.35410,0.0003384
2209.38972,0.0003399
2208.42535,0.0003414
2207.46097,0.0003429
2206.49659,0.0003444
2205.53221,0.0003458
2204.56783,0.0003473
2203.60346,0.0003488
2202.63908,0.0003503
2201.67470,0.0003518
2200.71032,0.0003533
2199.74594,0.0003548
2198.78157,0.0003563
2197.81719,0.0003578
2196.85281,0.0003593
2195.88843,0.0003608
2194.92406,0.0003623
2193.95968,0.0003638
2192.99530,0.0003653
2192.03092,0.0003667
2191.06654,0.0003682
2190.10217,0.0003697
2189.13779,0.0003712
2188.17341,0.0003727
2187.20903,0.0003742
2186.24465,0.0003757
2185.28028,0.0003772
2184.31590,0.0003787
2183.35152,0.0003802
2182.38714,0.0003817
2181.42276,0.0003832
2180.45839,0.0003847
2179.49401,0.0003862
2178.52963,0.0003876
2177.56525,0.0003891
2176.60088,0.0003906
2175.63650,0.0003921
2174.67212,0.0003936
2173.70774,0.0003951
2172.74336,0.0003966
2171.77899,0.0003981
2170.81461,0.0003996
2169.85023,0.0004011
2168.88585,0.0004026
2167.92147,0.0004041
2166.95710,0.0004056
2165.99272,0.0004071
2165.02834,0.0004085
2164.06396,0.0004100
2163.09959,0.0004115
2162.13521,0.0004130
2161.17083,0.0004145
2160.20645,0.0004160
2159.24207,0.0004175
2158.27770,0.0004190
2157.31332,0.0004205
2156.34894,0.0004220
2155.38456,0.0004235
2154.42018,0.0004250
2153.45581,0.0004265
2152.49143,0.0004280
2151.52705,0.0004294
2150.56267,0.0004309
2149.59829,0.0004324
2148.63392,0.0004339
2147.66954,0.0004354
2146.70516,0.0004369
2145.74078,0.0004384
2144.77641,0.0004399
2143.81203,0.0004414
2142.84765,0.0004429
2141.88327,0.0004444
2140.91889,0.0004459
2139.95452,0.0004474
2138.99014,0.0004489
2138.02576,0.0004504
2137.06138,0.0004518
2136.09700,0.0004533
2135.13263,0.0004548
2134.16825,0.0004563
2133.20387,0.0004578
2132.23949,0.0004593
2131.27512,0.0004608
2130.31074,0.0004623
2129.34636,0.0004638
2128.38198,0.0004653
2127.41760,0.0004668
2126.45323,0.0004683
2125.48885,0.0004698
2124.52447,0.0004713
2123.56009,0.0004727
2122.59571,0.0004742
2121.63134,0.0004757
2120.66696,0.0004772
2119.70258,0.0004787
2118.73820,0.0004802
2117.77382,0.0004817
2116.80945,0.0004832
2115.84507,0.0004847
2114.88069,0.0004862
2113.91631,0.0004877
2112.95194,0.0004892
2111.98756,0.0004907
2111.02318,0.0004922
2110.05880,0.0004936
2109.09442,0.0004951
2108.13005,0.0004966
2107.16567,0.0004981
2106.20129,0.0004996
2105.23691,0.0005011
2104.27253,0.0005026
2103.30816,0.0005041
2102.34378,0.0005056
2101.37940,0.0005071
2100.41502,0.0005086
2099.45065,0.0005101
2098.48627,0.0005116
2097.52189,0.0005131
2096.55751,0.0005145
2095.59313,0.0005160
2094.62876,0.0005175
2093.66438,0.0005190
2092.70000,0.0005205
2091.73562,0.0005220
2090.77124,0.0005235
2089.80687,0.0005250
2088.84249,0.0005265
2087.87811,0.0005280
2086.91373,0.0005295
2085.94935,0.0005310
2084.98498,0.0005325
2084.02060,0.0005340
2083.05622,0.0005355
2082.09184,0.0005369
2081.12747,0.0005384
2080.16309,0.0005399
2079.19871,0.0005414
2078.23433,0.0005429
2077.26995,0.0005444
2076.30558,0.0005459
2075.34120,0.0005474
2074.37682,0.0005489
2073.41244,0.0005504
2072.44806,0.0005519
2071.48369,0.0005534
2070.51931,0.0005549
2069.55493,0.0005564
2068.59055,0.0005578
2067.62618,0.0005593
2066.66180,0.0005608
2065.69742,0.0005623
2064.73304,0.0005638
2063.76866,0.0005653
2062.80429,0.0005668
2061.83991,0.0005683
2060.87553,0.0005698
2059.91115,0.0005713
2058.94677,0.0005728
2057.98240,0.0005743
2057.01802,0.0005758
2056.05364,0.0005773
2055.08926,0.0005787
2054.12488,0.0005802
2053.16051,0.0005817
2052.19613,0.0005832
2051.23175,0.0005847
2050.26737,0.0005862
2049.30300,0.0005877
2048.33862,0.0005892
2047.37424,0.0005907
2046.40986,0.0005922
2045.44548,0.0005937
2044.48111,0.0005952
2043.51673,0.0005967
2042.55235,0.0005982
2041.58797,0.0005996
2040.62359,0.0006011
2039.65922,0.0006026
2038.69484,0.0006041
2037.73046,0.0006056
2036.76608,0.0006071
2035.80171,0.0006086
2034.83733,0.0006101
2033.87295,0.0006116
2032.90857,0.0006131
2031.94419,0.0006146
2030.97982,0.0006161
2030.01544,0.0006176
2029.05106,0.0006191
2028.08668,0.0006205
2027.12230,0.0006220
2026.15793,0.0006235
2025.19355,0.0006250
2024.22917,0.0006265
2023.26479,0.0006280
2022.30041,0.0006295
2021.33604,0.0006310
2020.37166,0.0006325
2019.40728,0.0006340
2018.44290,0.0006355
2017.47853,0.0006370
2016.51415,0.0006385
2015.54977,0.0006400
2014.58539,0.0006415
2013.62101,0.0006429
2012.65664,0.0006444
2011.69226,0.0006459
2010.72788,0.0006474
2009.76350,0.0006489
2008.79912,0.0006504
2007.83475,0.0006519
2006.87037,0.0006534
2005.90599,0.0006549
2004.94161,0.0006564
2003.97724,0.0006579
2003.01286,0.0006594
2002.04848,0.0006609
2001.08410,0.0006624
2000.11972,0.0006638
1999.15535,0.0006653
1998.19097,0.0006668
1997.22659,0.0006683
1996.26221,0.0006698
1995.29783,0.0006713
1994.33346,0.0006728
1993.36908,0.0006743
1992.40470,0.0006758
1991.44032,0.0006773
1990.47594,0.0006788
1989.51157,0.0006803
1988.54719,0.0006818
1987.58281,0.0006833
1986.61843,0.0006847
1985.65406,0.0006862
1984.68968,0.0006877
1983.72530,0.0006892
1982.76092,0.0006907
1981.79654,0.0006922
1980.83217,0.0006937
1979.86779,0.0006952
1978.90341,0.0006967
1977.93903,0.0006982
1976.97465,0.0006997
1976.01028,0.0007012
1975.04590,0.0007027
1974.08152,0.0007042
1973.11714,0.0007056
1972.15276,0.0007071
1971.18839,0.0007086
1970.22401,0.0007101
1969.25963,0.0007116
1968.29525,0.0007131
1967.33088,0.0007146
1966.36650,0.0007161
1965.40212,0.0007176
1964.43774,0.0007191
1963.47336,0.0007206
1962.50899,0.0007221
1961.54461,0.0007236
1960.58023,0.0007251
1959.61585,0.0007266
1958.65147,0.0007280
1957.68710,0.0007295
1956.72272,0.0007310
1955.75834,0.0007325
1954.79396,0.0007340
1953.82959,0.0007355
1952.86521,0.0007370
1951.90083,0.0007385
1950.93645,0.0007400
1949.97207,0.0007415
1949.00770,0.0007430
1948.04332,0.0007445
1947.07894,0.0007460
1946.11456,0.0007475
1945.15018,0.0007489
1944.18581,0.0007504
1943.22143,0.0007519
1942.25705,0.0007534
1941.29267,0.0007549
1940.32829,0.0007564
1939.36392,0.0007579
1938.39954,0.0007594
1937.43516,0.0007258
1936.47078,0.0006937
1935.50641,0.0007664
1934.54203,0.0009077
1933.57765,0.0009754
1932.61327,0.0009212
1931.64889,0.0008910
1930.68452,0.0009808
1929.72014,0.0010863
1928.75576,0.0011562
1927.79138,0.0011992
1926.82700,0.0012012
1925.86263,0.0011393
1924.89825,0.0011264
1923.93387,0.0012248
1922.96949,0.0012251
1922.00512,0.0010703
1921.04074,0.0008710
1920.07636,0.0007707
1919.11198,0.0008191
1918.14760,0.0008409
1917.18323,0.0008321
1916.21885,0.0008371
1915.25447,0.0008007
1914.29009,0.0007563
1913.32571,0.0007921
1912.36134,0.0009092
1911.39696,0.0009743
1910.43258,0.0010121
1909.46820,0.0010585
1908.50382,0.0010688
1907.53945,0.0010762
1906.57507,0.0010627
1905.61069,0.0010681
1904.64631,0.0010622
1903.68194,0.0009964
1902.71756,0.0009514
1901.75318,0.0009294
1900.78880,0.0009393
1899.82442,0.0009644
1898.86005,0.0009680
1897.89567,0.0009504
1896.93129,0.0008763
1895.96691,0.0007607
1895.00253,0.0006901
1894.03816,0.0007331
1893.07378,0.0008189
1892.10940,0.0008730
1891.14502,0.0008888
1890.18065,0.0008654
1889.21627,0.0008851
1888.25189,0.0009950
1887.28751,0.0011100
1886.32313,0.0011695
1885.35876,0.0012035
1884.39438,0.0011845
1883.43000,0.0011424
1882.46562,0.0011698
1881.50124,0.0012170
1880.53687,0.0012508
1879.57249,0.0012708
1878.60811,0.0012706
1877.64373,0.0012656
1876.67935,0.0012719
1875.71498,0.0012619
1874.75060,0.0011850
1873.78622,0.0011281
1872.82184,0.0010775
1871.85747,0.0009806
1870.89309,0.0009218
1869.92871,0.0008930
1868.96433,0.0008887
1867.99995,0.0009123
1867.03558,0.0009357
1866.07120,0.0009516
1865.10682,0.0009611
1864.14244,0.0009458
1863.17806,0.0008754
1862.21369,0.0008406
1861.24931,0.0008678
1860.28493,0.0008986
1859.32055,0.0009131
1858.35618,0.0008831
1857.39180,0.0008693
1856.42742,0.0009035
1855.46304,0.0009523
1854.49866,0.0010027
1853.53429,0.0010199
1852.56991,0.0009754
1851.60553,0.0008700
1850.64115,0.0007942
1849.67677,0.0008304
1848.71240,0.0009029
1847.74802,0.0009270
1846.78364,0.0009298
1845.81926,0.0009441
1844.85488,0.0009477
1843.89051,0.0009532
1842.92613,0.0009761
1841.96175,0.0009815
1840.99737,0.0009641
1840.03300,0.0009458
1839.06862,0.0009564
1838.10424,0.0009956
1837.13986,0.0010082
1836.17548,0.0009950
1835.21111,0.0009834
1834.24673,0.0009654
1833.28235,0.0009335
1832.31797,0.0008963
1831.35359,0.0008823
1830.38922,0.0008851
1829.42484,0.0009010
1828.46046,0.0009350
1827.49608,0.0009674
1826.53171,0.0009864
1825.56733,0.0009813
1824.60295,0.0009806
1823.63857,0.0009820
1822.67419,0.0009544
1821.70982,0.0009115
1820.74544,0.0008719
1819.78106,0.0008613
1818.81668,0.0008684
1817.85230,0.0008950
1816.88793,0.0009511
1815.92355,0.0010048
1814.95917,0.0010362
1813.99479,0.0010447
1813.03041,0.0010500
1812.06604,0.0010327
1811.10166,0.0010099
1810.13728,0.0010168
1809.17290,0.0010124
1808.20853,0.0009964
1807.24415,0.0009791
1806.27977,0.0009678
1805.31539,0.0009687
1804.35101,0.0009664
1803.38664,0.0009652
1802.42226,0.0009648
1801.45788,0.0009678
1800.49350,0.0009746
1799.52912,0.0009887
1798.56475,0.0009955
1797.60037,0.0009911
1796.63599,0.0009975
1795.67161,0.0010010
1794.70724,0.0010132
1793.74286,0.0010355
1792.77848,0.0010403
1791.81410,0.0010245
1790.84972,0.0010018
1789.88535,0.0009916
1788.92097,0.0009784
1787.95659,0.0009587
1786.99221,0.0009555
1786.02783,0.0009829
1785.06346,0.0010254
1784.09908,0.0010749
1783.13470,0.0011438
1782.17032,0.0011884
1781.20594,0.0011894
1780.24157,0.0011598
1779.27719,0.0011195
1778.31281,0.0011086
1777.34843,0.0011054
1776.38406,0.0010984
1775.41968,0.0010953
1774.45530,0.0010934
1773.49092,0.0011099
1772.52654,0.0011370
1771.56217,0.0011615
1770.59779,0.0011825
1769.63341,0.0011980
1768.66903,0.0011985
1767.70465,0.0011984
1766.74028,0.0012240
1765.77590,0.0012496
1764.81152,0.0012607
1763.84714,0.0012755
1762.88276,0.0013038
1761.91839,0.0013467
1760.95401,0.0013873
1759.98963,0.0014243
1759.02525,0.0014598
1758.06088,0.0014725
1757.09650,0.0014746
1756.13212,0.0014899
1755.16774,0.0015082
1754.20336,0.0015290
1753.23899,0.0015543
1752.27461,0.0015903
1751.31023,0.0016452
1750.34585,0.0017016
1749.38147,0.0017497
1748.41710,0.0017928
1747.45272,0.0018270
1746.48834,0.0018528
1745.52396,0.0018833
1744.55959,0.0019178
1743.59521,0.0019381
1742.63083,0.0019483
1741.66645,0.0019540
1740.70207,0.0019561
1739.73770,0.0019514
1738.77332,0.0019448
1737.80894,0.0019561
1736.84456,0.0019760
1735.88018,0.0019896
1734.91581,0.0019946
1733.95143,0.0019880
1732.98705,0.0019763
1732.02267,0.0019646
1731.05829,0.0019564
1730.09392,0.0019506
1729.12954,0.0019485
1728.16516,0.0019595
1727.20078,0.0019856
1726.23641,0.0020074
1725.27203,0.0020130
1724.30765,0.0020123
1723.34327,0.0019995
1722.37889,0.0019838
1721.41452,0.0019769
1720.45014,0.0019640
1719.48576,0.0019480
1718.52138,0.0019358
1717.55700,0.0019321
1716.59263,0.0019380
1715.62825,0.0019461
1714.66387,0.0019578
1713.69949,0.0019674
1712.73512,0.0019637
1711.77074,0.0019500
1710.80636,0.0019481
1709.84198,0.0019505
1708.87760,0.0019384
1707.91323,0.0019152
1706.94885,0.0018809
1705.98447,0.0018639
1705.02009,0.0018848
1704.05571,0.0019249
1703.09134,0.0019584
1702.12696,0.0019562
1701.16258,0.0019429
1700.19820,0.0019511
1699.23382,0.0019663
1698.26945,0.0019654
1697.30507,0.0019471
1696.34069,0.0019226
1695.37631,0.0018961
1694.41194,0.0018963
1693.44756,0.0019264
1692.48318,0.0019496
1691.51880,0.0019526
1690.55442,0.0019422
1689.59005,0.0019550
1688.62567,0.0019997
1687.66129,0.0020500
1686.69691,0.0020837
1685.73253,0.0021018
1684.76816,0.0021291
1683.80378,0.0021522
1682.83940,0.0021570
1681.87502,0.0021577
1680.91065,0.0021597
1679.94627,0.0021593
1678.98189,0.0021562
1678.01751,0.0021680
1677.05313,0.0021960
1676.08876,0.0022244
1675.12438,0.0022492
1674.16000,0.0022828
1673.19562,0.0023288
1672.23124,0.0023638
1671.26687,0.0023811
1670.30249,0.0023897
1669.33811,0.0023950
1668.37373,0.0024058
1667.40935,0.0024145
1666.44498,0.0024231
1665.48060,0.0024438
1664.51622,0.0024711
1663.55184,0.0025164
1662.58747,0.0025742
1661.62309,0.0026222
1660.65871,0.0026673
1659.69433,0.0026936
1658.72995,0.0026927
1657.76558,0.0026997
1656.80120,0.0027240
1655.83682,0.0027444
1654.87244,0.0027438
1653.90806,0.0027362
1652.94369,0.0027293
1651.97931,0.0027226
1651.01493,0.0027076
1650.05055,0.0026777
1649.08618,0.0026463
1648.12180,0.0026080
1647.15742,0.0025839
1646.19304,0.0025880
1645.22866,0.0025888
1644.26429,0.0025762
1643.29991,0.0025409
1642.33553,0.0024994
1641.37115,0.0024718
1640.40677,0.0024516
1639.44240,0.0024341
1638.47802,0.0024211
1637.51364,0.0024189
1636.54926,0.0024259
1635.58488,0.0024391
1634.62051,0.0024364
1633.65613,0.0024083
1632.69175,0.0023769
1631.72737,0.0023458
1630.76300,0.0023173
1629.79862,0.0022978
1628.83424,0.0022812
1627.86986,0.0022625
1626.90548,0.0022431
1625.94111,0.0022147
1624.97673,0.0021813
1624.01235,0.0021501
1623.04797,0.0021009
1622.08359,0.0020437
1621.11922,0.0020062
1620.15484,0.0019831
1619.19046,0.0019625
1618.22608,0.0019395
1617.26171,0.0019067
1616.29733,0.0018678
1615.33295,0.0018376
1614.36857,0.0018056
1613.40419,0.0017702
1612.43982,0.0017356
1611.47544,0.0016971
1610.51106,0.0016696
1609.54668,0.0016506
1608.58230,0.0016297
1607.61793,0.0016104
1606.65355,0.0015924
1605.68917,0.0015704
1604.72479,0.0015435
1603.76041,0.0015254
1602.79604,0.0015102
1601.83166,0.0014912
1600.86728,0.0014778
1599.90290,0.0014678
1598.93853,0.0014606
1597.97415,0.0014553
1597.00977,0.0014545
1596.04539,0.0014681
1595.08101,0.0014811
1594.11664,0.0014743
1593.15226,0.0014625
1592.18788,0.0014589
1591.22350,0.0014550
1590.25912,0.0014469
1589.29475,0.0014374
1588.33037,0.0014257
1587.36599,0.0014188
1586.40161,0.0014204
1585.43724,0.0014180
1584.47286,0.0014106
1583.50848,0.0014000
1582.54410,0.0013916
1581.57972,0.0013998
1580.61535,0.0014069
1579.65097,0.0014031
1578.68659,0.0014072
1577.72221,0.0014228
1576.75783,0.0014349
1575.79346,0.0014429
1574.82908,0.0014590
1573.86470,0.0014736
1572.90032,0.0014852
1571.93594,0.0015036
1570.97157,0.0015249
1570.00719,0.0015438
1569.04281,0.0015567
1568.07843,0.0015712
1567.11406,0.0015860
1566.14968,0.0015901
1565.18530,0.0015901
1564.22092,0.0016057
1563.25654,0.0016413
1562.29217,0.0016763
1561.32779,0.0017024
1560.36341,0.0017231
1559.39903,0.0017458
1558.43465,0.0017729
1557.47028,0.0017962
1556.50590,0.0018108
1555.54152,0.0018184
1554.57714,0.0018329
1553.61276,0.0018634
1552.64839,0.0019023
1551.68401,0.0019340
1550.71963,0.0019535
1549.75525,0.0019717
1548.79088,0.0019885
1547.82650,0.0020050
1546.86212,0.0020195
1545.89774,0.0020239
1544.93336,0.0020276
1543.96899,0.0020422
1543.00461,0.0020593
1542.04023,0.0020665
1541.07585,0.0020660
1540.11147,0.0020584
1539.14710,0.0020537
1538.18272,0.0020604
1537.21834,0.0020676
1536.25396,0.0020712
1535.28959,0.0020771
1534.32521,0.0020854
1533.36083,0.0020815
1532.39645,0.0020643
1531.43207,0.0020383
1530.46770,0.0020091
1529.50332,0.0019937
1528.53894,0.0019874
1527.57456,0.0019843
1526.61018,0.0019808
1525.64581,0.0019786
1524.68143,0.0019809
1523.71705,0.0019828
1522.75267,0.0019845
1521.78829,0.0019747
1520.82392,0.0019597
1519.85954,0.0019443
1518.89516,0.0019200
1517.93078,0.0019048
1516.96641,0.0019011
1516.00203,0.0018922
1515.03765,0.0018699
1514.07327,0.0018462
1513.10889,0.0018255
1512.14452,0.0018087
1511.18014,0.0018125
1510.21576,0.0018263
1509.25138,0.0018342
1508.28700,0.0018289
1507.32263,0.0018138
1506.35825,0.0018064
1505.39387,0.0017989
1504.42949,0.0017770
1503.46512,0.0017401
1502.50074,0.0016932
1501.53636,0.0016527
1500.57198,0.0016322
1499.60760,0.0016212
1498.64323,0.0016059
1497.67885,0.0015833
1496.71447,0.0015544
1495.75009,0.0015312
1494.78571,0.0015106
1493.82134,0.0014953
1492.85696,0.0014956
1491.89258,0.0014961
1490.92820,0.0014892
1489.96382,0.0014813
1488.99945,0.0014755
1488.03507,0.0014699
1487.07069,0.0014679
1486.10631,0.0014641
1485.14194,0.0014550
1484.17756,0.0014527
1483.21318,0.0014498
1482.24880,0.0014581
1481.28442,0.0014865
1480.32005,0.0015071
1479.35567,0.0015121
1478.39129,0.0015070
1477.42691,0.0015137
1476.46253,0.0015419
1475.49816,0.0015670
1474.53378,0.0015811
1473.56940,0.0015971
1472.60502,0.0016217
1471.64065,0.0016477
1470.67627,0.0016870
1469.71189,0.0017491
1468.74751,0.0018019
1467.78313,0.0018360
1466.81876,0.0018649
1465.85438,0.0018892
1464.89000,0.0018990
1463.92562,0.0018872
1462.96124,0.0018810
1461.99687,0.0018951
1461.03249,0.0019126
1460.06811,0.0019348
1459.10373,0.0019652
1458.13935,0.0019992
1457.17498,0.0020231
1456.21060,0.0020310
1455.24622,0.0020350
1454.28184,0.0020295
1453.31747,0.0020037
1452.35309,0.0019712
1451.38871,0.0019593
1450.42433,0.0019620
1449.45995,0.0019546
1448.49558,0.0019516
1447.53120,0.0019596
1446.56682,0.0019641
1445.60244,0.0019736
1444.63806,0.0019979
1443.67369,0.0020275
1442.70931,0.0020500
1441.74493,0.0020567
1440.78055,0.0020569
1439.81618,0.0020664
1438.85180,0.0020705
1437.88742,0.0020578
1436.92304,0.0020419
1435.95866,0.0020298
1434.99429,0.0020226
1434.02991,0.0020254
1433.06553,0.0020353
1432.10115,0.0020471
1431.13677,0.0020648
1430.17240,0.0020764
1429.20802,0.0020761
1428.24364,0.0020722
1427.27926,0.0020572
1426.31488,0.0020326
1425.35051,0.0020104
1424.38613,0.0019999
1423.42175,0.0019940
1422.45737,0.0019762
1421.49300,0.0019558
1420.52862,0.0019543
1419.56424,0.0019673
1418.59986,0.0019695
1417.63548,0.0019583
1416.67111,0.0019405
1415.70673,0.0019206
1414.74235,0.0019113
1413.77797,0.0019051
1412.81359,0.0018944
1411.84922,0.0018834
1410.88484,0.0018766
1409.92046,0.0018776
1408.95608,0.0018869
1407.99171,0.0019012
1407.02733,0.0019063
1406.06295,0.0018982
1405.09857,0.0018894
1404.13419,0.0018884
1403.16982,0.0018865
1402.20544,0.0018747
1401.24106,0.0018532
1400.27668,0.0018266
1399.31230,0.0018124
1398.34793,0.0018046
1397.38355,0.0017864
1396.41917,0.0017681
1395.45479,0.0017570
1394.49041,0.0017442
1393.52604,0.0017356
1392.56166,0.0017429
1391.59728,0.0017565
1390.63290,0.0017735
1389.66853,0.0017808
1388.70415,0.0017792
1387.73977,0.0017938
1386.77539,0.0018088
1385.81101,0.0018161
1384.84664,0.0018266
1383.88226,0.0018373
1382.91788,0.0018405
1381.95350,0.0018451
1380.98912,0.0018657
1380.02475,0.0018840
1379.06037,0.0019016
1378.09599,0.0019195
1377.13161,0.0019255
1376.16724,0.0019251
1375.20286,0.0019133
1374.23848,0.0018990
1373.27410,0.0018863
1372.30972,0.0018785
1371.34535,0.0018842
1370.38097,0.0018984
1369.41659,0.0019184
1368.45221,0.0019329
1367.48783,0.0019482
1366.52346,0.0019667
1365.55908,0.0019766
1364.59470,0.0019713
1363.63032,0.0019477
1362.66594,0.0019243
1361.70157,0.0019094
1360.73719,0.0019086
1359.77281,0.0019145
1358.80843,0.0019049
1357.84406,0.0018905
1356.87968,0.0018820
1355.91530,0.0018812
1354.95092,0.0018899
1353.98654,0.0018998
1353.02217,0.0019003
1352.05779,0.0018950
1351.09341,0.0019024
1350.12903,0.0019260
1349.16465,0.0019559
1348.20028,0.0019713
1347.23590,0.0019612
1346.27152,0.0019472
1345.30714,0.0019426
1344.34276,0.0019424
1343.37839,0.0019473
1342.41401,0.0019572
1341.44963,0.0019702
1340.48525,0.0019881
1339.52088,0.0020147
1338.55650,0.0020418
1337.59212,0.0020496
1336.62774,0.0020376
1335.66336,0.0020168
1334.69899,0.0019924
1333.73461,0.0019716
1332.77023,0.0019629
1331.80585,0.0019690
1330.84147,0.0019833
1329.87710,0.0020073
1328.91272,0.0020350
1327.94834,0.0020572
1326.98396,0.0020716
1326.01959,0.0020670
1325.05521,0.0020574
1324.09083,0.0020497
1323.12645,0.0020347
1322.16207,0.0020204
1321.19770,0.0020169
1320.23332,0.0020326
1319.26894,0.0020548
1318.30456,0.0020754
1317.34018,0.0020959
1316.37581,0.0021182
1315.41143,0.0021435
1314.44705,0.0021562
1313.48267,0.0021539
1312.51829,0.0021391
1311.55392,0.0021331
1310.58954,0.0021460
1309.62516,0.0021573
1308.66078,0.0021758
1307.69641,0.0021876
1306.73203,0.0021799
1305.76765,0.0021736
1304.80327,0.0021736
1303.83889,0.0021806
1302.87452,0.0021910
1301.91014,0.0021995
1300.94576,0.0022094
1299.98138,0.0022286
1299.01700,0.0022422
1298.05263,0.0022332
1297.08825,0.0022275
1296.12387,0.0022272
1295.15949,0.0022157
1294.19512,0.0022039
1293.23074,0.0021995
1292.26636,0.0022147
1291.30198,0.0022539
1290.33760,0.0022939
1289.37323,0.0023211
1288.40885,0.0023462
1287.44447,0.0023660
1286.48009,0.0023702
1285.51571,0.0023772
1284.55134,0.0023882
1283.58696,0.0023857
1282.62258,0.0023845
1281.65820,0.0023882
1280.69382,0.0023949
1279.72945,0.0024136
1278.76507,0.0024324
1277.80069,0.0024543
1276.83631,0.0024855
1275.87194,0.0025100
1274.90756,0.0025273
1273.94318,0.0025554
1272.97880,0.0025928
1272.01442,0.0026240
1271.05005,0.0026472
1270.08567,0.0026584
1269.12129,0.0026636
1268.15691,0.0026768
1267.19253,0.0026961
1266.22816,0.0027201
1265.26378,0.0027370
1264.29940,0.0027539
1263.33502,0.0027883
1262.37065,0.0028218
1261.40627,0.0028442
1260.44189,0.0028547
1259.47751,0.0028522
1258.51313,0.0028489
1257.54876,0.0028474
1256.58438,0.0028464
1255.62000,0.0028565
1254.65562,0.0028746
1253.69124,0.0028899
1252.72687,0.0029115
1251.76249,0.0029391
1250.79811,0.0029599
1249.83373,0.0029840
1248.86935,0.0030216
1247.90498,0.0030585
1246.94060,0.0030896
1245.97622,0.0031233
1245.01184,0.0031603
1244.04747,0.0032029
1243.08309,0.0032439
1242.11871,0.0032747
1241.15433,0.0032966
1240.18995,0.0033105
1239.22558,0.0033237
1238.26120,0.0033427
1237.29682,0.0033656
1236.33244,0.0033797
1235.36806,0.0033888
1234.40369,0.0034160
1233.43931,0.0034561
1232.47493,0.0034890
1231.51055,0.0035163
1230.54618,0.0035494
1229.58180,0.0035775
1228.61742,0.0035954
1227.65304,0.0036146
1226.68866,0.0036311
1225.72429,0.0036444
1224.75991,0.0036552
1223.79553,0.0036697
1222.83115,0.0037019
1221.86677,0.0037368
1220.90240,0.0037514
1219.93802,0.0037549
1218.97364,0.0037617
1218.00926,0.0037691
1217.04488,0.0037867
1216.08051,0.0038056
1215.11613,0.0038021
1214.15175,0.0037922
1213.18737,0.0037939
1212.22300,0.0038104
1211.25862,0.0038359
1210.29424,0.0038526
1209.32986,0.0038556
1208.36548,0.0038465
1207.40111,0.0038312
1206.43673,0.0038296
1205.47235,0.0038430
1204.50797,0.0038398
1203.54359,0.0038147
1202.57922,0.0037944
1201.61484,0.0037891
1200.65046,0.0037953
1199.68608,0.0038068
1198.72171,0.0038222
1197.75733,0.0038345
1196.79295,0.0038366
1195.82857,0.0038409
1194.86419,0.0038566
1193.89982,0.0038708
1192.93544,0.0038716
1191.97106,0.0038695
1191.00668,0.0038633
1190.04230,0.0038457
1189.07793,0.0038397
1188.11355,0.0038566
1187.14917,0.0038757
1186.18479,0.0038815
1185.22041,0.0038885
1184.25604,0.0039076
1183.29166,0.0039217
1182.32728,0.0039320
1181.36290,0.0039560
1180.39853,0.0039825
1179.43415,0.0039890
1178.46977,0.0039817
1177.50539,0.0039840
1176.54101,0.0040006
1175.57664,0.0040106
1174.61226,0.0040023
1173.64788,0.0039848
1172.68350,0.0039717
1171.71912,0.0039727
1170.75475,0.0039879
1169.79037,0.0040023
1168.82599,0.0040013
1167.86161,0.0039871
1166.89724,0.0039655
1165.93286,0.0039453
1164.96848,0.0039289
1164.00410,0.0039045
1163.03972,0.0038731
1162.07535,0.0038426
1161.11097,0.0038190
1160.14659,0.0038063
1159.18221,0.0037931
1158.21783,0.0037701
1157.25346,0.0037462
1156.28908,0.0037331
1155.32470,0.0037273
1154.36032,0.0037172
1153.39594,0.0036925
1152.43157,0.0036645
1151.46719,0.0036615
1150.50281,0.0036721
1149.53843,0.0036648
1148.57406,0.0036403
1147.60968,0.0036130
1146.64530,0.0035880
1145.68092,0.0035652
1144.71654,0.0035381
1143.75217,0.0035007
1142.78779,0.0034549
1141.82341,0.0034076
1140.85903,0.0033775
1139.89465,0.0033726
1138.93028,0.0033766
1137.96590,0.0033797
1137.00152,0.0033855
1136.03714,0.0033820
1135.07276,0.0033582
1134.10839,0.0033289
1133.14401,0.0033002
1132.17963,0.0032796
1131.21525,0.0032752
1130.25088,0.0032855
1129.28650,0.0033040
1128.32212,0.0033057
1127.35774,0.0033027
1126.39336,0.0033090
1125.42899,0.0033062
1124.46461,0.0032811
1123.50023,0.0032313
1122.53585,0.0031938
1121.57147,0.0031857
1120.60710,0.0031918
1119.64272,0.0032105
1118.67834,0.0032352
1117.71396,0.0032615
1116.74959,0.0032808
1115.78521,0.0032922
1114.82083,0.0033044
1113.85645,0.0033140
1112.89207,0.0033133
1111.92770,0.0033066
1110.96332,0.0033058
1109.99894,0.0033188
1109.03456,0.0033478
1108.07018,0.0033652
1107.10581,0.0033609
1106.14143,0.0033690
1105.17705,0.0033887
1104.21267,0.0033885
1103.24829,0.0033755
1102.28392,0.0033626
1101.31954,0.0033395
1100.35516,0.0033103
1099.39078,0.0032750
1098.42641,0.0032464
1097.46203,0.0032328
1096.49765,0.0032060
1095.53327,0.0031783
1094.56889,0.0031723
1093.60452,0.0031819
1092.64014,0.0031896
1091.67576,0.0031889
1090.71138,0.0031920
1089.74700,0.0031939
1088.78263,0.0032000
1087.81825,0.0032089
1086.85387,0.0032082
1085.88949,0.0031970
1084.92512,0.0031833
1083.96074,0.0031904
1082.99636,0.0032082
1082.03198,0.0032257
1081.06760,0.0032492
1080.10323,0.0032744
1079.13885,0.0033076
1078.17447,0.0033518
1077.21009,0.0033993
1076.24571,0.0034323
1075.28134,0.0034522
1074.31696,0.0034799
1073.35258,0.0035131
1072.38820,0.0035500
1071.42382,0.0035930
1070.45945,0.0036448
1069.49507,0.0037067
1068.53069,0.0037506
1067.56631,0.0037692
1066.60194,0.0037789
1065.63756,0.0037777
1064.67318,0.0037862
1063.70880,0.0038141
1062.74442,0.0038375
1061.78005,0.0038448
1060.81567,0.0038591
1059.85129,0.0039141
1058.88691,0.0039789
1057.92253,0.0040248
1056.95816,0.0040565
1055.99378,0.0040755
1055.02940,0.0040925
1054.06502,0.0040993
1053.10065,0.0041050
1052.13627,0.0040873
1051.17189,0.0040268
1050.20751,0.0039880
1049.24313,0.0039950
1048.27876,0.0040125
1047.31438,0.0040046
1046.35000,0.0039878
1045.38562,0.0039912
1044.42124,0.0039960
1043.45687,0.0039822
1042.49249,0.0039400
1041.52811,0.0038989
1040.56373,0.0038656
1039.59935,0.0038366
1038.63498,0.0038323
1037.67060,0.0038191
1036.70622,0.0037967
1035.74184,0.0037820
1034.77747,0.0037541
1033.81309,0.0037272
1032.84871,0.0037101
1031.88433,0.0036734
1030.91995,0.0036186
1029.95558,0.0035783
1028.99120,0.0035453
1028.02682,0.0035106
1027.06244,0.0034716
1026.09806,0.0034094
1025.13369,0.0033579
1024.16931,0.0033257
1023.20493,0.0032728
1022.24055,0.0032289
1021.27618,0.0032168
1020.31180,0.0032051
1019.34742,0.0031915
1018.38304,0.0031849
1017.41866,0.0031911
1016.45429,0.0031967
1015.48991,0.0031726
1014.52553,0.0031309
1013.56115,0.0030915
1012.59677,0.0030543
1011.63240,0.0030127
1010.66802,0.0029679
1009.70364,0.0029235
1008.73926,0.0028789
1007.77488,0.0028416
1006.81051,0.0028146
1005.84613,0.0027930
1004.88175,0.0027455
1003.91737,0.0026936
1002.95300,0.0026835
1001.98862,0.0026758
1001.02424,0.0026621
1000.05986,0.0026566
999.09548,0.0026553
998.13111,0.0026569
997.16673,0.0026455
996.20235,0.0026316
995.23797,0.0026192
994.27359,0.0026037
993.30922,0.0025836
992.34484,0.0025759
991.38046,0.0025773
990.41608,0.0025548
989.45171,0.0025443
988.48733,0.0025571
987.52295,0.0025801
986.55857,0.0026106
985.59419,0.0026164
984.62982,0.0026023
983.66544,0.0025750
982.70106,0.0025427
981.73668,0.0025186
980.77230,0.0025048
979.80793,0.0024887
978.84355,0.0024466
977.87917,0.0024082
976.91479,0.0023871
975.95041,0.0023631
974.98604,0.0023315
974.02166,0.0022968
973.05728,0.0022639
972.09290,0.0022243
971.12853,0.0021963
970.16415,0.0021968
969.19977,0.0022166
968.23539,0.0022384
967.27101,0.0022324
966.30664,0.0022162
965.34226,0.0022334
964.37788,0.0022688
963.41350,0.0023021
962.44912,0.0023382
961.48475,0.0023496
960.52037,0.0023290
959.55599,0.0023024
958.59161,0.0022697
957.62724,0.0022320
956.66286,0.0021973
955.69848,0.0021409
954.73410,0.0020602
953.76972,0.0020113
952.80535,0.0019933
951.84097,0.0019791
950.87659,0.0019721
949.91221,0.0019596
948.94783,0.0019563
947.98346,0.0019679
947.01908,0.0019887
946.05470,0.0020171
945.09032,0.0020403
944.12594,0.0020382
943.16157,0.0019852
942.19719,0.0019368
941.23281,0.0019190
940.26843,0.0018998
939.30406,0.0018934
938.33968,0.0018808
937.37530,0.0018618
936.41092,0.0018640
935.44654,0.0018762
934.48217,0.0018840
933.51779,0.0018831
932.55341,0.0018626
931.58903,0.0018149
930.62465,0.0017689
929.66028,0.0017295
928.69590,0.0016922
927.73152,0.0016746
926.76714,0.0016650
925.80276,0.0016606
924.83839,0.0016680
923.87401,0.0016800
922.90963,0.0016902
921.94525,0.0016902
920.98088,0.0016695
920.01650,0.0016367
919.05212,0.0015972
918.08774,0.0015656
917.12336,0.0015902
916.15899,0.0016526
915.19461,0.0017150
914.23023,0.0017684
913.26585,0.0017994
912.30147,0.0018251
911.33710,0.0018415
910.37272,0.0018276
909.40834,0.0017904
908.44396,0.0017556
907.47959,0.0017272
906.51521,0.0017098
905.55083,0.0017290
904.58645,0.0017592
903.62207,0.0018065
902.65770,0.0018938
901.69332,0.0019660
900.72894,0.0020003
899.76456,0.0020203
898.80018,0.0020162
897.83581,0.0019985
896.87143,0.0020031
895.90705,0.0020037
894.94267,0.0019923
893.97829,0.0019801
893.01392,0.0019495
892.04954,0.0019465
891.08516,0.0019908
890.12078,0.0020142
889.15641,0.0020146
888.19203,0.0020477
887.22765,0.0020739
886.26327,0.0020821
885.29889,0.0021184
884.33452,0.0021298
883.37014,0.0021124
882.40576,0.0021030
881.44138,0.0020965
880.47700,0.0021215
879.51263,0.0021714
878.54825,0.0021989
877.58387,0.0022132
876.61949,0.0022411
875.65512,0.0022470
874.69074,0.0022471
873.72636,0.0022538
872.76198,0.0022166
871.79760,0.0021783
870.83323,0.0021829
869.86885,0.0022167
868.90447,0.0022417
867.94009,0.0022316
866.97571,0.0022090
866.01134,0.0022057
865.04696,0.0022403
864.08258,0.0022730
863.11820,0.0022716
862.15382,0.0022162
861.18945,0.0021349
860.22507,0.0020921
859.26069,0.0020563
858.29631,0.0020200
857.33194,0.0019809
856.36756,0.0019436
855.40318,0.0019571
854.43880,0.0020141
853.47442,0.0020829
852.51005,0.0021128
851.54567,0.0021111
850.58129,0.0021287
849.61691,0.0021789
848.65253,0.0022461
847.68816,0.0022844
846.72378,0.0023022
845.75940,0.0023173
844.79502,0.0023221
843.83065,0.0023109
842.86627,0.0022685
841.90189,0.0022012
840.93751,0.0021247
839.97313,0.0020750
839.00876,0.0020587
838.04438,0.0020520
837.08000,0.0020544
836.11562,0.0020603
835.15124,0.0020736
834.18687,0.0020883
833.22249,0.0020835
832.25811,0.0020540
831.29373,0.0020147
830.32935,0.0019746
829.36498,0.0019353
828.40060,0.0018956
827.43622,0.0018496
826.47184,0.0018366
825.50747,0.0018454
824.54309,0.0018353
823.57871,0.0018325
822.61433,0.0018261
821.64995,0.0018168
820.68558,0.0018340
819.72120,0.0018644
818.75682,0.0018903
817.79244,0.0019049
816.82806,0.0018903
815.86369,0.0018496
814.89931,0.0018310
813.93493,0.0018283
812.97055,0.0018107
812.00618,0.0017744
811.04180,0.0017149
810.07742,0.0016642
809.11304,0.0016372
808.14866,0.0016281
807.18429,0.0016372
806.21991,0.0016439
805.25553,0.0016404
804.29115,0.0016482
803.32677,0.0016859
802.36240,0.0017363
801.39802,0.0017490
800.43364,0.0017088
799.46926,0.0016861
798.50488,0.0016844
797.54051,0.0016604
796.57613,0.0016525
795.61175,0.0016523
794.64737,0.0016392
793.68300,0.0016373
792.71862,0.0016459
791.75424,0.0016501
790.78986,0.0016367
789.82548,0.0015943
788.86111,0.0015404
787.89673,0.0015386
786.93235,0.0015693
785.96797,0.0015816
785.00359,0.0015796
784.03922,0.0015619
783.07484,0.0015601
782.11046,0.0015737
781.14608,0.0015908
780.18171,0.0016114
779.21733,0.0016160
778.25295,0.0015955
777.28857,0.0015614
776.32419,0.0015676
775.35982,0.0015887
774.39544,0.0015739
773.43106,0.0015538
772.46668,0.0015565
771.50230,0.0015543
770.53793,0.0015269
769.57355,0.0015271
768.60917,0.0015241
767.64479,0.0014818
766.68041,0.0014239
765.71604,0.0013452
764.75166,0.0012891
763.78728,0.0012717
762.82290,0.0012757
761.85853,0.0012903
760.89415,0.0013007
759.92977,0.0013004
758.96539,0.0013089
758.00101,0.0013395
757.03664,0.0013463
756.07226,0.0013416
755.10788,0.0013447
754.14350,0.0013526
753.17912,0.0013901
752.21475,0.0014693
751.25037,0.0015304
750.28599,0.0015076
749.32161,0.0014939
748.35724,0.0015146
747.39286,0.0015087
746.42848,0.0014888
745.46410,0.0014980
744.49972,0.0015412
743.53535,0.0015495
742.57097,0.0015556
741.60659,0.0015795
740.64221,0.0016341
739.67783,0.0016710
738.71346,0.0016233
737.74908,0.0016412
736.78470,0.0016932
735.82032,0.0016754
734.85594,0.0016337
733.89157,0.0016066
732.92719,0.0015772
731.96281,0.0014970
730.99843,0.0014510
730.03406,0.0014503
729.06968,0.0014619
728.10530,0.0014597
727.14092,0.0014450
726.17654,0.0015174
725.21217,0.0016058
724.24779,0.0016526
723.28341,0.0016884
722.31903,0.0017239
721.35465,0.0017632
720.39028,0.0017721
719.42590,0.0017761
718.46152,0.0017681
717.49714,0.0017251
716.53276,0.0016768
715.56839,0.0016521
714.60401,0.0016567
713.63963,0.0016671
712.67525,0.0016721
711.71088,0.0016653
710.74650,0.0016699
709.78212,0.0016921
708.81774,0.0017092
707.85336,0.0017332
706.88899,0.0017463
705.92461,0.0017264
704.96023,0.0017183
703.99585,0.0017322
703.03147,0.0017303
702.06710,0.0017202
701.10272,0.0017027
700.13834,0.0016890
699.17396,0.0016939
698.20959,0.0016964
697.24521,0.0017061
696.28083,0.0017133
695.31645,0.0016978
694.35207,0.0016745
693.38770,0.0016662
692.42332,0.0016675
691.45894,0.0016733
690.49456,0.0017076
689.53018,0.0017520
688.56581,0.0017871
687.60143,0.0018038
686.63705,0.0018103
685.67267,0.0018258
684.70829,0.0018157
683.74392,0.0017891
682.77954,0.0017801
681.81516,0.0017854
680.85078,0.0018096
679.88641,0.0018555
678.92203,0.0019023
677.95765,0.0019338
676.99327,0.0019487
676.02889,0.0019323
675.06452,0.0018419
674.10014,0.0016922
673.13576,0.0017473
672.17138,0.0020653
671.20700,0.0024149
670.24263,0.0026963
669.27825,0.0028866
668.31387,0.0029875
667.34949,0.0029938
666.38512,0.0028961
665.42074,0.0026982
664.45636,0.0023833
663.49198,0.0019902
662.52760,0.0016788
661.56323,0.0016636
660.59885,0.0017791
659.63447,0.0018038
658.67009,0.0018056
657.70571,0.0018274
656.74134,0.0018825
655.77696,0.0019449
654.81258,0.0019949
653.84820,0.0020489
652.88382,0.0020869
651.91945,0.0021100
650.95507,0.0021164
649.99069,0.0020980
649.02631,0.0020444
648.06194,0.0019818
647.09756,0.0019210
646.13318,0.0018637
645.16880,0.0018462
644.20442,0.0018323
643.24005,0.0018140
642.27567,0.0017930
641.31129,0.0017645
640.34691,0.0017564
639.38253,0.0017477
638.41816,0.0017316
637.45378,0.0017219
636.48940,0.0017253
635.52502,0.0017266
634.56065,0.0017353
633.59627,0.0017548
632.63189,0.0017375
631.66751,0.0016850
630.70313,0.0016739
629.73876,0.0018267
628.77438,0.0018433
627.81000,0.0016149
626.84562,0.0017415
625.88124,0.0020815
624.91687,0.0022978
623.95249,0.0023706
622.98811,0.0024056
622.02373,0.0024092
621.05935,0.0019040
620.09498,0.0007500
619.13060,-0.0002916
618.16622,-0.0007210
617.20184,-0.0006459
616.23747,-0.0000729
615.27309,0.0004505
614.30871,0.0006356
613.34433,0.0007705
612.37995,0.0006585
611.41558,0.0005511
610.45120,0.0005008
609.48682,-0.0001161
608.52244,-0.0008643
607.55806,-0.0007323
606.59369,0.0001293
605.62931,0.0013326
604.66493,0.0024380
603.70055,0.0028500
602.73618,0.0031811
601.77180,0.0035190
600.80742,0.0033849
599.84304,0.0031574
598.87866,0.0029299
597.91429,0.0026086
596.94991,0.0025612
595.98553,0.0027326
595.02115,0.0027490
594.05677,0.0027517
593.09240,0.0028783
592.12802,0.0031031
591.16364,0.0033300
590.19926,0.0034107
589.23488,0.0032935
588.27051,0.0030117
587.30613,0.0027245
586.34175,0.0025572
585.37737,0.0025052
584.41300,0.0024370
583.44862,0.0023564
582.48424,0.0023228
581.51986,0.0022498
580.55548,0.0022382
579.59111,0.0022425
578.62673,0.0022013
577.66235,0.0022142
576.69797,0.0022164
575.73359,0.0022491
574.76922,0.0023153
573.80484,0.0024200
572.84046,0.0025472
571.87608,0.0026217
570.91171,0.0026725
569.94733,0.0025829
568.98295,0.0024364
568.01857,0.0023407
567.05419,0.0022459
566.08982,0.0021399
565.12544,0.0019521
564.16106,0.0017784
563.19668,0.0016798
562.23230,0.0016390
561.26793,0.0016601
560.30355,0.0017033
559.33917,0.0017118
558.37479,0.0016595
557.41041,0.0017110
556.44604,0.0018160
555.48166,0.0018065
554.51728,0.0017271
553.55290,0.0016476
552.58853,0.0016388
551.62415,0.0016750
550.65977,0.0017382
549.69539,0.0018423
548.73101,0.0019045
547.76664,0.0018940
546.80226,0.0019096
545.83788,0.0019293
544.87350,0.0017946
543.90912,0.0015749
542.94475,0.0013985
541.98037,0.0013242
541.01599,0.0013885
540.05161,0.0014778
539.08724,0.0015674
538.12286,0.0016682
537.15848,0.0017300
536.19410,0.0018103
535.22972,0.0018979
534.26535,0.0018995
533.30097,0.0017895
532.33659,0.0016135
531.37221,0.0015055
530.40783,0.0015419
529.44346,0.0016109
528.47908,0.0016181
527.51470,0.0016239
526.55032,0.0016355
525.58594,0.0016416
524.62157,0.0017250
523.65719,0.0018510
522.69281,0.0019001
521.72843,0.0018341
520.76406,0.0017330
519.79968,0.0016768
518.83530,0.0015824
517.87092,0.0014000
516.90654,0.0012427
515.94217,0.0011790
514.97779,0.0011183
514.01341,0.0010385
513.04903,0.0010423
512.08465,0.0011323
511.12028,0.0012437
510.15590,0.0013238
509.19152,0.0014263
508.22714,0.0015878
507.26276,0.0016935
506.29839,0.0017175
505.33401,0.0017246
504.36963,0.0017257
503.40525,0.0016521
502.44088,0.0015539
501.47650,0.0015819
500.51212,0.0017051
499.54774,0.0018065
498.58336,0.0018202
497.61899,0.0017996
496.65461,0.0017902
495.69023,0.0017149
494.72585,0.0015760
493.76147,0.0014839
492.79710,0.0014712
491.83272,0.0014785
490.86834,0.0015398
489.90396,0.0016623
488.93959,0.0018058
487.97521,0.0019033
487.01083,0.0018575
486.04645,0.0018054
485.08207,0.0017956
484.11770,0.0017322
483.15332,0.0017009
482.18894,0.0017612
481.22456,0.0018373
480.26018,0.0018277
479.29581,0.0017799
478.33143,0.0017710
477.36705,0.0017851
476.40267,0.0018036
475.43829,0.0017970
474.47392,0.0017983
473.50954,0.0017778
472.54516,0.0017119
471.58078,0.0017055
470.61641,0.0017703
469.65203,0.0018317
468.68765,0.0018634
467.72327,0.0019188
466.75889,0.0019654
465.79452,0.0019199
464.83014,0.0018815
463.86576,0.0019277
462.90138,0.0019956
461.93700,0.0020532
460.97263,0.0021024
460.00825,0.0021554
459.04387,0.0022293
458.07949,0.0022926
457.11512,0.0023484
456.15074,0.0023732
455.18636,0.0023049
454.22198,0.0021830
453.25760,0.0020615
452.29323,0.0020028
451.32885,0.0019680
450.36447,0.0018716
449.40009,0.0017871
448.43571,0.0017076
447.47134,0.0016306
446.50696,0.0016490
445.54258,0.0017659
444.57820,0.0018944
443.61382,0.0019561
442.64945,0.0019912
441.68507,0.0020251
440.72069,0.0020611
439.75631,0.0020609
438.79194,0.0019723
437.82756,0.0018675
436.86318,0.0017518
435.89880,0.0016617
434.93442,0.0016515
433.97005,0.0016511
433.00567,0.0016085
432.04129,0.0015517
431.07691,0.0015856
430.11253,0.0016872
429.14816,0.0017470
428.18378,0.0017086
427.21940,0.0016225
426.25502,0.0015981
425.29065,0.0015729
424.32627,0.0015334
423.36189,0.0015385
422.39751,0.0015886
421.43313,0.0016606
420.46876,0.0016984
419.50438,0.0017585
418.54000,0.0018303
417.57562,0.0018273
416.61124,0.0017718
415.64687,0.0017115
414.68249,0.0016269
413.71811,0.0014671
412.75373,0.0013142
411.78935,0.0012579
410.82498,0.0012782
409.86060,0.0012778
408.89622,0.0011966
407.93184,0.0011288
406.96747,0.0011159
406.00309,0.0011562
405.03871,0.0012595
404.07433,0.0012595
403.10995,0.0012595
402.14558,0.0012595
401.18120,0.0012595
400.21682,0.0012595
399.25244,0.0012595
