3998.31069,0.0239079
3997.34631,0.0239079
3996.38194,0.0239079
3995.41756,0.0239079
3994.45318,0.0239079
3993.48880,0.0239079
3992.52442,0.0239079
3991.56005,0.0239292
3990.59567,0.0241076
3989.63129,0.0242721
3988.66691,0.0243222
3987.70253,0.0243678
3986.73816,0.0244210
3985.77378,0.0244372
3984.80940,0.0243786
3983.84502,0.0242520
3982.88065,0.0241597
3981.91627,0.0241220
3980.95189,0.0241208
3979.98751,0.0241848
3979.02313,0.0243119
3978.05876,0.0243822
3977.09438,0.0244158
3976.13000,0.0245109
3975.16562,0.0245361
3974.20124,0.0244799
3973.23687,0.0244160
3972.27249,0.0243306
3971.30811,0.0242647
3970.34373,0.0242362
3969.37935,0.0242005
3968.41498,0.0241095
3967.45060,0.0240301
3966.48622,0.0239778
3965.52184,0.0239269
3964.55747,0.0239398
3963.59309,0.0239503
3962.62871,0.0239166
3961.66433,0.0238955
3960.69995,0.0238599
3959.73558,0.0237940
3958.77120,0.0237756
3957.80682,0.0237932
3956.84244,0.0237681
3955.87806,0.0237747
3954.91369,0.0238283
3953.94931,0.0238974
3952.98493,0.0240424
3952.02055,0.0241745
3951.05618,0.0241990
3950.09180,0.0241677
3949.12742,0.0241127
3948.16304,0.0240881
3947.19866,0.0241508
3946.23429,0.0241930
3945.26991,0.0241441
3944.30553,0.0241354
3943.34115,0.0242039
3942.37677,0.0242453
3941.41240,0.0242418
3940.44802,0.0242380
3939.48364,0.0242542
3938.51926,0.0243004
3937.55488,0.0243566
3936.59051,0.0243953
3935.62613,0.0244261
3934.66175,0.0244341
3933.69737,0.0243877
3932.73300,0.0242979
3931.76862,0.0241725
3930.80424,0.0240282
3929.83986,0.0239593
3928.87548,0.0239903
3927.91111,0.0240504
3926.94673,0.0241226
3925.98235,0.0241568
3925.01797,0.0241591
3924.05359,0.0241940
3923.08922,0.0241925
3922.12484,0.0241429
3921.16046,0.0241179
3920.19608,0.0240999
3919.23171,0.0240707
3918.26733,0.0241034
3917.30295,0.0241906
3916.33857,0.0242361
3915.37419,0.0242583
3914.40982,0.0242715
3913.44544,0.0242563
3912.48106,0.0242070
3911.51668,0.0241133
3910.55230,0.0240768
3909.58793,0.0241461
3908.62355,0.0242011
3907.65917,0.0242003
3906.69479,0.0242205
3905.73041,0.0242467
3904.76604,0.0242598
3903.80166,0.0242901
3902.83728,0.0242440
3901.87290,0.0240930
3900.90853,0.0239359
3899.94415,0.0238230
3898.97977,0.0237792
3898.01539,0.0238094
3897.05101,0.0238410
3896.08664,0.0238070
3895.12226,0.0237624
3894.15788,0.0237573
3893.19350,0.0238070
3892.22912,0.0238651
3891.26475,0.0238129
3890.30037,0.0236883
3889.33599,0.0236074
3888.37161,0.0236069
3887.40724,0.0236407
3886.44286,0.0236642
3885.47848,0.0236638
3884.51410,0.0236312
3883.54972,0.0236548
3882.58535,0.0237507
3881.62097,0.0238499
3880.65659,0.0239045
3879.69221,0.0238692
3878.72783,0.0238023
3877.76346,0.0237769
3876.79908,0.0237890
3875.83470,0.0237711
3874.87032,0.0236866
3873.90594,0.0235798
3872.94157,0.0234972
3871.97719,0.0234939
3871.01281,0.0235650
3870.04843,0.0236473
3869.08406,0.0237143
3868.11968,0.0237881
3867.15530,0.0238723
3866.19092,0.0239442
3865.22654,0.0239960
3864.26217,0.0240029
3863.29779,0.0239622
3862.33341,0.0239105
3861.36903,0.0238848
3860.40465,0.0238897
3859.44028,0.0239097
3858.47590,0.0239318
3857.51152,0.0239486
3856.54714,0.0239666
3855.58276,0.0239597
3854.61839,0.0239452
3853.65401,0.0239200
3852.68963,0.0238662
3851.72525,0.0238017
3850.76088,0.0236949
3849.79650,0.0236028
3848.83212,0.0235530
3847.86774,0.0235074
3846.90336,0.0235024
3845.93899,0.0235255
3844.97461,0.0235426
3844.01023,0.0235687
3843.04585,0.0236107
3842.08147,0.0236034
3841.11710,0.0235563
3840.15272,0.0234977
3839.18834,0.0233962
3838.22396,0.0232957
3837.25959,0.0231988
3836.29521,0.0231041
3835.33083,0.0230114
3834.36645,0.0229084
3833.40207,0.0228364
3832.43770,0.0228343
3831.47332,0.0229112
3830.50894,0.0229742
3829.54456,0.0230163
3828.58018,0.0230858
3827.61581,0.0231413
3826.65143,0.0231657
3825.68705,0.0231655
3824.72267,0.0231378
3823.75829,0.0230716
3822.79392,0.0230568
3821.82954,0.0231029
3820.86516,0.0231694
3819.90078,0.0232765
3818.93641,0.0233067
3817.97203,0.0233074
3817.00765,0.0233703
3816.04327,0.0234409
3815.07889,0.0235306
3814.11452,0.0235969
3813.15014,0.0235874
3812.18576,0.0235426
3811.22138,0.0235052
3810.25700,0.0234307
3809.29263,0.0233302
3808.32825,0.0232381
3807.36387,0.0231146
3806.39949,0.0230298
3805.43512,0.0230168
3804.47074,0.0230728
3803.50636,0.0232134
3802.54198,0.0233374
3801.57760,0.0233736
3800.61323,0.0233845
3799.64885,0.0234111
3798.68447,0.0234154
3797.72009,0.0234115
3796.75571,0.0233865
3795.79134,0.0233152
3794.82696,0.0232237
3793.86258,0.0231518
3792.89820,0.0231463
3791.93382,0.0231501
3790.96945,0.0231284
3790.00507,0.0230584
3789.04069,0.0229560
3788.07631,0.0228785
3787.11194,0.0228109
3786.14756,0.0228085
3785.18318,0.0228267
3784.21880,0.0228018
3783.25442,0.0227553
3782.29005,0.0227064
3781.32567,0.0227031
3780.36129,0.0227012
3779.39691,0.0227142
3778.43253,0.0226967
3777.46816,0.0226230
3776.50378,0.0225983
3775.53940,0.0226251
3774.57502,0.0227527
3773.61065,0.0229206
3772.64627,0.0230453
3771.68189,0.0231417
3770.71751,0.0231850
3769.75313,0.0232337
3768.78876,0.0232710
3767.82438,0.0232605
3766.86000,0.0231635
3765.89562,0.0229680
3764.93124,0.0228054
3763.96687,0.0227121
3763.00249,0.0226793
3762.03811,0.0226692
3761.07373,0.0226436
3760.10935,0.0226357
3759.14498,0.0226286
3758.18060,0.0226275
3757.21622,0.0226544
3756.25184,0.0227100
3755.28747,0.0227523
3754.32309,0.0227203
3753.35871,0.0227173
3752.39433,0.0227494
3751.42995,0.0227358
3750.46558,0.0227466
3749.50120,0.0227465
3748.53682,0.0227230
3747.57244,0.0227380
3746.60806,0.0227437
3745.64369,0.0227668
3744.67931,0.0228503
3743.71493,0.0229539
3742.75055,0.0229988
3741.78618,0.0229959
3740.82180,0.0229805
3739.85742,0.0229451
3738.89304,0.0229438
3737.92866,0.0228878
3736.96429,0.0227840
3735.99991,0.0227453
3735.03553,0.0226849
3734.07115,0.0225960
3733.10677,0.0225357
3732.14240,0.0224947
3731.17802,0.0224133
3730.21364,0.0223166
3729.24926,0.0223049
3728.28488,0.0223418
3727.32051,0.0223872
3726.35613,0.0224104
3725.39175,0.0224231
3724.42737,0.0224570
3723.46300,0.0224952
3722.49862,0.0224749
3721.53424,0.0223444
3720.56986,0.0222097
3719.60548,0.0221457
3718.64111,0.0221917
3717.67673,0.0223134
3716.71235,0.0224296
3715.74797,0.0225686
3714.78359,0.0226969
3713.81922,0.0228105
3712.85484,0.0228728
3711.89046,0.0228524
3710.92608,0.0227929
3709.96171,0.0227009
3708.99733,0.0226298
3708.03295,0.0225817
3707.06857,0.0225941
3706.10419,0.0226219
3705.13982,0.0225921
3704.17544,0.0225896
3703.21106,0.0225619
3702.24668,0.0225236
3701.28230,0.0225285
3700.31793,0.0225350
3699.35355,0.0225861
3698.38917,0.0226310
3697.42479,0.0226106
3696.46041,0.0225892
3695.49604,0.0226184
3694.53166,0.0226284
3693.56728,0.0225652
3692.60290,0.0225202
3691.63853,0.0225221
3690.67415,0.0225762
3689.70977,0.0226609
3688.74539,0.0226823
3687.78101,0.0227027
3686.81664,0.0227589
3685.85226,0.0227853
3684.88788,0.0228108
3683.92350,0.0228351
3682.95912,0.0228000
3681.99475,0.0226714
3681.03037,0.0225149
3680.06599,0.0224213
3679.10161,0.0223224
3678.13724,0.0221824
3677.17286,0.0221320
3676.20848,0.0222275
3675.24410,0.0223628
3674.27972,0.0225122
3673.31535,0.0227168
3672.35097,0.0229209
3671.38659,0.0230664
3670.42221,0.0231378
3669.45783,0.0232030
3668.49346,0.0233206
3667.52908,0.0233915
3666.56470,0.0233865
3665.60032,0.0233714
3664.63594,0.0233239
3663.67157,0.0232713
3662.70719,0.0232971
3661.74281,0.0233361
3660.77843,0.0233634
3659.81406,0.0234417
3658.84968,0.0235602
3657.88530,0.0237037
3656.92092,0.0238588
3655.95654,0.0240102
3654.99217,0.0241341
3654.02779,0.0242372
3653.06341,0.0243508
3652.09903,0.0244564
3651.13465,0.0245569
3650.17028,0.0246455
3649.20590,0.0247269
3648.24152,0.0247816
3647.27714,0.0247913
3646.31276,0.0248177
3645.34839,0.0248683
3644.38401,0.0249706
3643.41963,0.0251189
3642.45525,0.0252629
3641.49088,0.0253760
3640.52650,0.0254067
3639.56212,0.0254695
3638.59774,0.0256050
3637.63336,0.0257039
3636.66899,0.0257747
3635.70461,0.0258414
3634.74023,0.0259261
3633.77585,0.0259825
3632.81147,0.0259967
3631.84710,0.0260249
3630.88272,0.0260330
3629.91834,0.0260675
3628.95396,0.0261492
3627.98959,0.0262248
3627.02521,0.0262805
3626.06083,0.0263361
3625.09645,0.0264267
3624.13207,0.0264837
3623.16770,0.0265070
3622.20332,0.0265200
3621.23894,0.0265051
3620.27456,0.0265170
3619.31018,0.0265741
3618.34581,0.0267185
3617.38143,0.0268722
3616.41705,0.0269461
3615.45267,0.0270172
3614.48829,0.0271042
3613.52392,0.0271994
3612.55954,0.0272454
3611.59516,0.0271966
3610.63078,0.0270868
3609.66641,0.0269631
3608.70203,0.0268429
3607.73765,0.0267145
3606.77327,0.0266349
3605.80889,0.0265705
3604.84452,0.0265153
3603.88014,0.0265432
3602.91576,0.0266408
3601.95138,0.0267539
3600.98700,0.0267613
3600.02263,0.0267099
3599.05825,0.0266984
3598.09387,0.0266869
3597.12949,0.0266676
3596.16512,0.0266532
3595.20074,0.0266955
3594.23636,0.0267638
3593.27198,0.0268096
3592.30760,0.0268489
3591.34323,0.0268904
3590.37885,0.0269430
3589.41447,0.0269223
3588.45009,0.0268302
3587.48571,0.0267321
3586.52134,0.0266597
3585.55696,0.0266650
3584.59258,0.0267393
3583.62820,0.0268471
3582.66382,0.0268935
3581.69945,0.0269025
3580.73507,0.0269872
3579.77069,0.0271301
3578.80631,0.0272996
3577.84194,0.0273718
3576.87756,0.0272985
3575.91318,0.0272234
3574.94880,0.0272004
3573.98442,0.0272306
3573.02005,0.0272997
3572.05567,0.0273026
3571.09129,0.0272071
3570.12691,0.0271626
3569.16253,0.0272010
3568.19816,0.0271961
3567.23378,0.0271815
3566.26940,0.0271904
3565.30502,0.0271782
3564.34065,0.0271871
3563.37627,0.0272241
3562.41189,0.0272639
3561.44751,0.0273069
3560.48313,0.0273233
3559.51876,0.0273375
3558.55438,0.0273956
3557.59000,0.0274332
3556.62562,0.0273822
3555.66124,0.0273061
3554.69687,0.0273027
3553.73249,0.0273759
3552.76811,0.0274660
3551.80373,0.0275077
3550.83935,0.0275193
3549.87498,0.0276136
3548.91060,0.0277851
3547.94622,0.0279500
3546.98184,0.0281037
3546.01747,0.0282178
3545.05309,0.0282419
3544.08871,0.0282473
3543.12433,0.0283228
3542.15995,0.0283808
3541.19558,0.0283749
3540.23120,0.0283974
3539.26682,0.0284907
3538.30244,0.0286547
3537.33806,0.0288175
3536.37369,0.0289254
3535.40931,0.0290227
3534.44493,0.0291296
3533.48055,0.0292105
3532.51618,0.0292633
3531.55180,0.0293012
3530.58742,0.0292726
3529.62304,0.0292588
3528.65866,0.0293164
3527.69429,0.0293497
3526.72991,0.0293754
3525.76553,0.0293825
3524.80115,0.0293561
3523.83677,0.0293507
3522.87240,0.0293920
3521.90802,0.0294846
3520.94364,0.0296210
3519.97926,0.0298119
3519.01488,0.0299775
3518.05051,0.0300741
3517.08613,0.0301241
3516.12175,0.0301053
3515.15737,0.0300541
3514.19300,0.0300180
3513.22862,0.0300150
3512.26424,0.0300147
3511.29986,0.0300388
3510.33548,0.0301388
3509.37111,0.0302793
3508.40673,0.0304293
3507.44235,0.0305123
3506.47797,0.0305308
3505.51359,0.0305728
3504.54922,0.0305828
3503.58484,0.0305449
3502.62046,0.0305944
3501.65608,0.0307317
3500.69171,0.0308282
3499.72733,0.0309124
3498.76295,0.0310351
3497.79857,0.0311290
3496.83419,0.0311862
3495.86982,0.0312229
3494.90544,0.0311960
3493.94106,0.0311332
3492.97668,0.0310582
3492.01230,0.0309822
3491.04793,0.0310349
3490.08355,0.0311675
3489.11917,0.0312516
3488.15479,0.0313648
3487.19041,0.0315243
3486.22604,0.0316621
3485.26166,0.0317841
3484.29728,0.0318776
3483.33290,0.0318812
3482.36853,0.0318764
3481.40415,0.0318957
3480.43977,0.0318518
3479.47539,0.0318006
3478.51101,0.0317177
3477.54664,0.0316052
3476.58226,0.0315588
3475.61788,0.0315365
3474.65350,0.0315453
3473.68912,0.0316006
3472.72475,0.0316596
3471.76037,0.0317546
3470.79599,0.0319404
3469.83161,0.0321475
3468.86724,0.0323084
3467.90286,0.0324392
3466.93848,0.0324954
3465.97410,0.0324890
3465.00972,0.0324582
3464.04535,0.0324000
3463.08097,0.0323315
3462.11659,0.0322568
3461.15221,0.0321933
3460.18783,0.0321763
3459.22346,0.0322194
3458.25908,0.0322822
3457.29470,0.0323796
3456.33032,0.0324835
3455.36594,0.0325132
3454.40157,0.0325374
3453.43719,0.0325926
3452.47281,0.0326510
3451.50843,0.0327085
3450.54406,0.0327648
3449.57968,0.0327981
3448.61530,0.0328067
3447.65092,0.0328476
3446.68654,0.0328855
3445.72217,0.0329056
3444.75779,0.0329109
3443.79341,0.0328581
3442.82903,0.0328158
3441.86465,0.0328128
3440.90028,0.0327912
3439.93590,0.0327302
3438.97152,0.0326614
3438.00714,0.0326555
3437.04276,0.0327384
3436.07839,0.0328465
3435.11401,0.0329043
3434.14963,0.0329111
3433.18525,0.0328992
3432.22088,0.0328865
3431.25650,0.0328567
3430.29212,0.0327930
3429.32774,0.0327043
3428.36336,0.0325875
3427.39899,0.0325273
3426.43461,0.0326269
3425.47023,0.0327885
3424.50585,0.0328991
3423.54147,0.0330043
3422.57710,0.0331213
3421.61272,0.0332274
3420.64834,0.0333071
3419.68396,0.0333269
3418.71959,0.0332984
3417.75521,0.0332055
3416.79083,0.0330378
3415.82645,0.0328951
3414.86207,0.0328451
3413.89770,0.0328154
3412.93332,0.0327807
3411.96894,0.0328407
3411.00456,0.0329786
3410.04018,0.0330873
3409.07581,0.0331686
3408.11143,0.0332754
3407.14705,0.0333641
3406.18267,0.0333627
3405.21829,0.0333073
3404.25392,0.0332577
3403.28954,0.0332383
3402.32516,0.0332043
3401.36078,0.0331334
3400.39641,0.0330897
3399.43203,0.0330548
3398.46765,0.0329782
3397.50327,0.0328955
3396.53889,0.0328689
3395.57452,0.0328617
3394.61014,0.0328218
3393.64576,0.0327679
3392.68138,0.0327294
3391.71700,0.0327505
3390.75263,0.0327707
3389.78825,0.0327682
3388.82387,0.0328117
3387.85949,0.0328749
3386.89512,0.0329287
3385.93074,0.0329965
3384.96636,0.0331254
3384.00198,0.0332247
3383.03760,0.0332198
3382.07323,0.0331936
3381.10885,0.0331681
3380.14447,0.0331653
3379.18009,0.0331647
3378.21571,0.0331810
3377.25134,0.0332496
3376.28696,0.0332968
3375.32258,0.0333380
3374.35820,0.0333849
3373.39382,0.0334150
3372.42945,0.0333968
3371.46507,0.0333097
3370.50069,0.0332079
3369.53631,0.0331108
3368.57194,0.0330508
3367.60756,0.0330061
3366.64318,0.0329556
3365.67880,0.0329531
3364.71442,0.0329884
3363.75005,0.0330331
3362.78567,0.0330607
3361.82129,0.0330929
3360.85691,0.0331170
3359.89253,0.0330661
3358.92816,0.0329956
3357.96378,0.0329500
3356.99940,0.0329122
3356.03502,0.0328757
3355.07065,0.0328366
3354.10627,0.0328310
3353.14189,0.0328549
3352.17751,0.0328493
3351.21313,0.0328299
3350.24876,0.0328525
3349.28438,0.0328777
3348.32000,0.0328672
3347.35562,0.0328836
3346.39124,0.0329274
3345.42687,0.0329671
3344.46249,0.0330161
3343.49811,0.0330589
3342.53373,0.0331106
3341.56935,0.0331345
3340.60498,0.0330883
3339.64060,0.0330503
3338.67622,0.0330309
3337.71184,0.0330000
3336.74747,0.0329739
3335.78309,0.0329344
3334.81871,0.0328607
3333.85433,0.0327932
3332.88995,0.0327705
3331.92558,0.0327774
3330.96120,0.0327762
3329.99682,0.0327263
3329.03244,0.0326793
3328.06806,0.0326561
3327.10369,0.0326014
3326.13931,0.0325609
3325.17493,0.0325505
3324.21055,0.0325108
3323.24618,0.0324412
3322.28180,0.0324241
3321.31742,0.0324463
3320.35304,0.0324244
3319.38866,0.0324011
3318.42429,0.0324215
3317.45991,0.0324676
3316.49553,0.0324472
3315.53115,0.0323787
3314.56677,0.0323700
3313.60240,0.0323716
3312.63802,0.0323644
3311.67364,0.0323589
3310.70926,0.0323937
3309.74488,0.0324585
3308.78051,0.0324649
3307.81613,0.0324748
3306.85175,0.0325132
3305.88737,0.0325309
3304.92300,0.0324896
3303.95862,0.0324015
3302.99424,0.0323126
3302.02986,0.0322351
3301.06548,0.0322154
3300.10111,0.0322341
3299.13673,0.0322970
3298.17235,0.0323784
3297.20797,0.0323764
3296.24359,0.0323614
3295.27922,0.0324001
3294.31484,0.0324347
3293.35046,0.0324071
3292.38608,0.0323126
3291.42171,0.0322032
3290.45733,0.0321526
3289.49295,0.0321472
3288.52857,0.0321120
3287.56419,0.0320698
3286.59982,0.0320217
3285.63544,0.0319559
3284.67106,0.0319150
3283.70668,0.0318981
3282.74230,0.0318860
3281.77793,0.0318718
3280.81355,0.0318838
3279.84917,0.0319173
3278.88479,0.0319401
3277.92041,0.0319402
3276.95604,0.0319032
3275.99166,0.0318426
3275.02728,0.0317859
3274.06290,0.0317549
3273.09853,0.0317024
3272.13415,0.0316123
3271.16977,0.0315651
3270.20539,0.0315771
3269.24101,0.0316404
3268.27664,0.0317178
3267.31226,0.0317562
3266.34788,0.0317959
3265.38350,0.0318196
3264.41912,0.0317840
3263.45475,0.0317489
3262.49037,0.0317291
3261.52599,0.0316954
3260.56161,0.0316712
3259.59724,0.0316614
3258.63286,0.0316384
3257.66848,0.0316165
3256.70410,0.0315926
3255.73972,0.0315280
3254.77535,0.0314389
3253.81097,0.0313316
3252.84659,0.0312469
3251.88221,0.0312572
3250.91783,0.0313250
3249.95346,0.0314116
3248.98908,0.0314793
3248.02470,0.0314927
3247.06032,0.0314782
3246.09594,0.0314395
3245.13157,0.0313587
3244.16719,0.0312306
3243.20281,0.0311038
3242.23843,0.0310280
3241.27406,0.0310241
3240.30968,0.0310922
3239.34530,0.0311613
3238.38092,0.0311859
3237.41654,0.0311815
3236.45217,0.0311856
3235.48779,0.0311942
3234.52341,0.0311547
3233.55903,0.0310641
3232.59465,0.0309651
3231.63028,0.0309056
3230.66590,0.0308893
3229.70152,0.0309088
3228.73714,0.0309650
3227.77276,0.0310177
3226.80839,0.0310478
3225.84401,0.0310831
3224.87963,0.0311349
3223.91525,0.0311610
3222.95088,0.0311353
3221.98650,0.0310788
3221.02212,0.0310170
3220.05774,0.0309678
3219.09336,0.0309213
3218.12899,0.0308772
3217.16461,0.0308396
3216.20023,0.0307740
3215.23585,0.0306775
3214.27147,0.0305866
3213.30710,0.0305069
3212.34272,0.0304401
3211.37834,0.0304015
3210.41396,0.0303977
3209.44959,0.0304141
3208.48521,0.0304297
3207.52083,0.0304512
3206.55645,0.0304724
3205.59207,0.0304939
3204.62770,0.0305164
3203.66332,0.0305229
3202.69894,0.0305330
3201.73456,0.0305487
3200.77018,0.0305799
3199.80581,0.0306270
3198.84143,0.0306579
3197.87705,0.0306681
3196.91267,0.0306234
3195.94829,0.0305282
3194.98392,0.0304318
3194.01954,0.0303503
3193.05516,0.0302815
3192.09078,0.0302144
3191.12641,0.0301749
3190.16203,0.0301811
3189.19765,0.0302259
3188.23327,0.0302911
3187.26889,0.0303299
3186.30452,0.0303154
3185.34014,0.0302515
3184.37576,0.0301777
3183.41138,0.0301105
3182.44700,0.0300330
3181.48263,0.0299927
3180.51825,0.0299982
3179.55387,0.0300045
3178.58949,0.0300234
3177.62512,0.0300362
3176.66074,0.0300169
3175.69636,0.0299582
3174.73198,0.0298587
3173.76760,0.0297749
3172.80323,0.0297114
3171.83885,0.0296323
3170.87447,0.0295453
3169.91009,0.0294795
3168.94571,0.0294353
3167.98134,0.0293883
3167.01696,0.0293636
3166.05258,0.0293471
3165.08820,0.0293177
3164.12382,0.0292933
3163.15945,0.0292796
3162.19507,0.0293006
3161.23069,0.0293238
3160.26631,0.0293238
3159.30194,0.0293163
3158.33756,0.0293226
3157.37318,0.0293519
3156.40880,0.0293575
3155.44442,0.0293450
3154.48005,0.0293054
3153.51567,0.0292287
3152.55129,0.0291542
3151.58691,0.0290852
3150.62253,0.0290425
3149.65816,0.0290124
3148.69378,0.0289880
3147.72940,0.0289963
3146.76502,0.0290211
3145.80065,0.0290333
3144.83627,0.0290114
3143.87189,0.0289888
3142.90751,0.0289549
3141.94313,0.0288850
3140.97876,0.0288460
3140.01438,0.0288404
3139.05000,0.0288406
3138.08562,0.0288435
3137.12124,0.0288410
3136.15687,0.0288592
3135.19249,0.0288943
3134.22811,0.0289073
3133.26373,0.0288782
3132.29935,0.0287990
3131.33498,0.0286764
3130.37060,0.0285759
3129.40622,0.0285335
3128.44184,0.0284777
3127.47747,0.0284082
3126.51309,0.0283616
3125.54871,0.0283361
3124.58433,0.0283732
3123.61995,0.0284364
3122.65558,0.0284481
3121.69120,0.0284178
3120.72682,0.0283782
3119.76244,0.0283683
3118.79806,0.0284002
3117.83369,0.0284034
3116.86931,0.0283520
3115.90493,0.0283231
3114.94055,0.0283280
3113.97618,0.0283419
3113.01180,0.0283631
3112.04742,0.0283657
3111.08304,0.0283308
3110.11866,0.0282563
3109.15429,0.0281875
3108.18991,0.0281488
3107.22553,0.0281183
3106.26115,0.0280656
3105.29677,0.0279998
3104.33240,0.0279911
3103.36802,0.0280041
3102.40364,0.0279780
3101.43926,0.0279390
3100.47488,0.0279177
3099.51051,0.0278869
3098.54613,0.0278148
3097.58175,0.0277526
3096.61737,0.0276966
3095.65300,0.0276538
3094.68862,0.0276546
3093.72424,0.0276648
3092.75986,0.0276864
3091.79548,0.0276796
3090.83111,0.0276193
3089.86673,0.0275542
3088.90235,0.0275260
3087.93797,0.0275255
3086.97359,0.0275027
3086.00922,0.0274492
3085.04484,0.0273890
3084.08046,0.0273762
3083.11608,0.0274053
3082.15171,0.0274264
3081.18733,0.0274303
3080.22295,0.0274035
3079.25857,0.0273575
3078.29419,0.0273154
3077.32982,0.0272916
3076.36544,0.0272385
3075.40106,0.0271304
3074.43668,0.0270412
3073.47230,0.0270029
3072.50793,0.0270026
3071.54355,0.0270155
3070.57917,0.0270116
3069.61479,0.0269836
3068.65041,0.0269738
3067.68604,0.0269969
3066.72166,0.0270196
3065.75728,0.0270440
3064.79290,0.0270400
3063.82853,0.0270009
3062.86415,0.0269587
3061.89977,0.0269318
3060.93539,0.0269163
3059.97101,0.0268588
3059.00664,0.0267556
3058.04226,0.0266378
3057.07788,0.0265433
3056.11350,0.0265003
3055.14912,0.0265019
3054.18475,0.0265222
3053.22037,0.0265058
3052.25599,0.0264463
3051.29161,0.0263895
3050.32724,0.0263697
3049.36286,0.0263430
3048.39848,0.0262827
3047.43410,0.0262385
3046.46972,0.0261925
3045.50535,0.0261557
3044.54097,0.0261656
3043.57659,0.0261841
3042.61221,0.0261896
3041.64783,0.0261810
3040.68346,0.0261546
3039.71908,0.0261359
3038.75470,0.0261372
3037.79032,0.0261217
3036.82594,0.0260956
3035.86157,0.0260814
3034.89719,0.0260727
3033.93281,0.0260822
3032.96843,0.0260892
3032.00406,0.0260730
3031.03968,0.0260496
3030.07530,0.0260180
3029.11092,0.0259560
3028.14654,0.0258831
3027.18217,0.0258408
3026.21779,0.0258144
3025.25341,0.0257891
3024.28903,0.0257580
3023.32465,0.0257240
3022.36028,0.0256802
3021.39590,0.0256024
3020.43152,0.0255282
3019.46714,0.0254747
3018.50276,0.0254343
3017.53839,0.0253980
3016.57401,0.0253529
3015.60963,0.0253322
3014.64525,0.0253333
3013.68088,0.0253403
3012.71650,0.0253458
3011.75212,0.0253375
3010.78774,0.0253270
3009.82336,0.0253131
3008.85899,0.0252954
3007.89461,0.0252623
3006.93023,0.0252552
3005.96585,0.0252906
3005.00147,0.0252894
3004.03710,0.0252744
3003.07272,0.0252751
3002.10834,0.0252665
3001.14396,0.0252437
3000.17959,0.0252118
2999.21521,0.0251871
2998.25083,0.0251165
2997.28645,0.0250117
2996.32207,0.0249508
2995.35770,0.0249430
2994.39332,0.0249485
2993.42894,0.0249173
2992.46456,0.0249042
2991.50018,0.0249074
2990.53581,0.0248724
2989.57143,0.0248475
2988.60705,0.0248450
2987.64267,0.0248448
2986.67829,0.0248100
2985.71392,0.0247726
2984.74954,0.0247715
2983.78516,0.0247340
2982.82078,0.0246716
2981.85641,0.0246188
2980.89203,0.0245789
2979.92765,0.0245533
2978.96327,0.0245217
2977.99889,0.0245104
2977.03452,0.0245165
2976.07014,0.0245308
2975.10576,0.0245615
2974.14138,0.0245890
2973.17700,0.0245973
2972.21263,0.0245841
2971.24825,0.0245856
2970.28387,0.0245977
2969.31949,0.0245914
2968.35512,0.0245783
2967.39074,0.0245702
2966.42636,0.0245865
2965.46198,0.0246095
2964.49760,0.0246240
2963.53323,0.0246342
2962.56885,0.0246337
2961.60447,0.0246505
2960.64009,0.0246533
2959.67571,0.0246083
2958.71134,0.0245589
2957.74696,0.0245222
2956.78258,0.0244892
2955.81820,0.0244550
2954.85382,0.0244345
2953.88945,0.0244152
2952.92507,0.0243866
2951.96069,0.0243757
2950.99631,0.0243852
2950.03194,0.0244189
2949.06756,0.0244158
2948.10318,0.0243752
2947.13880,0.0243994
2946.17442,0.0244436
2945.21005,0.0244342
2944.24567,0.0243963
2943.28129,0.0243918
2942.31691,0.0244176
2941.35253,0.0244197
2940.38816,0.0244315
2939.42378,0.0244852
2938.45940,0.0245834
2937.49502,0.0246850
2936.53065,0.0247690
2935.56627,0.0248990
2934.60189,0.0250134
2933.63751,0.0250621
2932.67313,0.0251143
2931.70876,0.0251741
2930.74438,0.0252214
2929.78000,0.0252623
2928.81562,0.0253295
2927.85124,0.0254452
2926.88687,0.0255658
2925.92249,0.0256309
2924.95811,0.0256431
2923.99373,0.0256584
2923.02935,0.0256594
2922.06498,0.0256003
2921.10060,0.0255006
2920.13622,0.0253662
2919.17184,0.0252149
2918.20747,0.0250843
2917.24309,0.0249729
2916.27871,0.0248739
2915.31433,0.0247507
2914.34995,0.0245927
2913.38558,0.0244611
2912.42120,0.0243818
2911.45682,0.0243381
2910.49244,0.0242851
2909.52806,0.0241989
2908.56369,0.0241059
2907.59931,0.0240227
2906.63493,0.0239649
2905.67055,0.0239270
2904.70618,0.0238927
2903.74180,0.0238577
2902.77742,0.0238192
2901.81304,0.0237916
2900.84866,0.0237603
2899.88429,0.0237178
2898.91991,0.0236796
2897.95553,0.0236391
2896.99115,0.0236012
2896.02677,0.0235695
2895.06240,0.0235435
2894.09802,0.0235242
2893.13364,0.0235084
2892.16926,0.0234870
2891.20488,0.0234440
2890.24051,0.0233900
2889.27613,0.0233227
2888.31175,0.0232517
2887.34737,0.0232153
2886.38300,0.0231906
2885.41862,0.0231587
2884.45424,0.0231417
2883.48986,0.0231336
2882.52548,0.0231227
2881.56111,0.0231227
2880.59673,0.0231462
2879.63235,0.0231682
2878.66797,0.0231784
2877.70359,0.0231977
2876.73922,0.0232239
2875.77484,0.0232453
2874.81046,0.0232418
2873.84608,0.0232249
2872.88171,0.0232170
2871.91733,0.0231979
2870.95295,0.0231735
2869.98857,0.0231590
2869.02419,0.0231471
2868.05982,0.0231295
2867.09544,0.0231141
2866.13106,0.0231272
2865.16668,0.0231614
2864.20230,0.0232035
2863.23793,0.0232452
2862.27355,0.0232856
2861.30917,0.0233378
2860.34479,0.0233848
2859.38041,0.0234376
2858.41604,0.0235034
2857.45166,0.0235462
2856.48728,0.0235802
2855.52290,0.0236281
2854.55853,0.0236826
2853.59415,0.0237331
2852.62977,0.0237589
2851.66539,0.0237519
2850.70101,0.0237096
2849.73664,0.0236338
2848.77226,0.0235380
2847.80788,0.0234342
2846.84350,0.0233231
2845.87912,0.0231901
2844.91475,0.0230727
2843.95037,0.0229954
2842.98599,0.0229254
2842.02161,0.0228761
2841.05724,0.0228489
2840.09286,0.0228316
2839.12848,0.0228100
2838.16410,0.0227626
2837.19972,0.0227014
2836.23535,0.0226321
2835.27097,0.0225917
2834.30659,0.0225723
2833.34221,0.0225388
2832.37783,0.0225101
2831.41346,0.0224811
2830.44908,0.0224799
2829.48470,0.0225144
2828.52032,0.0225412
2827.55594,0.0225282
2826.59157,0.0224774
2825.62719,0.0224324
2824.66281,0.0224101
2823.69843,0.0224206
2822.73406,0.0224176
2821.76968,0.0223769
2820.80530,0.0223258
2819.84092,0.0222459
2818.87654,0.0221868
2817.91217,0.0221665
2816.94779,0.0221367
2815.98341,0.0221046
2815.01903,0.0221064
2814.05465,0.0221445
2813.09028,0.0221765
2812.12590,0.0222116
2811.16152,0.0222330
2810.19714,0.0222089
2809.23276,0.0221673
2808.26839,0.0221216
2807.30401,0.0220872
2806.33963,0.0220569
2805.37525,0.0220271
2804.41088,0.0220105
2803.44650,0.0219996
2802.48212,0.0219868
2801.51774,0.0219709
2800.55336,0.0219669
2799.58899,0.0219496
2798.62461,0.0219116
2797.66023,0.0218958
2796.69585,0.0218949
2795.73147,0.0218941
2794.76710,0.0219017
2793.80272,0.0219154
2792.83834,0.0219249
2791.87396,0.0219228
2790.90959,0.0219120
2789.94521,0.0218929
2788.98083,0.0218631
2788.01645,0.0218288
2787.05207,0.0217969
2786.08770,0.0217665
2785.12332,0.0217349
2784.15894,0.0217183
2783.19456,0.0217282
2782.23018,0.0217424
2781.26581,0.0217460
2780.30143,0.0217350
2779.33705,0.0217156
2778.37267,0.0216991
2777.40829,0.0216857
2776.44392,0.0216669
2775.47954,0.0216194
2774.51516,0.0215673
2773.55078,0.0215279
2772.58641,0.0214768
2771.62203,0.0214216
2770.65765,0.0213676
2769.69327,0.0213221
2768.72889,0.0212923
2767.76452,0.0212804
2766.80014,0.0212782
2765.83576,0.0212670
2764.87138,0.0212462
2763.90700,0.0212183
2762.94263,0.0212163
2761.97825,0.0212228
2761.01387,0.0212013
2760.04949,0.0211892
2759.08512,0.0211910
2758.12074,0.0212018
2757.15636,0.0212187
2756.19198,0.0212245
2755.22760,0.0212164
2754.26323,0.0211807
2753.29885,0.0211277
2752.33447,0.0210947
2751.37009,0.0210980
2750.40571,0.0211103
2749.44134,0.0211110
2748.47696,0.0211054
2747.51258,0.0210957
2746.54820,0.0210912
2745.58382,0.0210925
2744.61945,0.0210866
2743.65507,0.0210645
2742.69069,0.0210366
2741.72631,0.0210294
2740.76194,0.0210546
2739.79756,0.0210851
2738.83318,0.0210857
2737.86880,0.0210524
2736.90442,0.0209957
2735.94005,0.0209313
2734.97567,0.0208633
2734.01129,0.0207917
2733.04691,0.0207235
2732.08253,0.0206774
2731.11816,0.0206761
2730.15378,0.0206920
2729.18940,0.0206992
2728.22502,0.0207061
2727.26065,0.0207206
2726.29627,0.0207342
2725.33189,0.0207231
2724.36751,0.0207014
2723.40313,0.0206836
2722.43876,0.0206537
2721.47438,0.0206205
2720.51000,0.0206040
2719.54562,0.0205885
2718.58124,0.0205629
2717.61687,0.0205373
2716.65249,0.0205063
2715.68811,0.0204859
2714.72373,0.0204792
2713.75935,0.0204742
2712.79498,0.0204883
2711.83060,0.0205072
2710.86622,0.0204998
2709.90184,0.0204771
2708.93747,0.0204657
2707.97309,0.0204494
2707.00871,0.0204175
2706.04433,0.0203858
2705.07995,0.0203505
2704.11558,0.0203235
2703.15120,0.0203088
2702.18682,0.0203103
2701.22244,0.0203294
2700.25806,0.0203362
2699.29369,0.0203235
2698.32931,0.0203077
2697.36493,0.0203137
2696.40055,0.0203218
2695.43618,0.0203059
2694.47180,0.0202993
2693.50742,0.0203003
2692.54304,0.0202866
2691.57866,0.0202662
2690.61429,0.0202494
2689.64991,0.0202384
2688.68553,0.0202268
2687.72115,0.0202132
2686.75677,0.0201978
2685.79240,0.0201762
2684.82802,0.0201337
2683.86364,0.0200661
2682.89926,0.0200033
2681.93488,0.0199568
2680.97051,0.0199077
2680.00613,0.0198580
2679.04175,0.0198237
2678.07737,0.0198150
2677.11300,0.0198278
2676.14862,0.0198464
2675.18424,0.0198538
2674.21986,0.0198369
2673.25548,0.0198088
2672.29111,0.0197906
2671.32673,0.0197845
2670.36235,0.0197787
2669.39797,0.0197597
2668.43359,0.0197423
2667.46922,0.0197338
2666.50484,0.0197251
2665.54046,0.0197257
2664.57608,0.0197338
2663.61171,0.0197234
2662.64733,0.0196870
2661.68295,0.0196514
2660.71857,0.0196344
2659.75419,0.0196229
2658.78982,0.0196009
2657.82544,0.0195678
2656.86106,0.0195262
2655.89668,0.0194849
2654.93230,0.0194557
2653.96793,0.0194317
2653.00355,0.0194190
2652.03917,0.0194030
2651.07479,0.0193617
2650.11041,0.0193207
2649.14604,0.0192945
2648.18166,0.0192951
2647.21728,0.0193054
2646.25290,0.0192840
2645.28853,0.0192536
2644.32415,0.0192471
2643.35977,0.0192467
2642.39539,0.0192226
2641.43101,0.0191956
2640.46664,0.0191716
2639.50226,0.0191209
2638.53788,0.0190501
2637.57350,0.0189806
2636.60912,0.0189331
2635.64475,0.0188820
2634.68037,0.0188074
2633.71599,0.0187685
2632.75161,0.0187818
2631.78724,0.0188080
2630.82286,0.0188393
2629.85848,0.0188660
2628.89410,0.0188667
2627.92972,0.0188401
2626.96535,0.0187835
2626.00097,0.0187178
2625.03659,0.0186593
2624.07221,0.0185946
2623.10783,0.0185517
2622.14346,0.0185612
2621.17908,0.0186074
2620.21470,0.0186546
2619.25032,0.0187018
2618.28594,0.0187356
2617.32157,0.0187119
2616.35719,0.0186597
2615.39281,0.0185952
2614.42843,0.0185197
2613.46406,0.0184475
2612.49968,0.0183732
2611.53530,0.0183370
2610.57092,0.0183358
2609.60654,0.0183291
2608.64217,0.0183158
2607.67779,0.0183203
2606.71341,0.0183412
2605.74903,0.0183123
2604.78465,0.0182415
2603.82028,0.0181742
2602.85590,0.0181195
2601.89152,0.0181125
2600.92714,0.0181612
2599.96276,0.0182480
2598.99839,0.0183453
2598.03401,0.0184233
2597.06963,0.0184688
2596.10525,0.0184729
2595.14088,0.0184469
2594.17650,0.0183887
2593.21212,0.0182844
2592.24774,0.0181478
2591.28336,0.0180061
2590.31899,0.0179004
2589.35461,0.0178619
2588.39023,0.0178562
2587.42585,0.0178501
2586.46147,0.0178642
2585.49710,0.0178742
2584.53272,0.0178846
2583.56834,0.0179617
2582.60396,0.0180353
2581.63959,0.0180226
2580.67521,0.0179747
2579.71083,0.0179092
2578.74645,0.0178617
2577.78207,0.0178797
2576.81770,0.0178707
2575.85332,0.0178205
2574.88894,0.0178109
2573.92456,0.0178109
2572.96018,0.0178062
2571.99581,0.0178158
2571.03143,0.0178104
2570.06705,0.0177989
2569.10267,0.0178013
2568.13829,0.0177994
2567.17392,0.0178074
2566.20954,0.0178304
2565.24516,0.0178208
2564.28078,0.0178030
2563.31641,0.0178183
2562.35203,0.0178216
2561.38765,0.0177743
2560.42327,0.0177597
2559.45889,0.0178552
2558.49452,0.0179308
2557.53014,0.0179467
2556.56576,0.0179733
2555.60138,0.0179400
2554.63700,0.0178627
2553.67263,0.0177926
2552.70825,0.0177139
2551.74387,0.0176326
2550.77949,0.0175307
2549.81512,0.0174273
2548.85074,0.0174143
2547.88636,0.0174588
2546.92198,0.0174054
2545.95760,0.0173240
2544.99323,0.0172861
2544.02885,0.0172105
2543.06447,0.0171584
2542.10009,0.0171402
2541.13571,0.0170794
2540.17134,0.0169676
2539.20696,0.0168722
2538.24258,0.0168558
2537.27820,0.0168934
2536.31382,0.0169219
2535.34945,0.0168885
2534.38507,0.0169141
2533.42069,0.0170416
2532.45631,0.0171589
2531.49194,0.0172681
2530.52756,0.0173315
2529.56318,0.0173120
2528.59880,0.0172419
2527.63442,0.0171812
2526.67005,0.0171595
2525.70567,0.0171258
2524.74129,0.0170528
2523.77691,0.0169686
2522.81253,0.0169532
2521.84816,0.0169753
2520.88378,0.0169920
2519.91940,0.0170405
2518.95502,0.0170663
2517.99065,0.0170483
2517.02627,0.0170225
2516.06189,0.0170172
2515.09751,0.0170149
2514.13313,0.0169851
2513.16876,0.0169664
2512.20438,0.0169813
2511.24000,0.0169973
2510.27562,0.0170005
2509.31124,0.0170396
2508.34687,0.0170725
2507.38249,0.0170331
2506.41811,0.0169714
2505.45373,0.0169238
2504.48935,0.0168951
2503.52498,0.0168419
2502.56060,0.0167531
2501.59622,0.0166867
2500.63184,0.0166161
2499.66747,0.0165147
2498.70309,0.0164544
2497.73871,0.0164727
2496.77433,0.0165163
2495.80995,0.0165460
2494.84558,0.0165516
2493.88120,0.0165569
2492.91682,0.0165772
2491.95244,0.0165566
2490.98806,0.0164912
2490.02369,0.0164238
2489.05931,0.0163602
2488.09493,0.0163235
2487.13055,0.0163558
2486.16618,0.0164597
2485.20180,0.0165736
2484.23742,0.0166256
2483.27304,0.0166265
2482.30866,0.0166023
2481.34429,0.0165349
2480.37991,0.0164449
2479.41553,0.0163464
2478.45115,0.0162474
2477.48677,0.0161854
2476.52240,0.0161779
2475.55802,0.0162354
2474.59364,0.0163248
2473.62926,0.0164031
2472.66488,0.0165049
2471.70051,0.0166360
2470.73613,0.0166888
2469.77175,0.0166536
2468.80737,0.0166222
2467.84300,0.0165671
2466.87862,0.0164755
2465.91424,0.0163844
2464.94986,0.0163081
2463.98548,0.0162521
2463.02111,0.0162017
2462.05673,0.0161749
2461.09235,0.0161572
2460.12797,0.0161226
2459.16359,0.0160590
2458.19922,0.0159877
2457.23484,0.0159680
2456.27046,0.0159513
2455.30608,0.0159185
2454.34171,0.0159268
2453.37733,0.0160006
2452.41295,0.0161033
2451.44857,0.0161494
2450.48419,0.0161198
2449.51982,0.0160307
2448.55544,0.0159729
2447.59106,0.0159869
2446.62668,0.0160016
2445.66230,0.0160561
2444.69793,0.0161400
2443.73355,0.0162214
2442.76917,0.0163350
2441.80479,0.0164417
2440.84041,0.0165016
2439.87604,0.0164969
2438.91166,0.0164523
2437.94728,0.0163789
2436.98290,0.0162758
2436.01853,0.0161637
2435.05415,0.0160280
2434.08977,0.0159291
2433.12539,0.0158839
2432.16101,0.0158395
2431.19664,0.0157888
2430.23226,0.0157177
2429.26788,0.0156724
2428.30350,0.0156587
2427.33912,0.0156492
2426.37475,0.0156650
2425.41037,0.0156743
2424.44599,0.0156653
2423.48161,0.0156663
2422.51724,0.0157152
2421.55286,0.0158220
2420.58848,0.0159203
2419.62410,0.0159454
2418.65972,0.0159018
2417.69535,0.0158403
2416.73097,0.0157785
2415.76659,0.0157372
2414.80221,0.0157263
2413.83783,0.0157109
2412.87346,0.0156876
2411.90908,0.0156762
2410.94470,0.0156877
2409.98032,0.0156961
2409.01594,0.0156894
2408.05157,0.0156828
2407.08719,0.0156721
2406.12281,0.0156498
2405.15843,0.0156248
2404.19406,0.0156333
2403.22968,0.0156557
2402.26530,0.0156851
2401.30092,0.0157236
2400.33654,0.0157141
2399.37217,0.0156730
2398.40779,0.0156227
2397.44341,0.0156152
2396.47903,0.0156723
2395.51465,0.0156852
2394.55028,0.0156539
2393.58590,0.0156407
2392.62152,0.0156443
2391.65714,0.0156497
2390.69276,0.0156457
2389.72839,0.0156178
2388.76401,0.0155770
2387.79963,0.0155835
2386.83525,0.0156332
2385.87088,0.0156905
2384.90650,0.0157145
2383.94212,0.0156956
2382.97774,0.0157131
2382.01336,0.0157707
2381.04899,0.0158654
2380.08461,0.0160168
2379.12023,0.0161642
2378.15585,0.0162906
2377.19147,0.0164439
2376.22710,0.0166332
2375.26272,0.0168187
2374.29834,0.0169962
2373.33396,0.0171739
2372.36959,0.0173645
2371.40521,0.0175968
2370.44083,0.0178313
2369.47645,0.0180449
2368.51207,0.0182355
2367.54770,0.0183683
2366.58332,0.0184431
2365.61894,0.0184892
2364.65456,0.0185289
2363.69018,0.0185651
2362.72581,0.0185988
2361.76143,0.0186082
2360.79705,0.0185939
2359.83267,0.0185869
2358.86829,0.0185508
2357.90392,0.0184625
2356.93954,0.0183352
2355.97516,0.0181633
2355.01078,0.0179405
2354.04641,0.0176585
2353.08203,0.0173380
2352.11765,0.0170294
2351.15327,0.0167729
2350.18889,0.0165842
2349.22452,0.0164845
2348.26014,0.0165132
2347.29576,0.0166605
2346.33138,0.0168628
2345.36700,0.0170851
2344.40263,0.0173029
2343.43825,0.0174640
2342.47387,0.0175647
2341.50949,0.0176308
2340.54512,0.0176711
2339.58074,0.0177101
2338.61636,0.0177365
2337.65198,0.0177275
2336.68760,0.0176917
2335.72323,0.0176175
2334.75885,0.0175286
2333.79447,0.0174560
2332.83009,0.0173760
2331.86571,0.0173035
2330.90134,0.0172630
2329.93696,0.0172234
2328.97258,0.0171795
2328.00820,0.0171733
2327.04382,0.0171834
2326.07945,0.0171332
2325.11507,0.0170097
2324.15069,0.0168605
2323.18631,0.0167207
2322.22194,0.0165781
2321.25756,0.0164514
2320.29318,0.0163748
2319.32880,0.0163174
2318.36442,0.0162777
2317.40005,0.0162219
2316.43567,0.0161149
2315.47129,0.0159959
2314.50691,0.0158547
2313.54253,0.0157030
2312.57816,0.0155607
2311.61378,0.0154035
2310.64940,0.0152421
2309.68502,0.0151313
2308.72065,0.0150966
2307.75627,0.0151091
2306.79189,0.0151337
2305.82751,0.0150768
2304.86313,0.0149429
2303.89876,0.0148319
2302.93438,0.0147526
2301.97000,0.0146931
2301.00562,0.0146326
2300.04124,0.0145825
2299.07687,0.0145559
2298.11249,0.0145695
2297.14811,0.0146126
2296.18373,0.0146332
2295.21935,0.0146264
2294.25498,0.0145512
2293.29060,0.0144744
2292.32622,0.0144340
2291.36184,0.0143522
2290.39747,0.0142623
2289.43309,0.0142178
2288.46871,0.0142523
2287.50433,0.0143187
2286.53995,0.0144109
2285.57558,0.0145107
2284.61120,0.0145477
2283.64682,0.0145620
2282.68244,0.0145766
2281.71806,0.0146258
2280.75369,0.0145995
2279.78931,0.0144437
2278.82493,0.0142537
2277.86055,0.0140137
2276.89618,0.0137788
2275.93180,0.0135741
2274.96742,0.0134380
2274.00304,0.0133893
2273.03866,0.0134271
2272.07429,0.0135875
2271.10991,0.0138232
2270.14553,0.0141429
2269.18115,0.0144642
2268.21677,0.0147246
2267.25240,0.0148483
2266.28802,0.0148048
2265.32364,0.0147295
2264.35926,0.0145679
2263.39488,0.0143199
2262.43051,0.0140393
2261.46613,0.0137996
2260.50175,0.0136352
2259.53737,0.0134774
2258.57300,0.0134509
2257.60862,0.0135114
2256.64424,0.0135422
2255.67986,0.0135750
2254.71548,0.0136569
2253.75111,0.0138273
2252.78673,0.0139492
2251.82235,0.0139014
2250.85797,0.0137393
2249.89359,0.0136223
2248.92922,0.0135379
2247.96484,0.0133580
2247.00046,0.0131946
2246.03608,0.0131051
2245.07171,0.0130248
2244.10733,0.0129650
2243.14295,0.0129946
2242.17857,0.0132026
2241.21419,0.0134587
2240.24982,0.0135678
2239.28544,0.0135963
2238.32106,0.0136062
2237.35668,0.0135255
2236.39230,0.0133469
2235.42793,0.0131556
2234.46355,0.0129821
2233.49917,0.0127665
2232.53479,0.0125289
2231.57041,0.0123974
2230.60604,0.0124171
2229.64166,0.0124830
2228.67728,0.0125044
2227.71290,0.0125012
2226.74853,0.0124980
2225.78415,0.0124948
2224.81977,0.0124916
2223.85539,0.0124884
2222.89101,0.0124852
2221.92664,0.0124820
2220.96226,0.0124788
2219.99788,0.0124756
2219.03350,0.0124724
2218.06912,0.0124692
2217.10475,0.0124660
2216.14037,0.0124628
2215.17599,0.0124596
2214.21161,0.0124564
2213.24724,0.0124532
2212.28286,0.0124500
2211.31848,0.0124468
2210.35410,0.0124436
2209.38972,0.0124404
2208.42535,0.0124372
2207.46097,0.0124340
2206.49659,0.0124308
2205.53221,0.0124276
2204.56783,0.0124244
2203.60346,0.0124212
2202.63908,0.0124180
2201.67470,0.0124148
2200.71032,0.0124116
2199.74594,0.0124084
2198.78157,0.0124052
2197.81719,0.0124020
2196.85281,0.0123988
2195.88843,0.0123956
2194.92406,0.0123924
2193.95968,0.0123892
2192.99530,0.0123860
2192.03092,0.0123828
2191.06654,0.0123796
2190.10217,0.0123764
2189.13779,0.0123732
2188.17341,0.0123700
2187.20903,0.0123668
2186.24465,0.0123636
2185.28028,0.0123604
2184.31590,0.0123572
2183.35152,0.0123540
2182.38714,0.0123508
2181.42276,0.0123476
2180.45839,0.0123444
2179.49401,0.0123412
2178.52963,0.0123380
2177.56525,0.0123348
2176.60088,0.0123316
2175.63650,0.0123284
2174.67212,0.0123252
2173.70774,0.0123221
2172.74336,0.0123189
2171.77899,0.0123157
2170.81461,0.0123125
2169.85023,0.0123093
2168.88585,0.0123061
2167.92147,0.0123029
2166.95710,0.0122997
2165.99272,0.0122965
2165.02834,0.0122933
2164.06396,0.0122901
2163.09959,0.0122869
2162.13521,0.0122837
2161.17083,0.0122805
2160.20645,0.0122773
2159.24207,0.0122741
2158.27770,0.0122709
2157.31332,0.0122677
2156.34894,0.0122645
2155.38456,0.0122613
2154.42018,0.0122581
2153.45581,0.0122549
2152.49143,0.0122517
2151.52705,0.0122485
2150.56267,0.0122453
2149.59829,0.0122421
2148.63392,0.0122389
2147.66954,0.0122357
2146.70516,0.0122325
2145.74078,0.0122293
2144.77641,0.0122261
2143.81203,0.0122229
2142.84765,0.0122197
2141.88327,0.0122165
2140.91889,0.0122133
2139.95452,0.0122101
2138.99014,0.0122069
2138.02576,0.0122037
2137.06138,0.0122005
2136.09700,0.0121973
2135.13263,0.0121941
2134.16825,0.0121909
2133.20387,0.0121877
2132.23949,0.0121845
2131.27512,0.0121813
2130.31074,0.0121781
2129.34636,0.0121749
2128.38198,0.0121717
2127.41760,0.0121685
2126.45323,0.0121653
2125.48885,0.0121621
2124.52447,0.0121589
2123.56009,0.0121557
2122.59571,0.0121525
2121.63134,0.0121493
2120.66696,0.0121461
2119.70258,0.0121429
2118.73820,0.0121397
2117.77382,0.0121365
2116.80945,0.0121333
2115.84507,0.0121301
2114.88069,0.0121269
2113.91631,0.0121237
2112.95194,0.0121205
2111.98756,0.0121173
2111.02318,0.0121141
2110.05880,0.0121109
2109.09442,0.0121077
2108.13005,0.0121045
2107.16567,0.0121013
2106.20129,0.0120981
2105.23691,0.0120949
2104.27253,0.0120917
2103.30816,0.0120885
2102.34378,0.0120853
2101.37940,0.0120821
2100.41502,0.0120789
2099.45065,0.0120757
2098.48627,0.0120725
2097.52189,0.0120693
2096.55751,0.0120661
2095.59313,0.0120629
2094.62876,0.0120597
2093.66438,0.0120565
2092.70000,0.0120533
2091.73562,0.0120501
2090.77124,0.0120469
2089.80687,0.0120437
2088.84249,0.0120405
2087.87811,0.0120374
2086.91373,0.0120342
2085.94935,0.0120310
2084.98498,0.0120278
2084.02060,0.0120246
2083.05622,0.0120214
2082.09184,0.0120182
2081.12747,0.0120150
2080.16309,0.0120118
2079.19871,0.0120086
2078.23433,0.0120054
2077.26995,0.0120022
2076.30558,0.0119990
2075.34120,0.0119958
2074.37682,0.0119926
2073.41244,0.0119894
2072.44806,0.0119862
2071.48369,0.0119830
2070.51931,0.0119798
2069.55493,0.0119766
2068.59055,0.0119734
2067.62618,0.0119702
2066.66180,0.0119670
2065.69742,0.0119638
2064.73304,0.0119606
2063.76866,0.0119574
2062.80429,0.0119542
2061.83991,0.0119510
2060.87553,0.0119478
2059.91115,0.0119446
2058.94677,0.0119414
2057.98240,0.0119382
2057.01802,0.0119350
2056.05364,0.0119318
2055.08926,0.0119286
2054.12488,0.0119254
2053.16051,0.0119222
2052.19613,0.0119190
2051.23175,0.0119158
2050.26737,0.0119126
2049.30300,0.0119094
2048.33862,0.0119062
2047.37424,0.0119030
2046.40986,0.0118998
2045.44548,0.0118966
2044.48111,0.0118934
2043.51673,0.0118902
2042.55235,0.0118870
2041.58797,0.0118838
2040.62359,0.0118806
2039.65922,0.0118774
2038.69484,0.0118742
2037.73046,0.0118710
2036.76608,0.0118678
2035.80171,0.0118646
2034.83733,0.0118614
2033.87295,0.0118582
2032.90857,0.0118550
2031.94419,0.0118518
2030.97982,0.0118486
2030.01544,0.0118454
2029.05106,0.0118422
2028.08668,0.0118390
2027.12230,0.0118358
2026.15793,0.0118326
2025.19355,0.0118294
2024.22917,0.0118262
2023.26479,0.0118230
2022.30041,0.0118198
2021.33604,0.0118166
2020.37166,0.0118134
2019.40728,0.0118102
2018.44290,0.0118070
2017.47853,0.0118038
2016.51415,0.0118006
2015.54977,0.0117974
2014.58539,0.0117942
2013.62101,0.0117910
2012.65664,0.0117878
2011.69226,0.0117846
2010.72788,0.0117814
2009.76350,0.0117782
2008.79912,0.0117750
2007.83475,0.0117718
2006.87037,0.0117686
2005.90599,0.0117654
2004.94161,0.0117622
2003.97724,0.0117590
2003.01286,0.0117559
2002.04848,0.0117527
2001.08410,0.0117495
2000.11972,0.0117463
1999.15535,0.0117431
1998.19097,0.0117399
1997.22659,0.0117367
1996.26221,0.0117335
1995.29783,0.0117303
1994.33346,0.0117271
1993.36908,0.0117239
1992.40470,0.0117207
1991.44032,0.0117175
1990.47594,0.0117143
1989.51157,0.0117111
1988.54719,0.0117079
1987.58281,0.0117047
1986.61843,0.0117015
1985.65406,0.0116983
1984.68968,0.0116951
1983.72530,0.0116919
1982.76092,0.0116887
1981.79654,0.0116855
1980.83217,0.0116823
1979.86779,0.0116791
1978.90341,0.0116759
1977.93903,0.0116727
1976.97465,0.0116695
1976.01028,0.0116663
1975.04590,0.0116631
1974.08152,0.0116599
1973.11714,0.0116567
1972.15276,0.0116535
1971.18839,0.0116503
1970.22401,0.0116471
1969.25963,0.0116439
1968.29525,0.0116407
1967.33088,0.0116375
1966.36650,0.0116343
1965.40212,0.0116311
1964.43774,0.0116279
1963.47336,0.0116247
1962.50899,0.0116215
1961.54461,0.0116183
1960.58023,0.0116151
1959.61585,0.0116119
1958.65147,0.0116087
1957.68710,0.0116055
1956.72272,0.0116023
1955.75834,0.0115991
1954.79396,0.0115959
1953.82959,0.0115927
1952.86521,0.0115895
1951.90083,0.0115863
1950.93645,0.0115831
1949.97207,0.0115799
1949.00770,0.0115767
1948.04332,0.0115735
1947.07894,0.0115703
1946.11456,0.0115671
1945.15018,0.0115639
1944.18581,0.0115607
1943.22143,0.0115575
1942.25705,0.0115543
1941.29267,0.0115511
1940.32829,0.0115479
1939.36392,0.0115447
1938.39954,0.0115415
1937.43516,0.0115103
1936.47078,0.0114949
1935.50641,0.0115864
1934.54203,0.0116744
1933.57765,0.0116177
1932.61327,0.0115076
1931.64889,0.0114640
1930.68452,0.0115210
1929.72014,0.0115806
1928.75576,0.0115952
1927.79138,0.0115449
1926.82700,0.0113622
1925.86263,0.0111374
1924.89825,0.0110282
1923.93387,0.0110325
1922.96949,0.0109349
1922.00512,0.0107079
1921.04074,0.0105995
1920.07636,0.0106739
1919.11198,0.0108601
1918.14760,0.0110398
1917.18323,0.0111852
1916.21885,0.0112244
1915.25447,0.0110978
1914.29009,0.0110180
1913.32571,0.0110477
1912.36134,0.0110654
1911.39696,0.0109738
1910.43258,0.0108363
1909.46820,0.0107901
1908.50382,0.0107392
1907.53945,0.0106891
1906.57507,0.0107308
1905.61069,0.0107818
1904.64631,0.0107729
1903.68194,0.0107292
1902.71756,0.0107245
1901.75318,0.0107300
1900.78880,0.0107233
1899.82442,0.0107151
1898.86005,0.0106871
1897.89567,0.0106869
1896.93129,0.0106793
1895.96691,0.0106723
1895.00253,0.0106958
1894.03816,0.0107104
1893.07378,0.0107603
1892.10940,0.0107955
1891.14502,0.0107549
1890.18065,0.0106646
1889.21627,0.0105936
1888.25189,0.0106135
1887.28751,0.0106636
1886.32313,0.0107373
1885.35876,0.0108332
1884.39438,0.0108926
1883.43000,0.0109133
1882.46562,0.0109020
1881.50124,0.0109196
1880.53687,0.0109532
1879.57249,0.0109273
1878.60811,0.0108517
1877.64373,0.0107789
1876.67935,0.0107686
1875.71498,0.0107735
1874.75060,0.0107523
1873.78622,0.0107794
1872.82184,0.0108444
1871.85747,0.0108462
1870.89309,0.0107780
1869.92871,0.0107544
1868.96433,0.0107803
1867.99995,0.0107649
1867.03558,0.0107229
1866.07120,0.0106641
1865.10682,0.0106062
1864.14244,0.0105739
1863.17806,0.0105463
1862.21369,0.0105843
1861.24931,0.0106885
1860.28493,0.0107828
1859.32055,0.0108471
1858.35618,0.0108725
1857.39180,0.0108725
1856.42742,0.0108616
1855.46304,0.0108362
1854.49866,0.0107811
1853.53429,0.0107109
1852.56991,0.0106463
1851.60553,0.0105977
1850.64115,0.0106243
1849.67677,0.0107175
1848.71240,0.0108247
1847.74802,0.0109228
1846.78364,0.0109883
1845.81926,0.0110305
1844.85488,0.0110605
1843.89051,0.0110684
1842.92613,0.0110368
1841.96175,0.0109902
1840.99737,0.0109716
1840.03300,0.0109896
1839.06862,0.0110055
1838.10424,0.0109785
1837.13986,0.0109609
1836.17548,0.0109648
1835.21111,0.0109441
1834.24673,0.0109072
1833.28235,0.0108771
1832.31797,0.0108606
1831.35359,0.0108421
1830.38922,0.0108429
1829.42484,0.0108874
1828.46046,0.0109484
1827.49608,0.0109898
1826.53171,0.0110097
1825.56733,0.0110377
1824.60295,0.0110656
1823.63857,0.0110924
1822.67419,0.0111237
1821.70982,0.0111450
1820.74544,0.0111488
1819.78106,0.0111451
1818.81668,0.0111785
1817.85230,0.0112374
1816.88793,0.0112853
1815.92355,0.0113352
1814.95917,0.0113758
1813.99479,0.0113794
1813.03041,0.0113694
1812.06604,0.0113876
1811.10166,0.0114247
1810.13728,0.0114646
1809.17290,0.0114878
1808.20853,0.0114899
1807.24415,0.0114992
1806.27977,0.0114988
1805.31539,0.0114938
1804.35101,0.0115055
1803.38664,0.0115056
1802.42226,0.0114892
1801.45788,0.0114822
1800.49350,0.0115113
1799.52912,0.0115730
1798.56475,0.0116405
1797.60037,0.0116963
1796.63599,0.0117376
1795.67161,0.0117862
1794.70724,0.0118421
1793.74286,0.0118843
1792.77848,0.0119044
1791.81410,0.0119166
1790.84972,0.0119457
1789.88535,0.0119774
1788.92097,0.0120059
1787.95659,0.0120495
1786.99221,0.0121118
1786.02783,0.0122000
1785.06346,0.0123037
1784.09908,0.0124217
1783.13470,0.0125419
1782.17032,0.0126219
1781.20594,0.0126675
1780.24157,0.0127078
1779.27719,0.0127525
1778.31281,0.0127948
1777.34843,0.0128347
1776.38406,0.0128878
1775.41968,0.0129546
1774.45530,0.0130329
1773.49092,0.0131306
1772.52654,0.0132623
1771.56217,0.0134099
1770.59779,0.0135414
1769.63341,0.0136596
1768.66903,0.0137601
1767.70465,0.0138497
1766.74028,0.0139556
1765.77590,0.0140681
1764.81152,0.0141628
1763.84714,0.0142501
1762.88276,0.0143541
1761.91839,0.0144782
1760.95401,0.0146147
1759.98963,0.0147488
1759.02525,0.0148712
1758.06088,0.0149735
1757.09650,0.0150556
1756.13212,0.0151457
1755.16774,0.0152582
1754.20336,0.0153714
1753.23899,0.0154640
1752.27461,0.0155603
1751.31023,0.0156754
1750.34585,0.0157780
1749.38147,0.0158616
1748.41710,0.0159385
1747.45272,0.0160075
1746.48834,0.0160660
1745.52396,0.0161315
1744.55959,0.0162105
1743.59521,0.0162814
1742.63083,0.0163435
1741.66645,0.0163907
1740.70207,0.0164205
1739.73770,0.0164452
1738.77332,0.0164720
1737.80894,0.0165145
1736.84456,0.0165627
1735.88018,0.0165942
1734.91581,0.0165991
1733.95143,0.0165847
1732.98705,0.0165548
1732.02267,0.0165037
1731.05829,0.0164466
1730.09392,0.0163855
1729.12954,0.0163276
1728.16516,0.0163025
1727.20078,0.0163095
1726.23641,0.0163209
1725.27203,0.0163234
1724.30765,0.0163191
1723.34327,0.0163017
1722.37889,0.0162799
1721.41452,0.0162514
1720.45014,0.0161963
1719.48576,0.0161209
1718.52138,0.0160347
1717.55700,0.0159545
1716.59263,0.0158809
1715.62825,0.0158036
1714.66387,0.0157325
1713.69949,0.0156727
1712.73512,0.0156205
1711.77074,0.0155602
1710.80636,0.0155052
1709.84198,0.0154518
1708.87760,0.0153755
1707.91323,0.0152856
1706.94885,0.0151854
1705.98447,0.0150975
1705.02009,0.0150335
1704.05571,0.0149785
1703.09134,0.0149229
1702.12696,0.0148524
1701.16258,0.0147810
1700.19820,0.0147075
1699.23382,0.0146287
1698.26945,0.0145340
1697.30507,0.0144145
1696.34069,0.0143055
1695.37631,0.0142156
1694.41194,0.0141415
1693.44756,0.0140859
1692.48318,0.0140257
1691.51880,0.0139465
1690.55442,0.0138714
1689.59005,0.0138277
1688.62567,0.0137945
1687.66129,0.0137571
1686.69691,0.0137081
1685.73253,0.0136575
1684.76816,0.0136302
1683.80378,0.0135988
1682.83940,0.0135411
1681.87502,0.0134833
1680.91065,0.0134314
1679.94627,0.0133674
1678.98189,0.0133034
1678.01751,0.0132544
1677.05313,0.0132217
1676.08876,0.0132093
1675.12438,0.0132029
1674.16000,0.0131977
1673.19562,0.0131833
1672.23124,0.0131422
1671.26687,0.0130978
1670.30249,0.0130667
1669.33811,0.0130380
1668.37373,0.0130112
1667.40935,0.0129841
1666.44498,0.0129646
1665.48060,0.0129688
1664.51622,0.0129894
1663.55184,0.0130248
1662.58747,0.0130692
1661.62309,0.0131055
1660.65871,0.0131380
1659.69433,0.0131645
1658.72995,0.0131841
1657.76558,0.0132123
1656.80120,0.0132463
1655.83682,0.0132676
1654.87244,0.0132807
1653.90806,0.0133066
1652.94369,0.0133435
1651.97931,0.0133891
1651.01493,0.0134323
1650.05055,0.0134665
1649.08618,0.0134974
1648.12180,0.0135208
1647.15742,0.0135599
1646.19304,0.0136155
1645.22866,0.0136568
1644.26429,0.0136912
1643.29991,0.0137250
1642.33553,0.0137602
1641.37115,0.0138047
1640.40677,0.0138554
1639.44240,0.0139047
1638.47802,0.0139647
1637.51364,0.0140441
1636.54926,0.0141351
1635.58488,0.0142382
1634.62051,0.0143377
1633.65613,0.0144258
1632.69175,0.0145199
1631.72737,0.0146126
1630.76300,0.0146986
1629.79862,0.0147912
1628.83424,0.0148849
1627.86986,0.0149724
1626.90548,0.0150629
1625.94111,0.0151524
1624.97673,0.0152384
1624.01235,0.0153254
1623.04797,0.0154036
1622.08359,0.0154809
1621.11922,0.0155700
1620.15484,0.0156630
1619.19046,0.0157513
1618.22608,0.0158303
1617.26171,0.0158968
1616.29733,0.0159499
1615.33295,0.0159929
1614.36857,0.0160257
1613.40419,0.0160516
1612.43982,0.0160757
1611.47544,0.0161065
1610.51106,0.0161567
1609.54668,0.0162177
1608.58230,0.0162812
1607.61793,0.0163565
1606.65355,0.0164345
1605.68917,0.0164984
1604.72479,0.0165503
1603.76041,0.0165959
1602.79604,0.0166377
1601.83166,0.0166778
1600.86728,0.0167242
1599.90290,0.0167828
1598.93853,0.0168468
1597.97415,0.0169135
1597.00977,0.0169882
1596.04539,0.0170832
1595.08101,0.0171768
1594.11664,0.0172485
1593.15226,0.0173243
1592.18788,0.0173981
1591.22350,0.0174661
1590.25912,0.0175376
1589.29475,0.0175987
1588.33037,0.0176456
1587.36599,0.0176789
1586.40161,0.0177097
1585.43724,0.0177357
1584.47286,0.0177563
1583.50848,0.0177737
1582.54410,0.0177876
1581.57972,0.0178121
1580.61535,0.0178194
1579.65097,0.0178063
1578.68659,0.0177923
1577.72221,0.0177665
1576.75783,0.0177270
1575.79346,0.0176783
1574.82908,0.0176293
1573.86470,0.0175721
1572.90032,0.0175021
1571.93594,0.0174277
1570.97157,0.0173526
1570.00719,0.0172697
1569.04281,0.0171560
1568.07843,0.0170253
1567.11406,0.0168889
1566.14968,0.0167464
1565.18530,0.0166169
1564.22092,0.0165047
1563.25654,0.0163980
1562.29217,0.0162841
1561.32779,0.0161675
1560.36341,0.0160611
1559.39903,0.0159668
1558.43465,0.0158603
1557.47028,0.0157307
1556.50590,0.0155948
1555.54152,0.0154578
1554.57714,0.0153381
1553.61276,0.0152397
1552.64839,0.0151388
1551.68401,0.0150209
1550.71963,0.0148916
1549.75525,0.0147676
1548.79088,0.0146480
1547.82650,0.0145357
1546.86212,0.0144240
1545.89774,0.0143033
1544.93336,0.0141913
1543.96899,0.0140959
1543.00461,0.0140131
1542.04023,0.0139280
1541.07585,0.0138345
1540.11147,0.0137396
1539.14710,0.0136418
1538.18272,0.0135406
1537.21834,0.0134434
1536.25396,0.0133651
1535.28959,0.0133005
1534.32521,0.0132349
1533.36083,0.0131676
1532.39645,0.0130925
1531.43207,0.0130160
1530.46770,0.0129497
1529.50332,0.0128943
1528.53894,0.0128454
1527.57456,0.0127877
1526.61018,0.0127209
1525.64581,0.0126608
1524.68143,0.0126058
1523.71705,0.0125516
1522.75267,0.0125027
1521.78829,0.0124490
1520.82392,0.0123900
1519.85954,0.0123379
1518.89516,0.0122900
1517.93078,0.0122497
1516.96641,0.0122173
1516.00203,0.0121848
1515.03765,0.0121566
1514.07327,0.0121335
1513.10889,0.0121128
1512.14452,0.0121016
1511.18014,0.0121074
1510.21576,0.0121119
1509.25138,0.0120951
1508.28700,0.0120637
1507.32263,0.0120283
1506.35825,0.0119972
1505.39387,0.0119677
1504.42949,0.0119370
1503.46512,0.0119146
1502.50074,0.0118986
1501.53636,0.0118859
1500.57198,0.0118775
1499.60760,0.0118740
1498.64323,0.0118678
1497.67885,0.0118513
1496.71447,0.0118428
1495.75009,0.0118495
1494.78571,0.0118562
1493.82134,0.0118634
1492.85696,0.0118813
1491.89258,0.0119128
1490.92820,0.0119449
1489.96382,0.0119684
1488.99945,0.0119963
1488.03507,0.0120332
1487.07069,0.0120689
1486.10631,0.0121011
1485.14194,0.0121373
1484.17756,0.0121774
1483.21318,0.0122055
1482.24880,0.0122313
1481.28442,0.0122770
1480.32005,0.0123298
1479.35567,0.0123787
1478.39129,0.0124330
1477.42691,0.0125014
1476.46253,0.0125815
1475.49816,0.0126658
1474.53378,0.0127501
1473.56940,0.0128383
1472.60502,0.0129380
1471.64065,0.0130400
1470.67627,0.0131462
1469.71189,0.0132635
1468.74751,0.0133753
1467.78313,0.0134790
1466.81876,0.0135752
1465.85438,0.0136645
1464.89000,0.0137534
1463.92562,0.0138300
1462.96124,0.0138953
1461.99687,0.0139715
1461.03249,0.0140629
1460.06811,0.0141578
1459.10373,0.0142527
1458.13935,0.0143543
1457.17498,0.0144619
1456.21060,0.0145628
1455.24622,0.0146536
1454.28184,0.0147370
1453.31747,0.0148011
1452.35309,0.0148461
1451.38871,0.0148906
1450.42433,0.0149448
1449.45995,0.0150074
1448.49558,0.0150798
1447.53120,0.0151627
1446.56682,0.0152511
1445.60244,0.0153473
1444.63806,0.0154457
1443.67369,0.0155393
1442.70931,0.0156316
1441.74493,0.0157160
1440.78055,0.0157922
1439.81618,0.0158619
1438.85180,0.0159231
1437.88742,0.0159806
1436.92304,0.0160390
1435.95866,0.0160944
1434.99429,0.0161426
1434.02991,0.0161918
1433.06553,0.0162420
1432.10115,0.0163012
1431.13677,0.0163849
1430.17240,0.0164789
1429.20802,0.0165707
1428.24364,0.0166587
1427.27926,0.0167332
1426.31488,0.0167978
1425.35051,0.0168619
1424.38613,0.0169250
1423.42175,0.0169796
1422.45737,0.0170128
1421.49300,0.0170301
1420.52862,0.0170576
1419.56424,0.0170941
1418.59986,0.0171256
1417.63548,0.0171575
1416.67111,0.0171856
1415.70673,0.0172080
1414.74235,0.0172395
1413.77797,0.0172792
1412.81359,0.0173222
1411.84922,0.0173626
1410.88484,0.0173961
1409.92046,0.0174361
1408.95608,0.0174788
1407.99171,0.0175126
1407.02733,0.0175425
1406.06295,0.0175637
1405.09857,0.0175807
1404.13419,0.0176087
1403.16982,0.0176432
1402.20544,0.0176703
1401.24106,0.0176849
1400.27668,0.0176935
1399.31230,0.0177071
1398.34793,0.0177199
1397.38355,0.0177182
1396.41917,0.0177214
1395.45479,0.0177352
1394.49041,0.0177361
1393.52604,0.0177402
1392.56166,0.0177656
1391.59728,0.0178012
1390.63290,0.0178326
1389.66853,0.0178436
1388.70415,0.0178509
1387.73977,0.0178726
1386.77539,0.0178918
1385.81101,0.0179138
1384.84664,0.0179492
1383.88226,0.0179840
1382.91788,0.0180157
1381.95350,0.0180507
1380.98912,0.0180859
1380.02475,0.0181185
1379.06037,0.0181502
1378.09599,0.0181777
1377.13161,0.0182012
1376.16724,0.0182169
1375.20286,0.0182156
1374.23848,0.0182124
1373.27410,0.0182143
1372.30972,0.0182183
1371.34535,0.0182336
1370.38097,0.0182510
1369.41659,0.0182612
1368.45221,0.0182718
1367.48783,0.0182884
1366.52346,0.0183097
1365.55908,0.0183275
1364.59470,0.0183272
1363.63032,0.0183102
1362.66594,0.0182959
1361.70157,0.0182942
1360.73719,0.0183046
1359.77281,0.0183150
1358.80843,0.0183109
1357.84406,0.0183012
1356.87968,0.0182933
1355.91530,0.0182869
1354.95092,0.0182910
1353.98654,0.0182934
1353.02217,0.0182785
1352.05779,0.0182652
1351.09341,0.0182684
1350.12903,0.0182912
1349.16465,0.0183239
1348.20028,0.0183384
1347.23590,0.0183326
1346.27152,0.0183232
1345.30714,0.0183223
1344.34276,0.0183310
1343.37839,0.0183402
1342.41401,0.0183427
1341.44963,0.0183467
1340.48525,0.0183666
1339.52088,0.0183940
1338.55650,0.0184289
1337.59212,0.0184586
1336.62774,0.0184603
1335.66336,0.0184492
1334.69899,0.0184367
1333.73461,0.0184358
1332.77023,0.0184495
1331.80585,0.0184625
1330.84147,0.0184762
1329.87710,0.0184959
1328.91272,0.0185218
1327.94834,0.0185498
1326.98396,0.0185861
1326.01959,0.0186162
1325.05521,0.0186300
1324.09083,0.0186494
1323.12645,0.0186645
1322.16207,0.0186765
1321.19770,0.0187015
1320.23332,0.0187320
1319.26894,0.0187569
1318.30456,0.0187717
1317.34018,0.0187898
1316.37581,0.0188182
1315.41143,0.0188521
1314.44705,0.0188783
1313.48267,0.0188937
1312.51829,0.0189098
1311.55392,0.0189355
1310.58954,0.0189861
1309.62516,0.0190513
1308.66078,0.0191182
1307.69641,0.0191833
1306.73203,0.0192346
1305.76765,0.0192878
1304.80327,0.0193469
1303.83889,0.0194037
1302.87452,0.0194585
1301.91014,0.0195020
1300.94576,0.0195464
1299.98138,0.0196069
1299.01700,0.0196716
1298.05263,0.0197277
1297.08825,0.0197862
1296.12387,0.0198478
1295.15949,0.0198929
1294.19512,0.0199380
1293.23074,0.0200030
1292.26636,0.0200857
1291.30198,0.0201775
1290.33760,0.0202563
1289.37323,0.0203259
1288.40885,0.0203967
1287.44447,0.0204532
1286.48009,0.0204929
1285.51571,0.0205281
1284.55134,0.0205561
1283.58696,0.0205762
1282.62258,0.0206141
1281.65820,0.0206822
1280.69382,0.0207623
1279.72945,0.0208372
1278.76507,0.0209062
1277.80069,0.0209845
1276.83631,0.0210709
1275.87194,0.0211416
1274.90756,0.0211925
1273.94318,0.0212421
1272.97880,0.0212953
1272.01442,0.0213548
1271.05005,0.0214262
1270.08567,0.0214881
1269.12129,0.0215187
1268.15691,0.0215375
1267.19253,0.0215783
1266.22816,0.0216368
1265.26378,0.0216889
1264.29940,0.0217359
1263.33502,0.0217910
1262.37065,0.0218539
1261.40627,0.0219157
1260.44189,0.0219791
1259.47751,0.0220403
1258.51313,0.0220837
1257.54876,0.0221043
1256.58438,0.0221184
1255.62000,0.0221459
1254.65562,0.0221731
1253.69124,0.0221933
1252.72687,0.0222177
1251.76249,0.0222432
1250.79811,0.0222679
1249.83373,0.0222895
1248.86935,0.0223158
1247.90498,0.0223457
1246.94060,0.0223690
1245.97622,0.0223876
1245.01184,0.0224106
1244.04747,0.0224511
1243.08309,0.0224933
1242.11871,0.0225286
1241.15433,0.0225608
1240.18995,0.0225807
1239.22558,0.0225981
1238.26120,0.0226139
1237.29682,0.0226238
1236.33244,0.0226271
1235.36806,0.0226220
1234.40369,0.0226133
1233.43931,0.0226042
1232.47493,0.0225950
1231.51055,0.0225763
1230.54618,0.0225570
1229.58180,0.0225403
1228.61742,0.0225187
1227.65304,0.0225092
1226.68866,0.0225091
1225.72429,0.0225110
1224.75991,0.0225103
1223.79553,0.0224961
1222.83115,0.0224740
1221.86677,0.0224476
1220.90240,0.0224163
1219.93802,0.0223794
1218.97364,0.0223347
1218.00926,0.0222877
1217.04488,0.0222465
1216.08051,0.0222028
1215.11613,0.0221382
1214.15175,0.0220617
1213.18737,0.0219891
1212.22300,0.0219253
1211.25862,0.0218689
1210.29424,0.0218071
1209.32986,0.0217441
1208.36548,0.0216810
1207.40111,0.0216115
1206.43673,0.0215572
1205.47235,0.0215220
1204.50797,0.0214815
1203.54359,0.0214288
1202.57922,0.0213729
1201.61484,0.0213317
1200.65046,0.0213105
1199.68608,0.0212919
1198.72171,0.0212617
1197.75733,0.0212209
1196.79295,0.0211748
1195.82857,0.0211285
1194.86419,0.0210960
1193.89982,0.0210771
1192.93544,0.0210598
1191.97106,0.0210413
1191.00668,0.0210155
1190.04230,0.0209833
1189.07793,0.0209641
1188.11355,0.0209571
1187.14917,0.0209341
1186.18479,0.0209019
1185.22041,0.0208848
1184.25604,0.0208729
1183.29166,0.0208552
1182.32728,0.0208370
1181.36290,0.0208339
1180.39853,0.0208441
1179.43415,0.0208407
1178.46977,0.0208149
1177.50539,0.0207854
1176.54101,0.0207649
1175.57664,0.0207406
1174.61226,0.0207119
1173.64788,0.0206820
1172.68350,0.0206442
1171.71912,0.0206095
1170.75475,0.0205907
1169.79037,0.0205855
1168.82599,0.0205737
1167.86161,0.0205429
1166.89724,0.0204975
1165.93286,0.0204539
1164.96848,0.0204249
1164.00410,0.0203883
1163.03972,0.0203423
1162.07535,0.0203015
1161.11097,0.0202637
1160.14659,0.0202375
1159.18221,0.0202192
1158.21783,0.0201821
1157.25346,0.0201173
1156.28908,0.0200518
1155.32470,0.0200041
1154.36032,0.0199725
1153.39594,0.0199493
1152.43157,0.0199350
1151.46719,0.0199458
1150.50281,0.0199708
1149.53843,0.0199878
1148.57406,0.0199932
1147.60968,0.0199820
1146.64530,0.0199450
1145.68092,0.0198794
1144.71654,0.0198022
1143.75217,0.0197318
1142.78779,0.0196680
1141.82341,0.0196146
1140.85903,0.0195941
1139.89465,0.0196040
1138.93028,0.0196218
1137.96590,0.0196400
1137.00152,0.0196475
1136.03714,0.0196306
1135.07276,0.0195829
1134.10839,0.0195167
1133.14401,0.0194477
1132.17963,0.0193941
1131.21525,0.0193696
1130.25088,0.0193713
1129.28650,0.0194003
1128.32212,0.0194296
1127.35774,0.0194538
1126.39336,0.0194887
1125.42899,0.0195082
1124.46461,0.0194935
1123.50023,0.0194578
1122.53585,0.0194372
1121.57147,0.0194370
1120.60710,0.0194448
1119.64272,0.0194716
1118.67834,0.0195105
1117.71396,0.0195449
1116.74959,0.0195599
1115.78521,0.0195699
1114.82083,0.0195892
1113.85645,0.0196048
1112.89207,0.0196192
1111.92770,0.0196355
1110.96332,0.0196436
1109.99894,0.0196480
1109.03456,0.0196603
1108.07018,0.0196719
1107.10581,0.0196861
1106.14143,0.0196979
1105.17705,0.0196960
1104.21267,0.0197074
1103.24829,0.0197395
1102.28392,0.0197882
1101.31954,0.0198447
1100.35516,0.0198941
1099.39078,0.0199404
1098.42641,0.0199811
1097.46203,0.0200059
1096.49765,0.0200234
1095.53327,0.0200536
1094.56889,0.0200827
1093.60452,0.0201157
1092.64014,0.0201600
1091.67576,0.0201869
1090.71138,0.0202075
1089.74700,0.0202325
1088.78263,0.0202710
1087.81825,0.0203173
1086.85387,0.0203291
1085.88949,0.0203209
1084.92512,0.0203372
1083.96074,0.0203771
1082.99636,0.0204226
1082.03198,0.0204770
1081.06760,0.0205193
1080.10323,0.0205395
1079.13885,0.0205586
1078.17447,0.0205744
1077.21009,0.0205941
1076.24571,0.0206169
1075.28134,0.0206306
1074.31696,0.0206462
1073.35258,0.0206606
1072.38820,0.0206669
1071.42382,0.0206871
1070.45945,0.0207143
1069.49507,0.0207165
1068.53069,0.0206995
1067.56631,0.0206694
1066.60194,0.0206423
1065.63756,0.0206356
1064.67318,0.0206509
1063.70880,0.0206829
1062.74442,0.0207009
1061.78005,0.0207011
1060.81567,0.0207109
1059.85129,0.0207484
1058.88691,0.0207707
1057.92253,0.0207525
1056.95816,0.0207320
1055.99378,0.0207077
1055.02940,0.0206919
1054.06502,0.0206782
1053.10065,0.0206410
1052.13627,0.0205812
1051.17189,0.0204921
1050.20751,0.0204155
1049.24313,0.0203648
1048.27876,0.0203088
1047.31438,0.0202243
1046.35000,0.0201196
1045.38562,0.0200346
1044.42124,0.0199631
1043.45687,0.0198823
1042.49249,0.0197711
1041.52811,0.0196384
1040.56373,0.0195080
1039.59935,0.0193894
1038.63498,0.0192893
1037.67060,0.0191800
1036.70622,0.0190630
1035.74184,0.0189394
1034.77747,0.0188097
1033.81309,0.0187042
1032.84871,0.0185963
1031.88433,0.0184586
1030.91995,0.0183121
1029.95558,0.0181811
1028.99120,0.0180567
1028.02682,0.0179305
1027.06244,0.0178016
1026.09806,0.0176501
1025.13369,0.0175046
1024.16931,0.0173912
1023.20493,0.0172883
1022.24055,0.0171932
1021.27618,0.0171108
1020.31180,0.0170425
1019.34742,0.0169926
1018.38304,0.0169544
1017.41866,0.0169189
1016.45429,0.0168822
1015.48991,0.0168229
1014.52553,0.0167329
1013.56115,0.0166474
1012.59677,0.0165812
1011.63240,0.0165055
1010.66802,0.0164170
1009.70364,0.0163406
1008.73926,0.0162704
1007.77488,0.0161910
1006.81051,0.0161152
1005.84613,0.0160593
1004.88175,0.0160086
1003.91737,0.0159515
1002.95300,0.0159022
1001.98862,0.0158618
1001.02424,0.0158384
1000.05986,0.0158312
999.09548,0.0158230
998.13111,0.0158051
997.16673,0.0157718
996.20235,0.0157431
995.23797,0.0157374
994.27359,0.0157411
993.30922,0.0157261
992.34484,0.0156899
991.38046,0.0156422
990.41608,0.0155857
989.45171,0.0155515
988.48733,0.0155372
987.52295,0.0155201
986.55857,0.0155175
985.59419,0.0155471
984.62982,0.0155926
983.66544,0.0156028
982.70106,0.0155606
981.73668,0.0154938
980.77230,0.0154249
979.80793,0.0153504
978.84355,0.0152575
977.87917,0.0151803
976.91479,0.0151322
975.95041,0.0150803
974.98604,0.0150442
974.02166,0.0150446
973.05728,0.0150262
972.09290,0.0149527
971.12853,0.0148676
970.16415,0.0148094
969.19977,0.0147744
968.23539,0.0147419
967.27101,0.0146886
966.30664,0.0146206
965.34226,0.0145476
964.37788,0.0144656
963.41350,0.0144234
962.44912,0.0144372
961.48475,0.0144225
960.52037,0.0143488
959.55599,0.0142656
958.59161,0.0142026
957.62724,0.0141594
956.66286,0.0141278
955.69848,0.0140688
954.73410,0.0139561
953.76972,0.0138356
952.80535,0.0137417
951.84097,0.0136818
950.87659,0.0136340
949.91221,0.0135606
948.94783,0.0134882
947.98346,0.0134477
947.01908,0.0134428
946.05470,0.0134503
945.09032,0.0134474
944.12594,0.0134193
943.16157,0.0133447
942.19719,0.0132736
941.23281,0.0132246
940.26843,0.0131683
939.30406,0.0131135
938.33968,0.0130553
937.37530,0.0130039
936.41092,0.0129643
935.44654,0.0129213
934.48217,0.0128710
933.51779,0.0128127
932.55341,0.0127356
931.58903,0.0126455
930.62465,0.0125959
929.66028,0.0125615
928.69590,0.0124847
927.73152,0.0123903
926.76714,0.0123001
925.80276,0.0122342
924.83839,0.0121949
923.87401,0.0121709
922.90963,0.0121815
921.94525,0.0121952
920.98088,0.0121637
920.01650,0.0121312
919.05212,0.0121283
918.08774,0.0120997
917.12336,0.0120392
916.15899,0.0119872
915.19461,0.0119548
914.23023,0.0119273
913.26585,0.0118889
912.30147,0.0118608
911.33710,0.0118477
910.37272,0.0118079
909.40834,0.0117272
908.44396,0.0116623
907.47959,0.0116281
906.51521,0.0115876
905.55083,0.0115621
904.58645,0.0115692
903.62207,0.0116048
902.65770,0.0116495
901.69332,0.0116756
900.72894,0.0116936
899.76456,0.0117115
898.80018,0.0117142
897.83581,0.0116945
896.87143,0.0116895
895.90705,0.0117023
894.94267,0.0117100
893.97829,0.0117325
893.01392,0.0117660
892.04954,0.0118215
891.08516,0.0118928
890.12078,0.0119262
889.15641,0.0119311
888.19203,0.0119455
887.22765,0.0119553
886.26327,0.0119592
885.29889,0.0119762
884.33452,0.0119798
883.37014,0.0119701
882.40576,0.0119586
881.44138,0.0119548
880.47700,0.0119914
879.51263,0.0120246
878.54825,0.0120037
877.58387,0.0119591
876.61949,0.0119391
875.65512,0.0119375
874.69074,0.0119296
873.72636,0.0119030
872.76198,0.0118540
871.79760,0.0118317
870.83323,0.0118403
869.86885,0.0118795
868.90447,0.0119690
867.94009,0.0120505
866.97571,0.0120951
866.01134,0.0121259
865.04696,0.0121661
864.08258,0.0121979
863.11820,0.0121872
862.15382,0.0121369
861.18945,0.0120718
860.22507,0.0120313
859.26069,0.0120115
858.29631,0.0120250
857.33194,0.0120884
856.36756,0.0121529
855.40318,0.0122025
854.43880,0.0122507
853.47442,0.0122968
852.51005,0.0123200
851.54567,0.0123087
850.58129,0.0122877
849.61691,0.0122713
848.65253,0.0122579
847.68816,0.0122490
846.72378,0.0122419
845.75940,0.0122477
844.79502,0.0122717
843.83065,0.0122799
842.86627,0.0122704
841.90189,0.0122602
840.93751,0.0122430
839.97313,0.0122246
839.00876,0.0122076
838.04438,0.0121995
837.08000,0.0121914
836.11562,0.0121769
835.15124,0.0121704
834.18687,0.0121819
833.22249,0.0121958
832.25811,0.0121728
831.29373,0.0121545
830.32935,0.0121589
829.36498,0.0121433
828.40060,0.0121120
827.43622,0.0120774
826.47184,0.0120694
825.50747,0.0120541
824.54309,0.0120041
823.57871,0.0119676
822.61433,0.0119449
821.64995,0.0119203
820.68558,0.0118836
819.72120,0.0118720
818.75682,0.0118989
817.79244,0.0119189
816.82806,0.0119285
815.86369,0.0119362
814.89931,0.0119529
813.93493,0.0119400
812.97055,0.0118693
812.00618,0.0117768
811.04180,0.0116869
810.07742,0.0116176
809.11304,0.0115686
808.14866,0.0115516
807.18429,0.0115664
806.21991,0.0115835
805.25553,0.0116036
804.29115,0.0116480
803.32677,0.0117212
802.36240,0.0117667
801.39802,0.0117419
800.43364,0.0116913
799.46926,0.0116762
798.50488,0.0116902
797.54051,0.0116806
796.57613,0.0116429
795.61175,0.0116024
794.64737,0.0115702
793.68300,0.0115589
792.71862,0.0115700
791.75424,0.0115746
790.78986,0.0115420
789.82548,0.0114784
788.86111,0.0114228
787.89673,0.0114019
786.93235,0.0113929
785.96797,0.0113547
785.00359,0.0112924
784.03922,0.0112506
783.07484,0.0112445
782.11046,0.0112656
781.14608,0.0113129
780.18171,0.0113753
779.21733,0.0114279
778.25295,0.0114392
777.28857,0.0114313
776.32419,0.0114296
775.35982,0.0113879
774.39544,0.0112991
773.43106,0.0112091
772.46668,0.0111442
771.50230,0.0111056
770.53793,0.0111133
769.57355,0.0111802
768.60917,0.0112450
767.64479,0.0112598
766.68041,0.0112591
765.71604,0.0112848
764.75166,0.0112989
763.78728,0.0112840
762.82290,0.0112902
761.85853,0.0113137
760.89415,0.0113322
759.92977,0.0113487
758.96539,0.0113775
758.00101,0.0114039
757.03664,0.0114069
756.07226,0.0114375
755.10788,0.0115304
754.14350,0.0116204
753.17912,0.0116356
752.21475,0.0116390
751.25037,0.0116566
750.28599,0.0116271
749.32161,0.0115920
748.35724,0.0115810
747.39286,0.0115922
746.42848,0.0116412
745.46410,0.0117349
744.49972,0.0118416
743.53535,0.0118891
742.57097,0.0118691
741.60659,0.0118026
740.64221,0.0117431
739.67783,0.0116504
738.71346,0.0114806
737.74908,0.0113860
736.78470,0.0113973
735.82032,0.0114238
734.85594,0.0114345
733.89157,0.0114407
732.92719,0.0114653
731.96281,0.0114966
730.99843,0.0115516
730.03406,0.0116208
729.06968,0.0116694
728.10530,0.0116731
727.14092,0.0116657
726.17654,0.0117438
725.21217,0.0118542
724.24779,0.0118962
723.28341,0.0118871
722.31903,0.0118752
721.35465,0.0118920
720.39028,0.0119132
719.42590,0.0119195
718.46152,0.0119236
717.49714,0.0119106
716.53276,0.0118955
715.56839,0.0119109
714.60401,0.0119536
713.63963,0.0119998
712.67525,0.0120244
711.71088,0.0120217
710.74650,0.0120060
709.78212,0.0120132
708.81774,0.0120375
707.85336,0.0120455
706.88899,0.0120452
705.92461,0.0120348
704.96023,0.0120346
703.99585,0.0120548
703.03147,0.0120671
702.06710,0.0120781
701.10272,0.0120776
700.13834,0.0120615
699.17396,0.0120693
698.20959,0.0121073
697.24521,0.0121337
696.28083,0.0121429
695.31645,0.0121686
694.35207,0.0121947
693.38770,0.0122127
692.42332,0.0122310
691.45894,0.0122300
690.49456,0.0122205
689.53018,0.0122135
688.56581,0.0122142
687.60143,0.0122521
686.63705,0.0123102
685.67267,0.0123404
684.70829,0.0123425
683.74392,0.0123349
682.77954,0.0123212
681.81516,0.0123029
680.85078,0.0123010
679.88641,0.0123093
678.92203,0.0123104
677.95765,0.0123348
676.99327,0.0123832
676.02889,0.0124446
675.06452,0.0124280
674.10014,0.0122972
673.13576,0.0123946
672.17138,0.0127712
671.20700,0.0131351
670.24263,0.0133933
669.27825,0.0135621
668.31387,0.0136428
667.34949,0.0136170
666.38512,0.0135044
665.42074,0.0132911
664.45636,0.0129423
663.49198,0.0125053
662.52760,0.0121629
661.56323,0.0121688
660.59885,0.0123249
659.63447,0.0123616
658.67009,0.0123509
657.70571,0.0123700
656.74134,0.0124280
655.77696,0.0124928
654.81258,0.0125491
653.84820,0.0125909
652.88382,0.0126031
651.91945,0.0126223
650.95507,0.0126585
649.99069,0.0126815
649.02631,0.0126867
648.06194,0.0126928
647.09756,0.0126873
646.13318,0.0126917
645.16880,0.0127481
644.20442,0.0127886
643.24005,0.0127755
642.27567,0.0127397
641.31129,0.0126857
640.34691,0.0126323
639.38253,0.0125954
638.41816,0.0125786
637.45378,0.0125895
636.48940,0.0126092
635.52502,0.0126050
634.56065,0.0126078
633.59627,0.0126422
632.63189,0.0126373
631.66751,0.0125293
630.70313,0.0123484
629.73876,0.0122782
628.77438,0.0124069
627.81000,0.0125703
626.84562,0.0128044
625.88124,0.0128298
624.91687,0.0124426
623.95249,0.0122253
622.98811,0.0123131
622.02373,0.0124619
621.05935,0.0124920
620.09498,0.0122103
619.13060,0.0117405
618.16622,0.0113937
617.20184,0.0114752
616.23747,0.0119404
615.27309,0.0124483
614.30871,0.0124374
613.34433,0.0121958
612.37995,0.0123275
611.41558,0.0125087
610.45120,0.0126867
609.48682,0.0127211
608.52244,0.0126639
607.55806,0.0125994
606.59369,0.0123227
605.62931,0.0122579
604.66493,0.0124777
603.70055,0.0127391
602.73618,0.0129170
601.77180,0.0130730
600.80742,0.0131495
599.84304,0.0130617
598.87866,0.0131290
597.91429,0.0133029
596.94991,0.0135851
595.98553,0.0137089
595.02115,0.0133865
594.05677,0.0130301
593.09240,0.0128485
592.12802,0.0129323
591.16364,0.0131280
590.19926,0.0132203
589.23488,0.0132017
588.27051,0.0130571
587.30613,0.0129669
586.34175,0.0129667
585.37737,0.0129798
584.41300,0.0129981
583.44862,0.0129797
582.48424,0.0129410
581.51986,0.0128639
580.55548,0.0128339
579.59111,0.0128361
578.62673,0.0127855
577.66235,0.0127457
576.69797,0.0126986
575.73359,0.0126795
574.76922,0.0127003
573.80484,0.0127362
572.84046,0.0128162
571.87608,0.0129204
570.91171,0.0129599
569.94733,0.0128296
568.98295,0.0126504
568.01857,0.0124972
567.05419,0.0123719
566.08982,0.0123256
565.12544,0.0122608
564.16106,0.0121944
563.19668,0.0121799
562.23230,0.0121635
561.26793,0.0121415
560.30355,0.0121331
559.33917,0.0120634
558.37479,0.0119270
557.41041,0.0119287
556.44604,0.0120401
555.48166,0.0121328
554.51728,0.0122223
553.55290,0.0123030
552.58853,0.0124390
551.62415,0.0125855
550.65977,0.0125952
549.69539,0.0124991
548.73101,0.0123785
547.76664,0.0122110
546.80226,0.0120893
545.83788,0.0120882
544.87350,0.0120561
543.90912,0.0119682
542.94475,0.0119204
541.98037,0.0120073
541.01599,0.0122184
540.05161,0.0123756
539.08724,0.0124570
538.12286,0.0125301
537.15848,0.0125899
536.19410,0.0126454
535.22972,0.0127442
534.26535,0.0128474
533.30097,0.0128621
532.33659,0.0128106
531.37221,0.0127298
530.40783,0.0126498
529.44346,0.0125411
528.47908,0.0124005
527.51470,0.0123122
526.55032,0.0122409
525.58594,0.0121673
524.62157,0.0121566
523.65719,0.0122473
522.69281,0.0123543
521.72843,0.0123984
520.76406,0.0124351
519.79968,0.0124235
518.83530,0.0123445
517.87092,0.0122916
516.90654,0.0122806
515.94217,0.0122321
514.97779,0.0120929
514.01341,0.0119432
513.04903,0.0118890
512.08465,0.0119295
511.12028,0.0119780
510.15590,0.0120232
509.19152,0.0120704
508.22714,0.0121004
507.26276,0.0121557
506.29839,0.0122244
505.33401,0.0122883
504.36963,0.0123070
503.40525,0.0122372
502.44088,0.0121584
501.47650,0.0121766
500.51212,0.0122694
499.54774,0.0123239
498.58336,0.0123299
497.61899,0.0122682
496.65461,0.0121941
495.69023,0.0121836
494.72585,0.0121385
493.76147,0.0121025
492.79710,0.0120934
491.83272,0.0120355
490.86834,0.0119766
489.90396,0.0119863
488.93959,0.0120883
487.97521,0.0122092
487.01083,0.0123062
486.04645,0.0123750
485.08207,0.0124516
484.11770,0.0125158
483.15332,0.0124918
482.18894,0.0124746
481.22456,0.0124636
480.26018,0.0123818
479.29581,0.0122750
478.33143,0.0122358
477.36705,0.0123112
476.40267,0.0124019
475.43829,0.0124309
474.47392,0.0124017
473.50954,0.0123459
472.54516,0.0122730
471.58078,0.0121780
470.61641,0.0120903
469.65203,0.0119930
468.68765,0.0119055
467.72327,0.0119100
466.75889,0.0119707
465.79452,0.0119403
464.83014,0.0118735
463.86576,0.0118986
462.90138,0.0119453
461.93700,0.0119762
460.97263,0.0120004
460.00825,0.0120442
459.04387,0.0121348
458.07949,0.0122094
457.11512,0.0122621
456.15074,0.0123083
455.18636,0.0122759
454.22198,0.0121751
453.25760,0.0121357
452.29323,0.0121405
451.32885,0.0120836
450.36447,0.0119692
449.40009,0.0118902
448.43571,0.0119407
447.47134,0.0120239
446.50696,0.0120100
445.54258,0.0119640
444.57820,0.0119312
443.61382,0.0119002
442.64945,0.0119283
441.68507,0.0119614
440.72069,0.0119237
439.75631,0.0118869
438.79194,0.0118507
437.82756,0.0118318
436.86318,0.0118616
435.89880,0.0118661
434.93442,0.0118398
433.97005,0.0118445
433.00567,0.0118832
432.04129,0.0119229
431.07691,0.0119941
430.11253,0.0120183
429.14816,0.0119290
428.18378,0.0117995
427.21940,0.0116366
426.25502,0.0115016
425.29065,0.0113946
424.32627,0.0113016
423.36189,0.0112632
422.39751,0.0112484
421.43313,0.0112807
420.46876,0.0113241
419.50438,0.0113650
418.54000,0.0113772
417.57562,0.0113256
416.61124,0.0112879
415.64687,0.0112677
414.68249,0.0112471
413.71811,0.0112060
412.75373,0.0111692
411.78935,0.0111056
410.82498,0.0110194
409.86060,0.0110015
408.89622,0.0109568
407.93184,0.0109168
406.96747,0.0109261
406.00309,0.0109480
405.03871,0.0110129
404.07433,0.0110129
403.10995,0.0110129
402.14558,0.0110129
401.18120,0.0110129
400.21682,0.0110129
399.25244,0.0110129
