3998.31069,0.0590245
3997.34631,0.0590245
3996.38194,0.0590245
3995.41756,0.0590245
3994.45318,0.0590245
3993.48880,0.0590245
3992.52442,0.0590245
3991.56005,0.0590760
3990.59567,0.0591056
3989.63129,0.0591510
3988.66691,0.0591843
3987.70253,0.0591735
3986.73816,0.0591591
3985.77378,0.0591241
3984.80940,0.0590193
3983.84502,0.0588728
3982.88065,0.0587793
3981.91627,0.0587214
3980.95189,0.0586577
3979.98751,0.0586409
3979.02313,0.0586661
3978.05876,0.0587127
3977.09438,0.0588240
3976.13000,0.0589874
3975.16562,0.0590922
3974.20124,0.0591098
3973.23687,0.0590791
3972.27249,0.0589857
3971.30811,0.0588815
3970.34373,0.0588153
3969.37935,0.0587451
3968.41498,0.0586345
3967.45060,0.0584879
3966.48622,0.0583610
3965.52184,0.0583268
3964.55747,0.0583574
3963.59309,0.0583243
3962.62871,0.0582394
3961.66433,0.0582044
3960.69995,0.0581889
3959.73558,0.0582044
3958.77120,0.0583392
3957.80682,0.0584955
3956.84244,0.0585538
3955.87806,0.0586143
3954.91369,0.0586920
3953.94931,0.0587445
3952.98493,0.0588135
3952.02055,0.0587886
3951.05618,0.0586729
3950.09180,0.0586195
3949.12742,0.0586174
3948.16304,0.0586594
3947.19866,0.0587534
3946.23429,0.0587975
3945.26991,0.0587899
3944.30553,0.0588526
3943.34115,0.0589201
3942.37677,0.0588847
3941.41240,0.0587839
3940.44802,0.0586306
3939.48364,0.0585486
3938.51926,0.0586364
3937.55488,0.0587578
3936.59051,0.0587931
3935.62613,0.0587309
3934.66175,0.0586499
3933.69737,0.0586119
3932.73300,0.0585840
3931.76862,0.0585248
3930.80424,0.0584203
3929.83986,0.0583067
3928.87548,0.0582325
3927.91111,0.0582534
3926.94673,0.0583476
3925.98235,0.0583800
3925.01797,0.0583511
3924.05359,0.0583559
3923.08922,0.0583835
3922.12484,0.0584143
3921.16046,0.0584761
3920.19608,0.0585664
3919.23171,0.0586334
3918.26733,0.0586510
3917.30295,0.0586432
3916.33857,0.0586246
3915.37419,0.0586014
3914.40982,0.0585661
3913.44544,0.0585225
3912.48106,0.0584656
3911.51668,0.0583481
3910.55230,0.0582197
3909.58793,0.0581904
3908.62355,0.0582423
3907.65917,0.0582747
3906.69479,0.0582684
3905.73041,0.0582654
3904.76604,0.0582750
3903.80166,0.0582916
3902.83728,0.0582642
3901.87290,0.0581744
3900.90853,0.0580508
3899.94415,0.0578933
3898.97977,0.0577826
3898.01539,0.0577758
3897.05101,0.0577920
3896.08664,0.0577635
3895.12226,0.0577263
3894.15788,0.0577243
3893.19350,0.0577355
3892.22912,0.0577312
3891.26475,0.0577009
3890.30037,0.0577004
3889.33599,0.0577525
3888.37161,0.0578347
3887.40724,0.0579642
3886.44286,0.0580722
3885.47848,0.0581297
3884.51410,0.0581947
3883.54972,0.0582529
3882.58535,0.0582557
3881.62097,0.0581361
3880.65659,0.0579046
3879.69221,0.0576934
3878.72783,0.0575779
3877.76346,0.0575313
3876.79908,0.0575366
3875.83470,0.0575899
3874.87032,0.0576514
3873.90594,0.0576864
3872.94157,0.0577117
3871.97719,0.0577587
3871.01281,0.0578163
3870.04843,0.0578309
3869.08406,0.0577969
3868.11968,0.0578034
3867.15530,0.0578590
3866.19092,0.0578735
3865.22654,0.0578421
3864.26217,0.0578225
3863.29779,0.0577901
3862.33341,0.0576779
3861.36903,0.0575642
3860.40465,0.0575387
3859.44028,0.0575954
3858.47590,0.0577010
3857.51152,0.0577927
3856.54714,0.0578602
3855.58276,0.0578806
3854.61839,0.0578394
3853.65401,0.0577586
3852.68963,0.0576644
3851.72525,0.0575822
3850.76088,0.0574658
3849.79650,0.0573517
3848.83212,0.0572698
3847.86774,0.0572256
3846.90336,0.0572736
3845.93899,0.0573364
3844.97461,0.0573240
3844.01023,0.0572709
3843.04585,0.0572421
3842.08147,0.0571896
3841.11710,0.0571420
3840.15272,0.0571447
3839.18834,0.0570708
3838.22396,0.0569243
3837.25959,0.0567753
3836.29521,0.0566716
3835.33083,0.0566292
3834.36645,0.0565648
3833.40207,0.0564486
3832.43770,0.0563812
3831.47332,0.0564613
3830.50894,0.0565834
3829.54456,0.0566768
3828.58018,0.0567321
3827.61581,0.0567297
3826.65143,0.0567117
3825.68705,0.0566943
3824.72267,0.0567025
3823.75829,0.0566756
3822.79392,0.0566201
3821.82954,0.0565992
3820.86516,0.0566345
3819.90078,0.0567326
3818.93641,0.0567589
3817.97203,0.0567223
3817.00765,0.0567184
3816.04327,0.0567689
3815.07889,0.0568266
3814.11452,0.0568379
3813.15014,0.0568178
3812.18576,0.0567004
3811.22138,0.0565765
3810.25700,0.0564999
3809.29263,0.0563815
3808.32825,0.0562439
3807.36387,0.0561142
3806.39949,0.0560330
3805.43512,0.0559947
3804.47074,0.0560094
3803.50636,0.0560718
3802.54198,0.0561649
3801.57760,0.0562792
3800.61323,0.0563595
3799.64885,0.0564602
3798.68447,0.0565365
3797.72009,0.0565354
3796.75571,0.0564982
3795.79134,0.0564026
3794.82696,0.0562853
3793.86258,0.0562096
3792.89820,0.0561587
3791.93382,0.0560701
3790.96945,0.0559812
3790.00507,0.0559035
3789.04069,0.0558203
3788.07631,0.0557939
3787.11194,0.0557961
3786.14756,0.0557972
3785.18318,0.0557951
3784.21880,0.0557862
3783.25442,0.0558136
3782.29005,0.0558796
3781.32567,0.0558799
3780.36129,0.0558143
3779.39691,0.0558149
3778.43253,0.0558412
3777.46816,0.0558580
3776.50378,0.0558651
3775.53940,0.0558169
3774.57502,0.0558032
3773.61065,0.0558360
3772.64627,0.0557992
3771.68189,0.0556995
3770.71751,0.0556249
3769.75313,0.0555783
3768.78876,0.0555727
3767.82438,0.0555879
3766.86000,0.0555725
3765.89562,0.0555482
3764.93124,0.0555147
3763.96687,0.0555310
3763.00249,0.0556088
3762.03811,0.0556385
3761.07373,0.0555899
3760.10935,0.0555507
3759.14498,0.0555596
3758.18060,0.0555232
3757.21622,0.0554519
3756.25184,0.0554123
3755.28747,0.0554129
3754.32309,0.0553728
3753.35871,0.0552997
3752.39433,0.0552782
3751.42995,0.0552097
3750.46558,0.0551088
3749.50120,0.0550438
3748.53682,0.0549961
3747.57244,0.0549959
3746.60806,0.0550144
3745.64369,0.0550560
3744.67931,0.0551218
3743.71493,0.0551948
3742.75055,0.0552342
3741.78618,0.0552512
3740.82180,0.0552921
3739.85742,0.0553232
3738.89304,0.0553535
3737.92866,0.0553665
3736.96429,0.0553778
3735.99991,0.0553911
3735.03553,0.0553305
3734.07115,0.0551903
3733.10677,0.0549976
3732.14240,0.0548284
3731.17802,0.0546794
3730.21364,0.0545321
3729.24926,0.0544552
3728.28488,0.0544850
3727.32051,0.0546008
3726.35613,0.0547326
3725.39175,0.0548523
3724.42737,0.0549158
3723.46300,0.0549470
3722.49862,0.0549540
3721.53424,0.0548542
3720.56986,0.0547001
3719.60548,0.0545572
3718.64111,0.0544708
3717.67673,0.0544467
3716.71235,0.0544446
3715.74797,0.0544815
3714.78359,0.0545386
3713.81922,0.0545830
3712.85484,0.0546002
3711.89046,0.0545879
3710.92608,0.0545224
3709.96171,0.0544317
3708.99733,0.0543847
3708.03295,0.0544034
3707.06857,0.0545111
3706.10419,0.0545959
3705.13982,0.0545897
3704.17544,0.0545855
3703.21106,0.0545586
3702.24668,0.0545161
3701.28230,0.0545166
3700.31793,0.0544897
3699.35355,0.0544493
3698.38917,0.0544829
3697.42479,0.0545590
3696.46041,0.0546366
3695.49604,0.0547027
3694.53166,0.0547180
3693.56728,0.0547193
3692.60290,0.0547361
3691.63853,0.0547001
3690.67415,0.0546388
3689.70977,0.0545991
3688.74539,0.0545236
3687.78101,0.0544876
3686.81664,0.0545720
3685.85226,0.0546965
3684.88788,0.0547855
3683.92350,0.0548348
3682.95912,0.0548795
3681.99475,0.0549719
3681.03037,0.0551290
3680.06599,0.0552344
3679.10161,0.0552153
3678.13724,0.0551256
3677.17286,0.0550683
3676.20848,0.0551843
3675.24410,0.0554127
3674.27972,0.0556103
3673.31535,0.0557393
3672.35097,0.0557953
3671.38659,0.0558560
3670.42221,0.0560003
3669.45783,0.0561801
3668.49346,0.0563179
3667.52908,0.0564348
3666.56470,0.0565437
3665.60032,0.0567174
3664.63594,0.0569662
3663.67157,0.0571277
3662.70719,0.0572627
3661.74281,0.0574223
3660.77843,0.0575432
3659.81406,0.0576969
3658.84968,0.0578436
3657.88530,0.0579629
3656.92092,0.0581818
3655.95654,0.0584818
3654.99217,0.0587740
3654.02779,0.0591127
3653.06341,0.0594641
3652.09903,0.0597739
3651.13465,0.0601641
3650.17028,0.0605735
3649.20590,0.0608755
3648.24152,0.0610940
3647.27714,0.0612359
3646.31276,0.0613923
3645.34839,0.0615700
3644.38401,0.0616644
3643.41963,0.0617490
3642.45525,0.0619263
3641.49088,0.0621565
3640.52650,0.0624107
3639.56212,0.0627148
3638.59774,0.0629918
3637.63336,0.0631674
3636.66899,0.0632989
3635.70461,0.0634371
3634.74023,0.0636001
3633.77585,0.0637384
3632.81147,0.0638554
3631.84710,0.0640742
3630.88272,0.0643812
3629.91834,0.0647122
3628.95396,0.0650053
3627.98959,0.0651902
3627.02521,0.0652870
3626.06083,0.0653215
3625.09645,0.0653349
3624.13207,0.0653377
3623.16770,0.0653330
3622.20332,0.0653254
3621.23894,0.0653143
3620.27456,0.0653910
3619.31018,0.0655622
3618.34581,0.0657636
3617.38143,0.0659227
3616.41705,0.0660041
3615.45267,0.0660506
3614.48829,0.0660734
3613.52392,0.0661496
3612.55954,0.0662777
3611.59516,0.0663155
3610.63078,0.0662597
3609.66641,0.0662267
3608.70203,0.0662498
3607.73765,0.0662858
3606.77327,0.0663326
3605.80889,0.0663512
3604.84452,0.0663284
3603.88014,0.0662783
3602.91576,0.0662132
3601.95138,0.0662173
3600.98700,0.0662215
3600.02263,0.0661246
3599.05825,0.0660305
3598.09387,0.0660398
3597.12949,0.0660842
3596.16512,0.0660944
3595.20074,0.0661128
3594.23636,0.0661389
3593.27198,0.0661647
3592.30760,0.0661578
3591.34323,0.0661324
3590.37885,0.0661983
3589.41447,0.0662555
3588.45009,0.0662009
3587.48571,0.0661529
3586.52134,0.0661874
3585.55696,0.0662383
3584.59258,0.0662751
3583.62820,0.0663420
3582.66382,0.0663777
3581.69945,0.0663692
3580.73507,0.0664120
3579.77069,0.0665409
3578.80631,0.0667233
3577.84194,0.0668113
3576.87756,0.0667539
3575.91318,0.0666816
3574.94880,0.0666329
3573.98442,0.0666270
3573.02005,0.0667176
3572.05567,0.0668039
3571.09129,0.0667772
3570.12691,0.0667402
3569.16253,0.0667812
3568.19816,0.0668518
3567.23378,0.0669271
3566.26940,0.0669507
3565.30502,0.0668968
3564.34065,0.0668759
3563.37627,0.0669401
3562.41189,0.0670600
3561.44751,0.0671937
3560.48313,0.0672764
3559.51876,0.0673408
3558.55438,0.0674592
3557.59000,0.0675915
3556.62562,0.0677131
3555.66124,0.0678460
3554.69687,0.0679464
3553.73249,0.0680395
3552.76811,0.0681933
3551.80373,0.0683303
3550.83935,0.0684231
3549.87498,0.0685700
3548.91060,0.0687514
3547.94622,0.0689101
3546.98184,0.0690725
3546.01747,0.0692130
3545.05309,0.0693145
3544.08871,0.0694409
3543.12433,0.0696009
3542.15995,0.0697300
3541.19558,0.0697902
3540.23120,0.0698336
3539.26682,0.0699666
3538.30244,0.0701949
3537.33806,0.0703981
3536.37369,0.0705263
3535.40931,0.0706439
3534.44493,0.0707868
3533.48055,0.0709363
3532.51618,0.0711103
3531.55180,0.0713278
3530.58742,0.0714957
3529.62304,0.0716171
3528.65866,0.0717874
3527.69429,0.0719550
3526.72991,0.0720795
3525.76553,0.0721575
3524.80115,0.0721848
3523.83677,0.0722237
3522.87240,0.0723143
3521.90802,0.0724540
3520.94364,0.0726448
3519.97926,0.0728941
3519.01488,0.0731413
3518.05051,0.0733609
3517.08613,0.0735623
3516.12175,0.0736896
3515.15737,0.0737736
3514.19300,0.0738583
3513.22862,0.0739386
3512.26424,0.0740108
3511.29986,0.0740686
3510.33548,0.0741722
3509.37111,0.0743411
3508.40673,0.0744774
3507.44235,0.0745134
3506.47797,0.0745346
3505.51359,0.0746281
3504.54922,0.0747432
3503.58484,0.0748381
3502.62046,0.0749712
3501.65608,0.0751537
3500.69171,0.0752858
3499.72733,0.0753926
3498.76295,0.0755717
3497.79857,0.0757567
3496.83419,0.0758385
3495.86982,0.0758476
3494.90544,0.0758789
3493.94106,0.0759251
3492.97668,0.0759313
3492.01230,0.0759027
3491.04793,0.0759662
3490.08355,0.0761339
3489.11917,0.0762557
3488.15479,0.0763988
3487.19041,0.0766049
3486.22604,0.0767930
3485.26166,0.0769723
3484.29728,0.0771093
3483.33290,0.0771784
3482.36853,0.0772270
3481.40415,0.0773020
3480.43977,0.0773739
3479.47539,0.0774411
3478.51101,0.0774990
3477.54664,0.0775193
3476.58226,0.0775793
3475.61788,0.0776538
3474.65350,0.0777238
3473.68912,0.0777981
3472.72475,0.0778255
3471.76037,0.0779043
3470.79599,0.0780822
3469.83161,0.0782869
3468.86724,0.0784294
3467.90286,0.0784729
3466.93848,0.0784865
3465.97410,0.0785406
3465.00972,0.0786344
3464.04535,0.0786586
3463.08097,0.0786090
3462.11659,0.0785601
3461.15221,0.0785438
3460.18783,0.0786197
3459.22346,0.0787251
3458.25908,0.0787872
3457.29470,0.0788152
3456.33032,0.0787895
3455.36594,0.0787511
3454.40157,0.0788081
3453.43719,0.0789368
3452.47281,0.0790175
3451.50843,0.0791054
3450.54406,0.0792642
3449.57968,0.0794338
3448.61530,0.0795934
3447.65092,0.0797245
3446.68654,0.0797981
3445.72217,0.0797952
3444.75779,0.0797246
3443.79341,0.0796408
3442.82903,0.0796118
3441.86465,0.0796273
3440.90028,0.0796134
3439.93590,0.0796135
3438.97152,0.0796660
3438.00714,0.0797375
3437.04276,0.0798385
3436.07839,0.0799439
3435.11401,0.0800067
3434.14963,0.0800286
3433.18525,0.0800442
3432.22088,0.0800450
3431.25650,0.0799899
3430.29212,0.0799068
3429.32774,0.0798408
3428.36336,0.0798023
3427.39899,0.0798111
3426.43461,0.0799105
3425.47023,0.0800615
3424.50585,0.0801876
3423.54147,0.0803071
3422.57710,0.0804117
3421.61272,0.0804801
3420.64834,0.0804917
3419.68396,0.0804072
3418.71959,0.0803207
3417.75521,0.0802595
3416.79083,0.0801505
3415.82645,0.0800935
3414.86207,0.0801493
3413.89770,0.0802039
3412.93332,0.0802368
3411.96894,0.0803259
3411.00456,0.0804430
3410.04018,0.0805181
3409.07581,0.0805485
3408.11143,0.0805736
3407.14705,0.0806526
3406.18267,0.0807231
3405.21829,0.0807189
3404.25392,0.0807348
3403.28954,0.0807530
3402.32516,0.0807004
3401.36078,0.0806383
3400.39641,0.0806170
3399.43203,0.0806170
3398.46765,0.0805837
3397.50327,0.0805388
3396.53889,0.0805327
3395.57452,0.0805188
3394.61014,0.0804376
3393.64576,0.0802992
3392.68138,0.0801882
3391.71700,0.0801133
3390.75263,0.0800406
3389.78825,0.0800099
3388.82387,0.0800361
3387.85949,0.0801298
3386.89512,0.0802588
3385.93074,0.0803855
3384.96636,0.0805271
3384.00198,0.0806285
3383.03760,0.0806610
3382.07323,0.0806743
3381.10885,0.0806880
3380.14447,0.0806822
3379.18009,0.0806473
3378.21571,0.0806062
3377.25134,0.0805760
3376.28696,0.0805907
3375.32258,0.0806104
3374.35820,0.0805549
3373.39382,0.0805040
3372.42945,0.0804996
3371.46507,0.0804680
3370.50069,0.0804273
3369.53631,0.0804095
3368.57194,0.0803931
3367.60756,0.0803571
3366.64318,0.0803222
3365.67880,0.0803679
3364.71442,0.0804693
3363.75005,0.0804808
3362.78567,0.0803985
3361.82129,0.0803645
3360.85691,0.0803723
3359.89253,0.0803153
3358.92816,0.0802435
3357.96378,0.0802199
3356.99940,0.0802016
3356.03502,0.0801342
3355.07065,0.0800445
3354.10627,0.0800151
3353.14189,0.0799779
3352.17751,0.0798727
3351.21313,0.0797779
3350.24876,0.0797217
3349.28438,0.0796861
3348.32000,0.0796603
3347.35562,0.0797010
3346.39124,0.0798118
3345.42687,0.0798890
3344.46249,0.0799289
3343.49811,0.0799774
3342.53373,0.0800293
3341.56935,0.0800452
3340.60498,0.0800346
3339.64060,0.0800239
3338.67622,0.0799739
3337.71184,0.0799040
3336.74747,0.0798764
3335.78309,0.0798775
3334.81871,0.0798386
3333.85433,0.0797567
3332.88995,0.0796842
3331.92558,0.0796145
3330.96120,0.0795227
3329.99682,0.0794249
3329.03244,0.0793420
3328.06806,0.0792302
3327.10369,0.0791014
3326.13931,0.0790685
3325.17493,0.0791478
3324.21055,0.0792254
3323.24618,0.0792380
3322.28180,0.0792315
3321.31742,0.0791885
3320.35304,0.0791024
3319.38866,0.0790140
3318.42429,0.0789237
3317.45991,0.0788339
3316.49553,0.0786783
3315.53115,0.0785194
3314.56677,0.0784936
3313.60240,0.0785466
3312.63802,0.0785835
3311.67364,0.0785776
3310.70926,0.0785855
3309.74488,0.0785897
3308.78051,0.0785624
3307.81613,0.0785525
3306.85175,0.0785492
3305.88737,0.0785266
3304.92300,0.0784082
3303.95862,0.0782458
3302.99424,0.0781429
3302.02986,0.0780776
3301.06548,0.0780583
3300.10111,0.0780543
3299.13673,0.0780743
3298.17235,0.0781088
3297.20797,0.0781425
3296.24359,0.0782148
3295.27922,0.0782453
3294.31484,0.0782233
3293.35046,0.0781551
3292.38608,0.0780222
3291.42171,0.0778646
3290.45733,0.0777256
3289.49295,0.0776591
3288.52857,0.0775907
3287.56419,0.0775063
3286.59982,0.0774673
3285.63544,0.0774587
3284.67106,0.0774462
3283.70668,0.0773714
3282.74230,0.0773193
3281.77793,0.0773085
3280.81355,0.0772597
3279.84917,0.0772191
3278.88479,0.0771831
3277.92041,0.0771595
3276.95604,0.0771485
3275.99166,0.0771249
3275.02728,0.0771077
3274.06290,0.0770681
3273.09853,0.0769726
3272.13415,0.0768478
3271.16977,0.0767939
3270.20539,0.0768057
3269.24101,0.0768185
3268.27664,0.0768528
3267.31226,0.0768792
3266.34788,0.0768969
3265.38350,0.0769209
3264.41912,0.0769258
3263.45475,0.0768870
3262.49037,0.0767708
3261.52599,0.0766414
3260.56161,0.0765832
3259.59724,0.0765684
3258.63286,0.0765516
3257.66848,0.0765262
3256.70410,0.0764710
3255.73972,0.0763746
3254.77535,0.0762659
3253.81097,0.0761720
3252.84659,0.0761166
3251.88221,0.0760989
3250.91783,0.0761207
3249.95346,0.0762132
3248.98908,0.0763361
3248.02470,0.0763982
3247.06032,0.0763979
3246.09594,0.0763562
3245.13157,0.0762670
3244.16719,0.0761659
3243.20281,0.0760439
3242.23843,0.0759002
3241.27406,0.0757904
3240.30968,0.0757324
3239.34530,0.0757081
3238.38092,0.0756688
3237.41654,0.0756277
3236.45217,0.0755960
3235.48779,0.0755465
3234.52341,0.0755120
3233.55903,0.0755098
3232.59465,0.0755146
3231.63028,0.0755045
3230.66590,0.0755064
3229.70152,0.0755181
3228.73714,0.0755231
3227.77276,0.0755388
3226.80839,0.0755489
3225.84401,0.0755723
3224.87963,0.0755915
3223.91525,0.0755729
3222.95088,0.0755284
3221.98650,0.0754514
3221.02212,0.0753766
3220.05774,0.0753259
3219.09336,0.0752663
3218.12899,0.0751787
3217.16461,0.0751059
3216.20023,0.0750470
3215.23585,0.0749621
3214.27147,0.0748762
3213.30710,0.0747957
3212.34272,0.0747100
3211.37834,0.0746061
3210.41396,0.0745292
3209.44959,0.0744975
3208.48521,0.0744558
3207.52083,0.0744225
3206.55645,0.0743968
3205.59207,0.0743895
3204.62770,0.0744080
3203.66332,0.0744166
3202.69894,0.0744292
3201.73456,0.0744624
3200.77018,0.0744946
3199.80581,0.0745045
3198.84143,0.0745318
3197.87705,0.0745375
3196.91267,0.0744782
3195.94829,0.0743810
3194.98392,0.0742518
3194.01954,0.0741456
3193.05516,0.0740460
3192.09078,0.0739451
3191.12641,0.0738763
3190.16203,0.0738366
3189.19765,0.0738238
3188.23327,0.0737978
3187.26889,0.0737877
3186.30452,0.0737695
3185.34014,0.0736922
3184.37576,0.0735955
3183.41138,0.0735093
3182.44700,0.0734461
3181.48263,0.0733909
3180.51825,0.0733709
3179.55387,0.0733641
3178.58949,0.0733397
3177.62512,0.0732965
3176.66074,0.0732171
3175.69636,0.0731613
3174.73198,0.0731013
3173.76760,0.0730268
3172.80323,0.0729763
3171.83885,0.0729182
3170.87447,0.0728698
3169.91009,0.0728290
3168.94571,0.0727700
3167.98134,0.0726664
3167.01696,0.0725158
3166.05258,0.0723400
3165.08820,0.0721806
3164.12382,0.0720855
3163.15945,0.0720306
3162.19507,0.0720210
3161.23069,0.0720334
3160.26631,0.0720323
3159.30194,0.0720589
3158.33756,0.0721189
3157.37318,0.0721737
3156.40880,0.0721642
3155.44442,0.0720897
3154.48005,0.0719893
3153.51567,0.0718816
3152.55129,0.0717879
3151.58691,0.0717153
3150.62253,0.0716525
3149.65816,0.0715735
3148.69378,0.0714914
3147.72940,0.0714261
3146.76502,0.0713888
3145.80065,0.0713630
3144.83627,0.0712934
3143.87189,0.0712003
3142.90751,0.0711130
3141.94313,0.0710419
3140.97876,0.0710169
3140.01438,0.0710374
3139.05000,0.0710673
3138.08562,0.0710805
3137.12124,0.0710771
3136.15687,0.0710575
3135.19249,0.0710573
3134.22811,0.0710547
3133.26373,0.0709912
3132.29935,0.0708823
3131.33498,0.0707309
3130.37060,0.0706024
3129.40622,0.0705355
3128.44184,0.0704595
3127.47747,0.0703996
3126.51309,0.0703650
3125.54871,0.0703161
3124.58433,0.0702873
3123.61995,0.0702620
3122.65558,0.0702071
3121.69120,0.0701522
3120.72682,0.0700953
3119.76244,0.0700404
3118.79806,0.0700044
3117.83369,0.0699592
3116.86931,0.0699074
3115.90493,0.0698851
3114.94055,0.0698708
3113.97618,0.0698183
3113.01180,0.0697411
3112.04742,0.0696697
3111.08304,0.0696073
3110.11866,0.0695352
3109.15429,0.0694494
3108.18991,0.0693787
3107.22553,0.0693040
3106.26115,0.0692314
3105.29677,0.0691852
3104.33240,0.0691295
3103.36802,0.0690589
3102.40364,0.0689564
3101.43926,0.0688440
3100.47488,0.0687600
3099.51051,0.0686481
3098.54613,0.0685352
3097.58175,0.0684767
3096.61737,0.0684295
3095.65300,0.0683904
3094.68862,0.0683822
3093.72424,0.0683613
3092.75986,0.0683175
3091.79548,0.0682664
3090.83111,0.0681607
3089.86673,0.0680182
3088.90235,0.0679111
3087.93797,0.0678642
3086.97359,0.0678583
3086.00922,0.0678328
3085.04484,0.0677892
3084.08046,0.0677757
3083.11608,0.0677785
3082.15171,0.0677688
3081.18733,0.0677565
3080.22295,0.0677167
3079.25857,0.0675952
3078.29419,0.0674585
3077.32982,0.0673923
3076.36544,0.0673321
3075.40106,0.0672113
3074.43668,0.0670864
3073.47230,0.0670026
3072.50793,0.0669213
3071.54355,0.0668449
3070.57917,0.0667928
3069.61479,0.0667337
3068.65041,0.0666879
3067.68604,0.0666837
3066.72166,0.0666950
3065.75728,0.0667138
3064.79290,0.0667132
3063.82853,0.0666838
3062.86415,0.0666563
3061.89977,0.0665888
3060.93539,0.0664723
3059.97101,0.0663549
3059.00664,0.0662230
3058.04226,0.0660883
3057.07788,0.0659929
3056.11350,0.0659084
3055.14912,0.0658096
3054.18475,0.0657163
3053.22037,0.0656148
3052.25599,0.0655107
3051.29161,0.0654276
3050.32724,0.0653320
3049.36286,0.0652176
3048.39848,0.0651219
3047.43410,0.0650705
3046.46972,0.0650454
3045.50535,0.0650049
3044.54097,0.0649542
3043.57659,0.0649051
3042.61221,0.0648438
3041.64783,0.0647783
3040.68346,0.0647423
3039.71908,0.0647228
3038.75470,0.0646743
3037.79032,0.0646001
3036.82594,0.0645332
3035.86157,0.0644826
3034.89719,0.0644247
3033.93281,0.0643472
3032.96843,0.0642523
3032.00406,0.0641512
3031.03968,0.0640593
3030.07530,0.0639769
3029.11092,0.0639058
3028.14654,0.0638311
3027.18217,0.0637570
3026.21779,0.0637068
3025.25341,0.0636607
3024.28903,0.0635978
3023.32465,0.0635268
3022.36028,0.0634384
3021.39590,0.0633465
3020.43152,0.0633010
3019.46714,0.0632607
3018.50276,0.0632013
3017.53839,0.0631367
3016.57401,0.0630386
3015.60963,0.0629420
3014.64525,0.0628603
3013.68088,0.0627833
3012.71650,0.0627095
3011.75212,0.0626480
3010.78774,0.0626334
3009.82336,0.0626322
3008.85899,0.0626132
3007.89461,0.0625633
3006.93023,0.0625251
3005.96585,0.0625160
3005.00147,0.0624628
3004.03710,0.0623804
3003.07272,0.0622893
3002.10834,0.0621951
3001.14396,0.0620977
3000.17959,0.0620070
2999.21521,0.0619348
2998.25083,0.0618018
2997.28645,0.0616403
2996.32207,0.0615352
2995.35770,0.0615004
2994.39332,0.0614989
2993.42894,0.0614431
2992.46456,0.0613502
2991.50018,0.0612639
2990.53581,0.0611909
2989.57143,0.0611362
2988.60705,0.0610836
2987.64267,0.0610171
2986.67829,0.0609116
2985.71392,0.0608099
2984.74954,0.0607448
2983.78516,0.0606817
2982.82078,0.0606207
2981.85641,0.0605488
2980.89203,0.0604658
2979.92765,0.0604220
2978.96327,0.0604161
2977.99889,0.0604038
2977.03452,0.0603734
2976.07014,0.0603335
2975.10576,0.0602844
2974.14138,0.0602302
2973.17700,0.0601775
2972.21263,0.0601221
2971.24825,0.0600767
2970.28387,0.0600384
2969.31949,0.0599727
2968.35512,0.0598948
2967.39074,0.0598274
2966.42636,0.0597794
2965.46198,0.0597674
2964.49760,0.0597736
2963.53323,0.0597808
2962.56885,0.0597903
2961.60447,0.0598047
2960.64009,0.0597890
2959.67571,0.0597206
2958.71134,0.0596442
2957.74696,0.0595552
2956.78258,0.0594350
2955.81820,0.0593210
2954.85382,0.0592363
2953.88945,0.0591702
2952.92507,0.0591115
2951.96069,0.0590776
2950.99631,0.0590738
2950.03194,0.0590800
2949.06756,0.0590610
2948.10318,0.0590202
2947.13880,0.0590170
2946.17442,0.0590156
2945.21005,0.0589481
2944.24567,0.0588596
2943.28129,0.0588006
2942.31691,0.0587430
2941.35253,0.0586654
2940.38816,0.0586233
2939.42378,0.0586461
2938.45940,0.0586996
2937.49502,0.0587344
2936.53065,0.0587525
2935.56627,0.0588061
2934.60189,0.0588219
2933.63751,0.0587347
2932.67313,0.0586365
2931.70876,0.0585790
2930.74438,0.0585328
2929.78000,0.0584940
2928.81562,0.0585034
2927.85124,0.0585546
2926.88687,0.0585992
2925.92249,0.0586168
2924.95811,0.0586235
2923.99373,0.0586350
2923.02935,0.0586017
2922.06498,0.0585139
2921.10060,0.0584169
2920.13622,0.0583275
2919.17184,0.0582444
2918.20747,0.0581570
2917.24309,0.0580662
2916.27871,0.0579588
2915.31433,0.0578511
2914.34995,0.0577592
2913.38558,0.0576723
2912.42120,0.0576045
2911.45682,0.0575428
2910.49244,0.0574815
2909.52806,0.0574005
2908.56369,0.0572968
2907.59931,0.0572150
2906.63493,0.0571562
2905.67055,0.0571179
2904.70618,0.0570947
2903.74180,0.0570956
2902.77742,0.0571178
2901.81304,0.0571359
2900.84866,0.0571420
2899.88429,0.0571092
2898.91991,0.0570691
2897.95553,0.0570363
2896.99115,0.0569779
2896.02677,0.0569184
2895.06240,0.0568699
2894.09802,0.0568300
2893.13364,0.0567990
2892.16926,0.0567694
2891.20488,0.0567325
2890.24051,0.0566807
2889.27613,0.0566122
2888.31175,0.0565320
2887.34737,0.0564776
2886.38300,0.0564364
2885.41862,0.0563779
2884.45424,0.0563379
2883.48986,0.0563149
2882.52548,0.0562968
2881.56111,0.0563018
2880.59673,0.0563225
2879.63235,0.0563582
2878.66797,0.0563993
2877.70359,0.0564225
2876.73922,0.0564225
2875.77484,0.0563854
2874.81046,0.0563093
2873.84608,0.0562326
2872.88171,0.0561697
2871.91733,0.0561004
2870.95295,0.0560374
2869.98857,0.0559912
2869.02419,0.0559684
2868.05982,0.0559902
2867.09544,0.0560222
2866.13106,0.0560413
2865.16668,0.0560523
2864.20230,0.0560435
2863.23793,0.0560532
2862.27355,0.0560986
2861.30917,0.0561396
2860.34479,0.0561645
2859.38041,0.0561642
2858.41604,0.0561267
2857.45166,0.0560812
2856.48728,0.0560476
2855.52290,0.0560135
2854.55853,0.0559810
2853.59415,0.0559519
2852.62977,0.0559416
2851.66539,0.0559703
2850.70101,0.0560017
2849.73664,0.0560005
2848.77226,0.0559608
2847.80788,0.0558665
2846.84350,0.0557414
2845.87912,0.0556321
2844.91475,0.0555445
2843.95037,0.0554831
2842.98599,0.0554501
2842.02161,0.0554366
2841.05724,0.0554459
2840.09286,0.0554710
2839.12848,0.0554968
2838.16410,0.0555130
2837.19972,0.0555089
2836.23535,0.0554911
2835.27097,0.0554821
2834.30659,0.0554531
2833.34221,0.0553917
2832.37783,0.0553401
2831.41346,0.0552742
2830.44908,0.0551874
2829.48470,0.0551141
2828.52032,0.0550489
2827.55594,0.0549864
2826.59157,0.0549338
2825.62719,0.0549169
2824.66281,0.0549324
2823.69843,0.0549421
2822.73406,0.0549157
2821.76968,0.0548682
2820.80530,0.0548237
2819.84092,0.0547558
2818.87654,0.0547027
2817.91217,0.0546921
2816.94779,0.0546764
2815.98341,0.0546705
2815.01903,0.0546991
2814.05465,0.0547342
2813.09028,0.0547455
2812.12590,0.0547449
2811.16152,0.0547255
2810.19714,0.0546586
2809.23276,0.0545724
2808.26839,0.0545151
2807.30401,0.0544962
2806.33963,0.0544786
2805.37525,0.0544705
2804.41088,0.0544975
2803.44650,0.0545121
2802.48212,0.0544827
2801.51774,0.0544401
2800.55336,0.0544058
2799.58899,0.0543325
2798.62461,0.0542163
2797.66023,0.0541343
2796.69585,0.0541015
2795.73147,0.0540840
2794.76710,0.0540641
2793.80272,0.0540580
2792.83834,0.0540788
2791.87396,0.0540913
2790.90959,0.0540796
2789.94521,0.0540589
2788.98083,0.0540340
2788.01645,0.0539892
2787.05207,0.0539319
2786.08770,0.0538931
2785.12332,0.0538610
2784.15894,0.0538246
2783.19456,0.0537801
2782.23018,0.0537300
2781.26581,0.0537197
2780.30143,0.0537399
2779.33705,0.0537503
2778.37267,0.0537501
2777.40829,0.0537481
2776.44392,0.0537457
2775.47954,0.0537341
2774.51516,0.0537323
2773.55078,0.0537312
2772.58641,0.0536877
2771.62203,0.0536006
2770.65765,0.0535037
2769.69327,0.0534386
2768.72889,0.0533966
2767.76452,0.0533484
2766.80014,0.0532849
2765.83576,0.0532118
2764.87138,0.0531443
2763.90700,0.0530954
2762.94263,0.0530792
2761.97825,0.0530557
2761.01387,0.0529949
2760.04949,0.0529276
2759.08512,0.0528849
2758.12074,0.0528802
2757.15636,0.0528821
2756.19198,0.0528748
2755.22760,0.0528666
2754.26323,0.0528513
2753.29885,0.0528277
2752.33447,0.0528057
2751.37009,0.0527944
2750.40571,0.0527688
2749.44134,0.0527286
2748.47696,0.0527033
2747.51258,0.0526793
2746.54820,0.0526388
2745.58382,0.0525955
2744.61945,0.0525555
2743.65507,0.0525087
2742.69069,0.0524608
2741.72631,0.0524252
2740.76194,0.0524097
2739.79756,0.0523994
2738.83318,0.0523664
2737.86880,0.0523106
2736.90442,0.0522441
2735.94005,0.0521683
2734.97567,0.0520885
2734.01129,0.0520285
2733.04691,0.0519840
2732.08253,0.0519398
2731.11816,0.0519051
2730.15378,0.0518817
2729.18940,0.0518688
2728.22502,0.0518520
2727.26065,0.0518222
2726.29627,0.0517784
2725.33189,0.0517285
2724.36751,0.0516965
2723.40313,0.0516777
2722.43876,0.0516571
2721.47438,0.0516344
2720.51000,0.0516130
2719.54562,0.0515748
2718.58124,0.0515146
2717.61687,0.0514530
2716.65249,0.0514076
2715.68811,0.0513787
2714.72373,0.0513345
2713.75935,0.0512874
2712.79498,0.0512686
2711.83060,0.0512540
2710.86622,0.0512070
2709.90184,0.0511413
2708.93747,0.0511078
2707.97309,0.0510867
2707.00871,0.0510635
2706.04433,0.0510536
2705.07995,0.0510432
2704.11558,0.0510220
2703.15120,0.0509798
2702.18682,0.0509520
2701.22244,0.0509352
2700.25806,0.0508851
2699.29369,0.0508084
2698.32931,0.0507270
2697.36493,0.0506815
2696.40055,0.0506663
2695.43618,0.0506596
2694.47180,0.0506568
2693.50742,0.0506302
2692.54304,0.0505957
2691.57866,0.0505745
2690.61429,0.0505537
2689.64991,0.0505149
2688.68553,0.0504684
2687.72115,0.0504312
2686.75677,0.0503842
2685.79240,0.0503429
2684.82802,0.0503063
2683.86364,0.0502382
2682.89926,0.0501628
2681.93488,0.0500914
2680.97051,0.0500202
2680.00613,0.0499653
2679.04175,0.0499214
2678.07737,0.0498961
2677.11300,0.0498864
2676.14862,0.0498722
2675.18424,0.0498606
2674.21986,0.0498570
2673.25548,0.0498254
2672.29111,0.0497485
2671.32673,0.0496764
2670.36235,0.0496133
2669.39797,0.0495532
2668.43359,0.0495206
2667.46922,0.0494954
2666.50484,0.0494706
2665.54046,0.0494391
2664.57608,0.0494113
2663.61171,0.0494095
2662.64733,0.0493977
2661.68295,0.0493524
2660.71857,0.0492927
2659.75419,0.0492406
2658.78982,0.0491813
2657.82544,0.0491040
2656.86106,0.0490135
2655.89668,0.0489202
2654.93230,0.0488411
2653.96793,0.0487558
2653.00355,0.0486773
2652.03917,0.0486207
2651.07479,0.0485609
2650.11041,0.0485000
2649.14604,0.0484533
2648.18166,0.0484094
2647.21728,0.0483422
2646.25290,0.0482688
2645.28853,0.0482047
2644.32415,0.0481533
2643.35977,0.0481036
2642.39539,0.0480388
2641.43101,0.0479868
2640.46664,0.0479372
2639.50226,0.0478656
2638.53788,0.0477717
2637.57350,0.0476595
2636.60912,0.0475254
2635.64475,0.0473832
2634.68037,0.0472768
2633.71599,0.0471973
2632.75161,0.0471418
2631.78724,0.0471196
2630.82286,0.0471352
2629.85848,0.0471622
2628.89410,0.0471422
2627.92972,0.0471108
2626.96535,0.0470854
2626.00097,0.0470300
2625.03659,0.0469433
2624.07221,0.0468668
2623.10783,0.0468301
2622.14346,0.0468197
2621.17908,0.0468429
2620.21470,0.0468705
2619.25032,0.0468895
2618.28594,0.0468964
2617.32157,0.0468665
2616.35719,0.0468247
2615.39281,0.0467591
2614.42843,0.0466582
2613.46406,0.0465559
2612.49968,0.0464809
2611.53530,0.0464199
2610.57092,0.0463498
2609.60654,0.0462816
2608.64217,0.0462300
2607.67779,0.0462025
2606.71341,0.0461721
2605.74903,0.0461179
2604.78465,0.0460242
2603.82028,0.0459150
2602.85590,0.0458656
2601.89152,0.0458824
2600.92714,0.0459232
2599.96276,0.0459511
2598.99839,0.0459702
2598.03401,0.0460040
2597.06963,0.0460464
2596.10525,0.0460372
2595.14088,0.0459535
2594.17650,0.0458478
2593.21212,0.0457134
2592.24774,0.0455904
2591.28336,0.0455155
2590.31899,0.0454431
2589.35461,0.0453871
2588.39023,0.0453569
2587.42585,0.0453404
2586.46147,0.0453448
2585.49710,0.0453553
2584.53272,0.0453434
2583.56834,0.0453426
2582.60396,0.0453348
2581.63959,0.0452667
2580.67521,0.0451946
2579.71083,0.0451336
2578.74645,0.0451064
2577.78207,0.0451220
2576.81770,0.0451036
2575.85332,0.0450255
2574.88894,0.0449411
2573.92456,0.0448858
2572.96018,0.0447964
2571.99581,0.0446857
2571.03143,0.0445543
2570.06705,0.0443987
2569.10267,0.0443218
2568.13829,0.0443247
2567.17392,0.0443963
2566.20954,0.0444743
2565.24516,0.0444770
2564.28078,0.0444497
2563.31641,0.0444695
2562.35203,0.0445306
2561.38765,0.0445272
2560.42327,0.0445368
2559.45889,0.0445988
2558.49452,0.0445908
2557.53014,0.0445555
2556.56576,0.0445261
2555.60138,0.0444588
2554.63700,0.0443233
2553.67263,0.0441530
2552.70825,0.0440126
2551.74387,0.0439037
2550.77949,0.0438055
2549.81512,0.0437210
2548.85074,0.0437587
2547.88636,0.0438561
2546.92198,0.0438237
2545.95760,0.0437625
2544.99323,0.0437603
2544.02885,0.0437396
2543.06447,0.0437026
2542.10009,0.0436711
2541.13571,0.0435974
2540.17134,0.0434505
2539.20696,0.0433173
2538.24258,0.0432777
2537.27820,0.0432973
2536.31382,0.0433089
2535.34945,0.0432903
2534.38507,0.0433318
2533.42069,0.0434642
2532.45631,0.0435799
2531.49194,0.0436514
2530.52756,0.0436780
2529.56318,0.0436106
2528.59880,0.0434584
2527.63442,0.0432929
2526.67005,0.0431326
2525.70567,0.0429568
2524.74129,0.0428196
2523.77691,0.0427406
2522.81253,0.0427284
2521.84816,0.0427729
2520.88378,0.0427969
2519.91940,0.0428444
2518.95502,0.0428926
2517.99065,0.0428605
2517.02627,0.0428203
2516.06189,0.0427764
2515.09751,0.0426865
2514.13313,0.0425765
2513.16876,0.0424907
2512.20438,0.0424631
2511.24000,0.0424748
2510.27562,0.0424745
2509.31124,0.0424519
2508.34687,0.0424578
2507.38249,0.0424876
2506.41811,0.0425216
2505.45373,0.0425763
2504.48935,0.0426147
2503.52498,0.0425719
2502.56060,0.0424269
2501.59622,0.0423001
2500.63184,0.0422563
2499.66747,0.0421940
2498.70309,0.0421147
2497.73871,0.0420694
2496.77433,0.0420993
2495.80995,0.0421935
2494.84558,0.0422183
2493.88120,0.0421802
2492.91682,0.0421499
2491.95244,0.0420533
2490.98806,0.0419125
2490.02369,0.0418661
2489.05931,0.0418979
2488.09493,0.0419208
2487.13055,0.0419213
2486.16618,0.0419207
2485.20180,0.0419557
2484.23742,0.0419543
2483.27304,0.0418659
2482.30866,0.0417877
2481.34429,0.0417139
2480.37991,0.0416201
2479.41553,0.0415880
2478.45115,0.0416068
2477.48677,0.0416135
2476.52240,0.0416279
2475.55802,0.0416272
2474.59364,0.0415682
2473.62926,0.0415378
2472.66488,0.0415819
2471.70051,0.0416626
2470.73613,0.0417436
2469.77175,0.0417625
2468.80737,0.0417279
2467.84300,0.0416761
2466.87862,0.0415914
2465.91424,0.0414675
2464.94986,0.0413412
2463.98548,0.0412056
2463.02111,0.0410332
2462.05673,0.0409361
2461.09235,0.0409442
2460.12797,0.0409700
2459.16359,0.0409717
2458.19922,0.0409005
2457.23484,0.0408135
2456.27046,0.0407412
2455.30608,0.0406421
2454.34171,0.0405549
2453.37733,0.0405377
2452.41295,0.0406004
2451.44857,0.0406484
2450.48419,0.0406700
2449.51982,0.0407029
2448.55544,0.0407551
2447.59106,0.0408446
2446.62668,0.0409054
2445.66230,0.0409718
2444.69793,0.0410126
2443.73355,0.0409757
2442.76917,0.0409678
2441.80479,0.0409644
2440.84041,0.0409271
2439.87604,0.0408421
2438.91166,0.0407344
2437.94728,0.0406460
2436.98290,0.0405664
2436.01853,0.0405264
2435.05415,0.0404665
2434.08977,0.0403973
2433.12539,0.0403585
2432.16101,0.0403398
2431.19664,0.0403244
2430.23226,0.0402570
2429.26788,0.0402317
2428.30350,0.0402526
2427.33912,0.0402940
2426.37475,0.0403736
2425.41037,0.0404187
2424.44599,0.0404450
2423.48161,0.0404278
2422.51724,0.0403898
2421.55286,0.0403875
2420.58848,0.0403897
2419.62410,0.0403347
2418.65972,0.0402064
2417.69535,0.0401222
2416.73097,0.0400627
2415.76659,0.0400179
2414.80221,0.0400276
2413.83783,0.0400436
2412.87346,0.0400763
2411.90908,0.0400844
2410.94470,0.0400856
2409.98032,0.0401019
2409.01594,0.0401099
2408.05157,0.0401166
2407.08719,0.0400832
2406.12281,0.0400227
2405.15843,0.0399243
2404.19406,0.0397978
2403.22968,0.0396926
2402.26530,0.0396531
2401.30092,0.0396853
2400.33654,0.0397098
2399.37217,0.0397458
2398.40779,0.0397914
2397.44341,0.0398489
2396.47903,0.0399511
2395.51465,0.0400027
2394.55028,0.0399801
2393.58590,0.0399276
2392.62152,0.0398463
2391.65714,0.0397431
2390.69276,0.0396752
2389.72839,0.0396358
2388.76401,0.0395828
2387.79963,0.0395716
2386.83525,0.0395920
2385.87088,0.0396276
2384.90650,0.0396654
2383.94212,0.0396838
2382.97774,0.0397443
2382.01336,0.0398179
2381.04899,0.0398807
2380.08461,0.0399920
2379.12023,0.0401432
2378.15585,0.0402838
2377.19147,0.0404402
2376.22710,0.0406678
2375.26272,0.0409346
2374.29834,0.0412196
2373.33396,0.0414960
2372.36959,0.0417659
2371.40521,0.0420760
2370.44083,0.0423718
2369.47645,0.0426503
2368.51207,0.0429406
2367.54770,0.0431633
2366.58332,0.0432790
2365.61894,0.0433618
2364.65456,0.0434405
2363.69018,0.0434643
2362.72581,0.0434567
2361.76143,0.0434234
2360.79705,0.0433612
2359.83267,0.0433045
2358.86829,0.0432266
2357.90392,0.0431319
2356.93954,0.0430054
2355.97516,0.0427931
2355.01078,0.0424856
2354.04641,0.0420881
2353.08203,0.0416357
2352.11765,0.0411932
2351.15327,0.0408439
2350.18889,0.0405998
2349.22452,0.0404492
2348.26014,0.0404463
2347.29576,0.0405874
2346.33138,0.0408319
2345.36700,0.0411424
2344.40263,0.0414506
2343.43825,0.0416898
2342.47387,0.0418537
2341.50949,0.0419773
2340.54512,0.0420719
2339.58074,0.0421391
2338.61636,0.0421455
2337.65198,0.0420976
2336.68760,0.0420487
2335.72323,0.0419764
2334.75885,0.0419034
2333.79447,0.0418537
2332.83009,0.0417749
2331.86571,0.0416808
2330.90134,0.0415922
2329.93696,0.0414722
2328.97258,0.0413372
2328.00820,0.0412345
2327.04382,0.0411312
2326.07945,0.0409914
2325.11507,0.0408226
2324.15069,0.0406318
2323.18631,0.0404462
2322.22194,0.0402755
2321.25756,0.0401304
2320.29318,0.0400213
2319.32880,0.0399178
2318.36442,0.0398331
2317.40005,0.0397733
2316.43567,0.0396798
2315.47129,0.0395214
2314.50691,0.0393160
2313.54253,0.0391116
2312.57816,0.0389217
2311.61378,0.0387368
2310.64940,0.0386059
2309.68502,0.0385129
2308.72065,0.0384040
2307.75627,0.0383248
2306.79189,0.0382736
2305.82751,0.0381700
2304.86313,0.0380158
2303.89876,0.0378863
2302.93438,0.0378062
2301.97000,0.0377319
2301.00562,0.0376188
2300.04124,0.0375035
2299.07687,0.0374580
2298.11249,0.0374172
2297.14811,0.0373230
2296.18373,0.0372295
2295.21935,0.0371157
2294.25498,0.0369684
2293.29060,0.0368813
2292.32622,0.0369040
2291.36184,0.0369405
2290.39747,0.0369008
2289.43309,0.0368611
2288.46871,0.0368857
2287.50433,0.0369244
2286.53995,0.0369395
2285.57558,0.0369442
2284.61120,0.0369390
2283.64682,0.0368997
2282.68244,0.0368598
2281.71806,0.0368509
2280.75369,0.0368064
2279.78931,0.0366947
2278.82493,0.0365751
2277.86055,0.0364497
2276.89618,0.0362850
2275.93180,0.0361288
2274.96742,0.0360207
2274.00304,0.0359704
2273.03866,0.0360116
2272.07429,0.0361154
2271.10991,0.0362374
2270.14553,0.0363611
2269.18115,0.0364546
2268.21677,0.0365049
2267.25240,0.0364799
2266.28802,0.0363793
2265.32364,0.0362255
2264.35926,0.0360155
2263.39488,0.0357978
2262.43051,0.0356615
2261.46613,0.0356512
2260.50175,0.0356015
2259.53737,0.0354933
2258.57300,0.0355669
2257.60862,0.0357167
2256.64424,0.0357352
2255.67986,0.0356822
2254.71548,0.0356470
2253.75111,0.0355816
2252.78673,0.0354658
2251.82235,0.0353772
2250.85797,0.0352556
2249.89359,0.0351198
2248.92922,0.0350827
2247.96484,0.0351854
2247.00046,0.0353916
2246.03608,0.0355337
2245.07171,0.0355992
2244.10733,0.0356602
2243.14295,0.0357503
2242.17857,0.0358322
2241.21419,0.0357907
2240.24982,0.0355812
2239.28544,0.0352755
2238.32106,0.0350242
2237.35668,0.0349137
2236.39230,0.0347973
2235.42793,0.0346030
2234.46355,0.0344364
2233.49917,0.0343423
2232.53479,0.0342934
2231.57041,0.0343207
2230.60604,0.0343690
2229.64166,0.0343640
2228.67728,0.0343282
2227.71290,0.0343103
2226.74853,0.0342924
2225.78415,0.0342744
2224.81977,0.0342565
2223.85539,0.0342386
2222.89101,0.0342206
2221.92664,0.0342027
2220.96226,0.0341848
2219.99788,0.0341668
2219.03350,0.0341489
2218.06912,0.0341310
2217.10475,0.0341130
2216.14037,0.0340951
2215.17599,0.0340772
2214.21161,0.0340592
2213.24724,0.0340413
2212.28286,0.0340234
2211.31848,0.0340055
2210.35410,0.0339875
2209.38972,0.0339696
2208.42535,0.0339517
2207.46097,0.0339337
2206.49659,0.0339158
2205.53221,0.0338979
2204.56783,0.0338799
2203.60346,0.0338620
2202.63908,0.0338441
2201.67470,0.0338261
2200.71032,0.0338082
2199.74594,0.0337903
2198.78157,0.0337723
2197.81719,0.0337544
2196.85281,0.0337365
2195.88843,0.0337185
2194.92406,0.0337006
2193.95968,0.0336827
2192.99530,0.0336647
2192.03092,0.0336468
2191.06654,0.0336289
2190.10217,0.0336109
2189.13779,0.0335930
2188.17341,0.0335751
2187.20903,0.0335571
2186.24465,0.0335392
2185.28028,0.0335213
2184.31590,0.0335033
2183.35152,0.0334854
2182.38714,0.0334675
2181.42276,0.0334495
2180.45839,0.0334316
2179.49401,0.0334137
2178.52963,0.0333957
2177.56525,0.0333778
2176.60088,0.0333599
2175.63650,0.0333420
2174.67212,0.0333240
2173.70774,0.0333061
2172.74336,0.0332882
2171.77899,0.0332702
2170.81461,0.0332523
2169.85023,0.0332344
2168.88585,0.0332164
2167.92147,0.0331985
2166.95710,0.0331806
2165.99272,0.0331626
2165.02834,0.0331447
2164.06396,0.0331268
2163.09959,0.0331088
2162.13521,0.0330909
2161.17083,0.0330730
2160.20645,0.0330550
2159.24207,0.0330371
2158.27770,0.0330192
2157.31332,0.0330012
2156.34894,0.0329833
2155.38456,0.0329654
2154.42018,0.0329474
2153.45581,0.0329295
2152.49143,0.0329116
2151.52705,0.0328936
2150.56267,0.0328757
2149.59829,0.0328578
2148.63392,0.0328398
2147.66954,0.0328219
2146.70516,0.0328040
2145.74078,0.0327860
2144.77641,0.0327681
2143.81203,0.0327502
2142.84765,0.0327323
2141.88327,0.0327143
2140.91889,0.0326964
2139.95452,0.0326785
2138.99014,0.0326605
2138.02576,0.0326426
2137.06138,0.0326247
2136.09700,0.0326067
2135.13263,0.0325888
2134.16825,0.0325709
2133.20387,0.0325529
2132.23949,0.0325350
2131.27512,0.0325171
2130.31074,0.0324991
2129.34636,0.0324812
2128.38198,0.0324633
2127.41760,0.0324453
2126.45323,0.0324274
2125.48885,0.0324095
2124.52447,0.0323915
2123.56009,0.0323736
2122.59571,0.0323557
2121.63134,0.0323377
2120.66696,0.0323198
2119.70258,0.0323019
2118.73820,0.0322839
2117.77382,0.0322660
2116.80945,0.0322481
2115.84507,0.0322301
2114.88069,0.0322122
2113.91631,0.0321943
2112.95194,0.0321763
2111.98756,0.0321584
2111.02318,0.0321405
2110.05880,0.0321225
2109.09442,0.0321046
2108.13005,0.0320867
2107.16567,0.0320688
2106.20129,0.0320508
2105.23691,0.0320329
2104.27253,0.0320150
2103.30816,0.0319970
2102.34378,0.0319791
2101.37940,0.0319612
2100.41502,0.0319432
2099.45065,0.0319253
2098.48627,0.0319074
2097.52189,0.0318894
2096.55751,0.0318715
2095.59313,0.0318536
2094.62876,0.0318356
2093.66438,0.0318177
2092.70000,0.0317998
2091.73562,0.0317818
2090.77124,0.0317639
2089.80687,0.0317460
2088.84249,0.0317280
2087.87811,0.0317101
2086.91373,0.0316922
2085.94935,0.0316742
2084.98498,0.0316563
2084.02060,0.0316384
2083.05622,0.0316204
2082.09184,0.0316025
2081.12747,0.0315846
2080.16309,0.0315666
2079.19871,0.0315487
2078.23433,0.0315308
2077.26995,0.0315128
2076.30558,0.0314949
2075.34120,0.0314770
2074.37682,0.0314590
2073.41244,0.0314411
2072.44806,0.0314232
2071.48369,0.0314053
2070.51931,0.0313873
2069.55493,0.0313694
2068.59055,0.0313515
2067.62618,0.0313335
2066.66180,0.0313156
2065.69742,0.0312977
2064.73304,0.0312797
2063.76866,0.0312618
2062.80429,0.0312439
2061.83991,0.0312259
2060.87553,0.0312080
2059.91115,0.0311901
2058.94677,0.0311721
2057.98240,0.0311542
2057.01802,0.0311363
2056.05364,0.0311183
2055.08926,0.0311004
2054.12488,0.0310825
2053.16051,0.0310645
2052.19613,0.0310466
2051.23175,0.0310287
2050.26737,0.0310107
2049.30300,0.0309928
2048.33862,0.0309749
2047.37424,0.0309569
2046.40986,0.0309390
2045.44548,0.0309211
2044.48111,0.0309031
2043.51673,0.0308852
2042.55235,0.0308673
2041.58797,0.0308493
2040.62359,0.0308314
2039.65922,0.0308135
2038.69484,0.0307955
2037.73046,0.0307776
2036.76608,0.0307597
2035.80171,0.0307418
2034.83733,0.0307238
2033.87295,0.0307059
2032.90857,0.0306880
2031.94419,0.0306700
2030.97982,0.0306521
2030.01544,0.0306342
2029.05106,0.0306162
2028.08668,0.0305983
2027.12230,0.0305804
2026.15793,0.0305624
2025.19355,0.0305445
2024.22917,0.0305266
2023.26479,0.0305086
2022.30041,0.0304907
2021.33604,0.0304728
2020.37166,0.0304548
2019.40728,0.0304369
2018.44290,0.0304190
2017.47853,0.0304010
2016.51415,0.0303831
2015.54977,0.0303652
2014.58539,0.0303472
2013.62101,0.0303293
2012.65664,0.0303114
2011.69226,0.0302934
2010.72788,0.0302755
2009.76350,0.0302576
2008.79912,0.0302396
2007.83475,0.0302217
2006.87037,0.0302038
2005.90599,0.0301858
2004.94161,0.0301679
2003.97724,0.0301500
2003.01286,0.0301320
2002.04848,0.0301141
2001.08410,0.0300962
2000.11972,0.0300783
1999.15535,0.0300603
1998.19097,0.0300424
1997.22659,0.0300245
1996.26221,0.0300065
1995.29783,0.0299886
1994.33346,0.0299707
1993.36908,0.0299527
1992.40470,0.0299348
1991.44032,0.0299169
1990.47594,0.0298989
1989.51157,0.0298810
1988.54719,0.0298631
1987.58281,0.0298451
1986.61843,0.0298272
1985.65406,0.0298093
1984.68968,0.0297913
1983.72530,0.0297734
1982.76092,0.0297555
1981.79654,0.0297375
1980.83217,0.0297196
1979.86779,0.0297017
1978.90341,0.0296837
1977.93903,0.0296658
1976.97465,0.0296479
1976.01028,0.0296299
1975.04590,0.0296120
1974.08152,0.0295941
1973.11714,0.0295761
1972.15276,0.0295582
1971.18839,0.0295403
1970.22401,0.0295223
1969.25963,0.0295044
1968.29525,0.0294865
1967.33088,0.0294685
1966.36650,0.0294506
1965.40212,0.0294327
1964.43774,0.0294148
1963.47336,0.0293968
1962.50899,0.0293789
1961.54461,0.0293610
1960.58023,0.0293430
1959.61585,0.0293251
1958.65147,0.0293072
1957.68710,0.0292892
1956.72272,0.0292713
1955.75834,0.0292534
1954.79396,0.0292354
1953.82959,0.0292175
1952.86521,0.0291996
1951.90083,0.0291816
1950.93645,0.0291637
1949.97207,0.0291458
1949.00770,0.0291278
1948.04332,0.0291099
1947.07894,0.0290920
1946.11456,0.0290740
1945.15018,0.0290561
1944.18581,0.0290382
1943.22143,0.0290202
1942.25705,0.0290023
1941.29267,0.0289844
1940.32829,0.0289664
1939.36392,0.0289485
1938.39954,0.0289306
1937.43516,0.0288747
1936.47078,0.0288096
1935.50641,0.0288581
1934.54203,0.0289659
1933.57765,0.0290470
1932.61327,0.0290804
1931.64889,0.0291285
1930.68452,0.0292830
1929.72014,0.0294403
1928.75576,0.0295193
1927.79138,0.0294818
1926.82700,0.0293041
1925.86263,0.0290611
1924.89825,0.0289287
1923.93387,0.0289825
1922.96949,0.0289503
1922.00512,0.0288008
1921.04074,0.0286789
1920.07636,0.0286605
1919.11198,0.0287913
1918.14760,0.0289362
1917.18323,0.0290600
1916.21885,0.0290951
1915.25447,0.0290216
1914.29009,0.0289651
1913.32571,0.0289896
1912.36134,0.0290412
1911.39696,0.0289276
1910.43258,0.0287642
1909.46820,0.0286624
1908.50382,0.0285155
1907.53945,0.0284253
1906.57507,0.0284882
1905.61069,0.0286191
1904.64631,0.0287088
1903.68194,0.0287834
1902.71756,0.0288450
1901.75318,0.0288834
1900.78880,0.0289346
1899.82442,0.0289559
1898.86005,0.0289377
1897.89567,0.0288409
1896.93129,0.0286923
1895.96691,0.0286096
1895.00253,0.0285930
1894.03816,0.0285756
1893.07378,0.0285560
1892.10940,0.0285585
1891.14502,0.0285221
1890.18065,0.0284549
1889.21627,0.0284433
1888.25189,0.0285067
1887.28751,0.0285542
1886.32313,0.0285657
1885.35876,0.0286350
1884.39438,0.0286869
1883.43000,0.0286406
1882.46562,0.0285486
1881.50124,0.0285078
1880.53687,0.0285505
1879.57249,0.0285846
1878.60811,0.0285780
1877.64373,0.0285761
1876.67935,0.0285939
1875.71498,0.0285591
1874.75060,0.0285134
1873.78622,0.0285487
1872.82184,0.0285658
1871.85747,0.0284947
1870.89309,0.0283808
1869.92871,0.0283221
1868.96433,0.0283210
1867.99995,0.0283103
1867.03558,0.0282730
1866.07120,0.0282105
1865.10682,0.0281599
1864.14244,0.0280908
1863.17806,0.0280515
1862.21369,0.0281169
1861.24931,0.0282212
1860.28493,0.0283137
1859.32055,0.0283380
1858.35618,0.0283356
1857.39180,0.0283796
1856.42742,0.0284232
1855.46304,0.0284346
1854.49866,0.0284446
1853.53429,0.0284774
1852.56991,0.0284843
1851.60553,0.0284704
1850.64115,0.0285179
1849.67677,0.0286435
1848.71240,0.0287861
1847.74802,0.0288872
1846.78364,0.0289533
1845.81926,0.0289800
1844.85488,0.0289632
1843.89051,0.0289618
1842.92613,0.0290068
1841.96175,0.0290764
1840.99737,0.0291561
1840.03300,0.0292492
1839.06862,0.0293612
1838.10424,0.0294520
1837.13986,0.0294832
1836.17548,0.0294826
1835.21111,0.0294534
1834.24673,0.0294111
1833.28235,0.0294013
1832.31797,0.0294233
1831.35359,0.0294540
1830.38922,0.0295098
1829.42484,0.0296420
1828.46046,0.0298025
1827.49608,0.0299193
1826.53171,0.0299844
1825.56733,0.0300091
1824.60295,0.0300461
1823.63857,0.0300960
1822.67419,0.0301290
1821.70982,0.0301397
1820.74544,0.0301328
1819.78106,0.0301349
1818.81668,0.0301852
1817.85230,0.0302943
1816.88793,0.0303844
1815.92355,0.0304502
1814.95917,0.0305252
1813.99479,0.0305778
1813.03041,0.0306271
1812.06604,0.0306685
1811.10166,0.0306880
1810.13728,0.0306993
1809.17290,0.0306963
1808.20853,0.0306854
1807.24415,0.0306783
1806.27977,0.0306879
1805.31539,0.0307068
1804.35101,0.0307293
1803.38664,0.0307658
1802.42226,0.0308285
1801.45788,0.0309169
1800.49350,0.0310026
1799.52912,0.0310820
1798.56475,0.0311593
1797.60037,0.0312386
1796.63599,0.0313303
1795.67161,0.0314351
1794.70724,0.0315476
1793.74286,0.0316359
1792.77848,0.0316911
1791.81410,0.0317418
1790.84972,0.0318035
1789.88535,0.0318665
1788.92097,0.0319203
1787.95659,0.0319935
1786.99221,0.0321165
1786.02783,0.0322811
1785.06346,0.0324652
1784.09908,0.0326691
1783.13470,0.0328896
1782.17032,0.0330957
1781.20594,0.0332762
1780.24157,0.0334421
1779.27719,0.0336073
1778.31281,0.0337803
1777.34843,0.0339624
1776.38406,0.0341659
1775.41968,0.0343759
1774.45530,0.0345680
1773.49092,0.0347739
1772.52654,0.0350199
1771.56217,0.0352882
1770.59779,0.0355553
1769.63341,0.0358102
1768.66903,0.0360500
1767.70465,0.0362814
1766.74028,0.0365213
1765.77590,0.0367737
1764.81152,0.0370368
1763.84714,0.0373037
1762.88276,0.0375703
1761.91839,0.0378452
1760.95401,0.0381178
1759.98963,0.0383838
1759.02525,0.0386461
1758.06088,0.0388891
1757.09650,0.0391117
1756.13212,0.0393427
1755.16774,0.0395941
1754.20336,0.0398386
1753.23899,0.0400713
1752.27461,0.0403047
1751.31023,0.0405328
1750.34585,0.0407330
1749.38147,0.0408980
1748.41710,0.0410595
1747.45272,0.0412178
1746.48834,0.0413529
1745.52396,0.0414820
1744.55959,0.0416271
1743.59521,0.0417732
1742.63083,0.0418920
1741.66645,0.0419881
1740.70207,0.0420831
1739.73770,0.0421847
1738.77332,0.0422822
1737.80894,0.0423750
1736.84456,0.0424605
1735.88018,0.0425154
1734.91581,0.0425350
1733.95143,0.0425290
1732.98705,0.0425060
1732.02267,0.0424539
1731.05829,0.0423720
1730.09392,0.0422752
1729.12954,0.0421745
1728.16516,0.0420972
1727.20078,0.0420386
1726.23641,0.0419649
1725.27203,0.0418664
1724.30765,0.0417517
1723.34327,0.0416328
1722.37889,0.0415342
1721.41452,0.0414377
1720.45014,0.0413074
1719.48576,0.0411697
1718.52138,0.0410227
1717.55700,0.0408549
1716.59263,0.0406848
1715.62825,0.0405065
1714.66387,0.0403110
1713.69949,0.0401005
1712.73512,0.0398875
1711.77074,0.0396800
1710.80636,0.0395065
1709.84198,0.0393454
1708.87760,0.0391663
1707.91323,0.0389865
1706.94885,0.0387814
1705.98447,0.0385797
1705.02009,0.0384149
1704.05571,0.0382627
1703.09134,0.0380901
1702.12696,0.0378718
1701.16258,0.0376568
1700.19820,0.0374508
1699.23382,0.0372375
1698.26945,0.0370122
1697.30507,0.0367704
1696.34069,0.0365346
1695.37631,0.0363042
1694.41194,0.0361097
1693.44756,0.0359581
1692.48318,0.0358134
1691.51880,0.0356435
1690.55442,0.0354550
1689.59005,0.0353081
1688.62567,0.0351907
1687.66129,0.0350772
1686.69691,0.0349505
1685.73253,0.0348107
1684.76816,0.0346756
1683.80378,0.0345183
1682.83940,0.0343502
1681.87502,0.0341989
1680.91065,0.0340618
1679.94627,0.0339298
1678.98189,0.0338013
1678.01751,0.0337001
1677.05313,0.0336310
1676.08876,0.0335721
1675.12438,0.0335040
1674.16000,0.0334360
1673.19562,0.0333691
1672.23124,0.0332949
1671.26687,0.0332338
1670.30249,0.0331920
1669.33811,0.0331637
1668.37373,0.0331496
1667.40935,0.0331348
1666.44498,0.0331251
1665.48060,0.0331297
1664.51622,0.0331354
1663.55184,0.0331575
1662.58747,0.0331937
1661.62309,0.0332284
1660.65871,0.0332758
1659.69433,0.0333213
1658.72995,0.0333683
1657.76558,0.0334522
1656.80120,0.0335608
1655.83682,0.0336703
1654.87244,0.0337745
1653.90806,0.0338751
1652.94369,0.0339705
1651.97931,0.0340695
1651.01493,0.0341724
1650.05055,0.0342760
1649.08618,0.0343825
1648.12180,0.0344902
1647.15742,0.0346358
1646.19304,0.0348331
1645.22866,0.0350283
1644.26429,0.0352113
1643.29991,0.0353956
1642.33553,0.0355734
1641.37115,0.0357613
1640.40677,0.0359838
1639.44240,0.0362298
1638.47802,0.0364899
1637.51364,0.0367548
1636.54926,0.0370219
1635.58488,0.0373069
1634.62051,0.0375927
1633.65613,0.0378657
1632.69175,0.0381445
1631.72737,0.0384287
1630.76300,0.0387088
1629.79862,0.0389987
1628.83424,0.0393115
1627.86986,0.0396281
1626.90548,0.0399382
1625.94111,0.0402265
1624.97673,0.0404916
1624.01235,0.0407471
1623.04797,0.0409665
1622.08359,0.0411696
1621.11922,0.0413868
1620.15484,0.0415884
1619.19046,0.0417647
1618.22608,0.0419265
1617.26171,0.0420781
1616.29733,0.0422047
1615.33295,0.0423029
1614.36857,0.0423884
1613.40419,0.0424755
1612.43982,0.0425556
1611.47544,0.0426140
1610.51106,0.0426894
1609.54668,0.0427867
1608.58230,0.0428732
1607.61793,0.0429687
1606.65355,0.0430823
1605.68917,0.0431953
1604.72479,0.0432904
1603.76041,0.0433740
1602.79604,0.0434799
1601.83166,0.0436121
1600.86728,0.0437545
1599.90290,0.0439035
1598.93853,0.0440617
1597.97415,0.0442356
1597.00977,0.0444285
1596.04539,0.0446402
1595.08101,0.0448486
1594.11664,0.0450348
1593.15226,0.0451986
1592.18788,0.0453421
1591.22350,0.0454905
1590.25912,0.0456382
1589.29475,0.0457680
1588.33037,0.0458876
1587.36599,0.0460031
1586.40161,0.0461300
1585.43724,0.0462472
1584.47286,0.0463364
1583.50848,0.0463964
1582.54410,0.0464241
1581.57972,0.0464443
1580.61535,0.0464468
1579.65097,0.0464160
1578.68659,0.0463557
1577.72221,0.0462742
1576.75783,0.0461758
1575.79346,0.0460644
1574.82908,0.0459497
1573.86470,0.0458094
1572.90032,0.0456442
1571.93594,0.0454591
1570.97157,0.0452544
1570.00719,0.0450495
1569.04281,0.0448247
1568.07843,0.0445657
1567.11406,0.0442822
1566.14968,0.0439898
1565.18530,0.0437005
1564.22092,0.0434211
1563.25654,0.0431561
1562.29217,0.0428838
1561.32779,0.0425929
1560.36341,0.0422967
1559.39903,0.0420082
1558.43465,0.0417119
1557.47028,0.0413924
1556.50590,0.0410516
1555.54152,0.0407054
1554.57714,0.0403821
1553.61276,0.0400817
1552.64839,0.0397802
1551.68401,0.0394665
1550.71963,0.0391515
1549.75525,0.0388402
1548.79088,0.0385344
1547.82650,0.0382380
1546.86212,0.0379404
1545.89774,0.0376409
1544.93336,0.0373542
1543.96899,0.0371036
1543.00461,0.0368725
1542.04023,0.0366345
1541.07585,0.0363867
1540.11147,0.0361333
1539.14710,0.0358927
1538.18272,0.0356592
1537.21834,0.0354296
1536.25396,0.0352117
1535.28959,0.0350081
1534.32521,0.0348159
1533.36083,0.0346248
1532.39645,0.0344403
1531.43207,0.0342518
1530.46770,0.0340699
1529.50332,0.0339061
1528.53894,0.0337422
1527.57456,0.0335807
1526.61018,0.0334313
1525.64581,0.0333031
1524.68143,0.0331781
1523.71705,0.0330493
1522.75267,0.0329324
1521.78829,0.0328116
1520.82392,0.0326886
1519.85954,0.0325766
1518.89516,0.0324741
1517.93078,0.0323777
1516.96641,0.0322871
1516.00203,0.0322046
1515.03765,0.0321337
1514.07327,0.0320739
1513.10889,0.0320080
1512.14452,0.0319537
1511.18014,0.0319383
1510.21576,0.0319375
1509.25138,0.0319308
1508.28700,0.0319129
1507.32263,0.0318881
1506.35825,0.0318722
1505.39387,0.0318500
1504.42949,0.0318097
1503.46512,0.0317707
1502.50074,0.0317362
1501.53636,0.0317095
1500.57198,0.0317056
1499.60760,0.0317175
1498.64323,0.0317278
1497.67885,0.0317301
1496.71447,0.0317376
1495.75009,0.0317693
1494.78571,0.0318068
1493.82134,0.0318313
1492.85696,0.0318702
1491.89258,0.0319393
1490.92820,0.0320181
1489.96382,0.0320921
1488.99945,0.0321610
1488.03507,0.0322341
1487.07069,0.0323103
1486.10631,0.0323848
1485.14194,0.0324644
1484.17756,0.0325497
1483.21318,0.0326315
1482.24880,0.0327276
1481.28442,0.0328626
1480.32005,0.0330135
1479.35567,0.0331606
1478.39129,0.0333047
1477.42691,0.0334545
1476.46253,0.0336206
1475.49816,0.0337788
1474.53378,0.0339196
1473.56940,0.0340566
1472.60502,0.0342002
1471.64065,0.0343539
1470.67627,0.0345209
1469.71189,0.0347122
1468.74751,0.0349047
1467.78313,0.0350918
1466.81876,0.0352826
1465.85438,0.0354680
1464.89000,0.0356514
1463.92562,0.0358202
1462.96124,0.0359938
1461.99687,0.0362049
1461.03249,0.0364332
1460.06811,0.0366535
1459.10373,0.0368626
1458.13935,0.0370798
1457.17498,0.0372951
1456.21060,0.0374984
1455.24622,0.0376999
1454.28184,0.0378946
1453.31747,0.0380835
1452.35309,0.0382666
1451.38871,0.0384573
1450.42433,0.0386583
1449.45995,0.0388466
1448.49558,0.0390284
1447.53120,0.0392175
1446.56682,0.0394174
1445.60244,0.0396266
1444.63806,0.0398433
1443.67369,0.0400639
1442.70931,0.0402917
1441.74493,0.0405296
1440.78055,0.0407620
1439.81618,0.0409817
1438.85180,0.0411892
1437.88742,0.0413982
1436.92304,0.0416124
1435.95866,0.0418159
1434.99429,0.0420181
1434.02991,0.0422242
1433.06553,0.0424199
1432.10115,0.0426098
1431.13677,0.0428180
1430.17240,0.0430444
1429.20802,0.0432587
1428.24364,0.0434535
1427.27926,0.0436371
1426.31488,0.0438085
1425.35051,0.0439633
1424.38613,0.0441157
1423.42175,0.0442742
1422.45737,0.0444180
1421.49300,0.0445528
1420.52862,0.0447052
1419.56424,0.0448777
1418.59986,0.0450539
1417.63548,0.0452114
1416.67111,0.0453461
1415.70673,0.0454691
1414.74235,0.0455855
1413.77797,0.0456970
1412.81359,0.0458084
1411.84922,0.0459210
1410.88484,0.0460427
1409.92046,0.0461741
1408.95608,0.0462996
1407.99171,0.0464232
1407.02733,0.0465468
1406.06295,0.0466564
1405.09857,0.0467577
1404.13419,0.0468628
1403.16982,0.0469681
1402.20544,0.0470637
1401.24106,0.0471395
1400.27668,0.0472133
1399.31230,0.0473097
1398.34793,0.0474004
1397.38355,0.0474729
1396.41917,0.0475545
1395.45479,0.0476353
1394.49041,0.0476994
1393.52604,0.0477651
1392.56166,0.0478440
1391.59728,0.0479256
1390.63290,0.0479990
1389.66853,0.0480451
1388.70415,0.0480793
1387.73977,0.0481370
1386.77539,0.0482001
1385.81101,0.0482654
1384.84664,0.0483341
1383.88226,0.0483915
1382.91788,0.0484499
1381.95350,0.0485160
1380.98912,0.0485827
1380.02475,0.0486411
1379.06037,0.0487056
1378.09599,0.0487694
1377.13161,0.0488146
1376.16724,0.0488615
1375.20286,0.0489141
1374.23848,0.0489697
1373.27410,0.0490171
1372.30972,0.0490627
1371.34535,0.0491168
1370.38097,0.0491515
1369.41659,0.0491672
1368.45221,0.0491789
1367.48783,0.0492048
1366.52346,0.0492416
1365.55908,0.0492667
1364.59470,0.0492812
1363.63032,0.0492874
1362.66594,0.0492944
1361.70157,0.0493012
1360.73719,0.0493104
1359.77281,0.0493172
1358.80843,0.0493056
1357.84406,0.0492939
1356.87968,0.0492843
1355.91530,0.0492781
1354.95092,0.0492860
1353.98654,0.0492920
1353.02217,0.0492898
1352.05779,0.0492920
1351.09341,0.0493063
1350.12903,0.0493220
1349.16465,0.0493324
1348.20028,0.0493352
1347.23590,0.0493238
1346.27152,0.0493094
1345.30714,0.0493016
1344.34276,0.0493035
1343.37839,0.0493185
1342.41401,0.0493316
1341.44963,0.0493414
1340.48525,0.0493589
1339.52088,0.0493796
1338.55650,0.0494002
1337.59212,0.0494107
1336.62774,0.0494031
1335.66336,0.0493810
1334.69899,0.0493574
1333.73461,0.0493522
1332.77023,0.0493658
1331.80585,0.0493870
1330.84147,0.0493989
1329.87710,0.0494079
1328.91272,0.0494381
1327.94834,0.0494801
1326.98396,0.0495208
1326.01959,0.0495496
1325.05521,0.0495674
1324.09083,0.0495872
1323.12645,0.0496073
1322.16207,0.0496290
1321.19770,0.0496569
1320.23332,0.0496993
1319.26894,0.0497450
1318.30456,0.0497849
1317.34018,0.0498375
1316.37581,0.0498945
1315.41143,0.0499391
1314.44705,0.0499774
1313.48267,0.0500203
1312.51829,0.0500743
1311.55392,0.0501408
1310.58954,0.0502143
1309.62516,0.0502913
1308.66078,0.0503835
1307.69641,0.0504822
1306.73203,0.0505697
1305.76765,0.0506589
1304.80327,0.0507557
1303.83889,0.0508509
1302.87452,0.0509418
1301.91014,0.0510264
1300.94576,0.0511147
1299.98138,0.0512227
1299.01700,0.0513361
1298.05263,0.0514383
1297.08825,0.0515453
1296.12387,0.0516573
1295.15949,0.0517532
1294.19512,0.0518439
1293.23074,0.0519547
1292.26636,0.0520806
1291.30198,0.0522002
1290.33760,0.0523174
1289.37323,0.0524539
1288.40885,0.0526093
1287.44447,0.0527618
1286.48009,0.0528947
1285.51571,0.0530148
1284.55134,0.0531254
1283.58696,0.0532176
1282.62258,0.0533127
1281.65820,0.0534357
1280.69382,0.0535727
1279.72945,0.0537074
1278.76507,0.0538519
1277.80069,0.0540070
1276.83631,0.0541533
1275.87194,0.0542840
1274.90756,0.0543991
1273.94318,0.0545115
1272.97880,0.0546285
1272.01442,0.0547413
1271.05005,0.0548549
1270.08567,0.0549777
1269.12129,0.0551035
1268.15691,0.0552227
1267.19253,0.0553405
1266.22816,0.0554531
1265.26378,0.0555475
1264.29940,0.0556379
1263.33502,0.0557380
1262.37065,0.0558399
1261.40627,0.0559366
1260.44189,0.0560346
1259.47751,0.0561345
1258.51313,0.0562374
1257.54876,0.0563397
1256.58438,0.0564286
1255.62000,0.0565175
1254.65562,0.0566049
1253.69124,0.0566809
1252.72687,0.0567594
1251.76249,0.0568393
1250.79811,0.0569060
1249.83373,0.0569624
1248.86935,0.0570281
1247.90498,0.0570936
1246.94060,0.0571415
1245.97622,0.0571784
1245.01184,0.0572126
1244.04747,0.0572527
1243.08309,0.0572948
1242.11871,0.0573350
1241.15433,0.0573690
1240.18995,0.0573954
1239.22558,0.0574218
1238.26120,0.0574394
1237.29682,0.0574452
1236.33244,0.0574394
1235.36806,0.0574228
1234.40369,0.0574092
1233.43931,0.0573997
1232.47493,0.0573869
1231.51055,0.0573746
1230.54618,0.0573654
1229.58180,0.0573484
1228.61742,0.0573259
1227.65304,0.0572980
1226.68866,0.0572505
1225.72429,0.0571877
1224.75991,0.0571230
1223.79553,0.0570563
1222.83115,0.0569847
1221.86677,0.0569100
1220.90240,0.0568137
1219.93802,0.0566936
1218.97364,0.0565667
1218.00926,0.0564358
1217.04488,0.0563096
1216.08051,0.0561737
1215.11613,0.0560217
1214.15175,0.0558628
1213.18737,0.0557020
1212.22300,0.0555569
1211.25862,0.0554188
1210.29424,0.0552779
1209.32986,0.0551269
1208.36548,0.0549719
1207.40111,0.0548351
1206.43673,0.0547132
1205.47235,0.0546032
1204.50797,0.0544870
1203.54359,0.0543600
1202.57922,0.0542320
1201.61484,0.0541080
1200.65046,0.0540038
1199.68608,0.0539025
1198.72171,0.0537990
1197.75733,0.0536972
1196.79295,0.0535927
1195.82857,0.0534948
1194.86419,0.0533950
1193.89982,0.0532998
1192.93544,0.0532195
1191.97106,0.0531464
1191.00668,0.0530694
1190.04230,0.0529826
1189.07793,0.0528955
1188.11355,0.0528076
1187.14917,0.0527176
1186.18479,0.0526372
1185.22041,0.0525800
1184.25604,0.0525381
1183.29166,0.0524885
1182.32728,0.0524413
1181.36290,0.0524124
1180.39853,0.0523855
1179.43415,0.0523426
1178.46977,0.0522883
1177.50539,0.0522300
1176.54101,0.0521697
1175.57664,0.0521191
1174.61226,0.0520855
1173.64788,0.0520643
1172.68350,0.0520519
1171.71912,0.0520457
1170.75475,0.0520397
1169.79037,0.0520209
1168.82599,0.0519798
1167.86161,0.0519280
1166.89724,0.0518798
1165.93286,0.0518320
1164.96848,0.0517781
1164.00410,0.0517152
1163.03972,0.0516476
1162.07535,0.0515886
1161.11097,0.0515476
1160.14659,0.0515139
1159.18221,0.0514683
1158.21783,0.0514070
1157.25346,0.0513428
1156.28908,0.0513039
1155.32470,0.0512939
1154.36032,0.0512824
1153.39594,0.0512559
1152.43157,0.0512269
1151.46719,0.0512098
1150.50281,0.0511968
1149.53843,0.0511719
1148.57406,0.0511343
1147.60968,0.0510911
1146.64530,0.0510499
1145.68092,0.0510076
1144.71654,0.0509673
1143.75217,0.0509333
1142.78779,0.0508908
1141.82341,0.0508545
1140.85903,0.0508598
1139.89465,0.0508954
1138.93028,0.0509207
1137.96590,0.0509299
1137.00152,0.0509482
1136.03714,0.0509680
1135.07276,0.0509683
1134.10839,0.0509460
1133.14401,0.0509049
1132.17963,0.0508791
1131.21525,0.0508836
1130.25088,0.0509197
1129.28650,0.0509923
1128.32212,0.0510637
1127.35774,0.0511228
1126.39336,0.0511920
1125.42899,0.0512683
1124.46461,0.0513171
1123.50023,0.0513299
1122.53585,0.0513375
1121.57147,0.0513506
1120.60710,0.0513877
1119.64272,0.0514500
1118.67834,0.0515199
1117.71396,0.0515903
1116.74959,0.0516485
1115.78521,0.0517129
1114.82083,0.0517941
1113.85645,0.0518760
1112.89207,0.0519479
1111.92770,0.0520238
1110.96332,0.0521118
1109.99894,0.0522039
1109.03456,0.0523193
1108.07018,0.0524472
1107.10581,0.0525662
1106.14143,0.0526768
1105.17705,0.0527832
1104.21267,0.0528976
1103.24829,0.0530185
1102.28392,0.0531377
1101.31954,0.0532373
1100.35516,0.0533308
1099.39078,0.0534326
1098.42641,0.0535302
1097.46203,0.0536363
1096.49765,0.0537429
1095.53327,0.0538458
1094.56889,0.0539609
1093.60452,0.0541016
1092.64014,0.0542623
1091.67576,0.0544167
1090.71138,0.0545596
1089.74700,0.0546971
1088.78263,0.0548548
1087.81825,0.0550285
1086.85387,0.0551768
1085.88949,0.0553054
1084.92512,0.0554426
1083.96074,0.0555896
1082.99636,0.0557365
1082.03198,0.0558892
1081.06760,0.0560372
1080.10323,0.0561691
1079.13885,0.0562931
1078.17447,0.0564008
1077.21009,0.0564984
1076.24571,0.0566029
1075.28134,0.0567143
1074.31696,0.0568266
1073.35258,0.0569329
1072.38820,0.0570248
1071.42382,0.0571092
1070.45945,0.0571980
1069.49507,0.0572801
1068.53069,0.0573479
1067.56631,0.0573906
1066.60194,0.0574029
1065.63756,0.0574139
1064.67318,0.0574486
1063.70880,0.0574846
1062.74442,0.0574863
1061.78005,0.0574692
1060.81567,0.0574662
1059.85129,0.0574817
1058.88691,0.0574920
1057.92253,0.0574762
1056.95816,0.0574495
1055.99378,0.0574227
1055.02940,0.0573691
1054.06502,0.0572682
1053.10065,0.0571373
1052.13627,0.0569695
1051.17189,0.0567649
1050.20751,0.0565727
1049.24313,0.0563978
1048.27876,0.0562064
1047.31438,0.0559821
1046.35000,0.0557449
1045.38562,0.0555425
1044.42124,0.0553732
1043.45687,0.0551765
1042.49249,0.0549432
1041.52811,0.0547176
1040.56373,0.0544959
1039.59935,0.0542770
1038.63498,0.0540670
1037.67060,0.0538443
1036.70622,0.0536063
1035.74184,0.0533487
1034.77747,0.0530810
1033.81309,0.0528315
1032.84871,0.0526002
1031.88433,0.0523551
1030.91995,0.0520829
1029.95558,0.0518142
1028.99120,0.0515635
1028.02682,0.0513163
1027.06244,0.0510528
1026.09806,0.0507773
1025.13369,0.0505079
1024.16931,0.0502478
1023.20493,0.0499875
1022.24055,0.0497290
1021.27618,0.0495036
1020.31180,0.0492919
1019.34742,0.0490631
1018.38304,0.0488468
1017.41866,0.0486606
1016.45429,0.0484869
1015.48991,0.0483090
1014.52553,0.0481359
1013.56115,0.0479788
1012.59677,0.0478467
1011.63240,0.0477232
1010.66802,0.0475951
1009.70364,0.0474897
1008.73926,0.0473709
1007.77488,0.0472146
1006.81051,0.0470593
1005.84613,0.0469084
1004.88175,0.0467627
1003.91737,0.0466387
1002.95300,0.0465301
1001.98862,0.0464283
1001.02424,0.0463605
1000.05986,0.0463307
999.09548,0.0463200
998.13111,0.0463163
997.16673,0.0462888
996.20235,0.0462473
995.23797,0.0462125
994.27359,0.0461727
993.30922,0.0461291
992.34484,0.0460818
991.38046,0.0460047
990.41608,0.0459094
989.45171,0.0458341
988.48733,0.0457607
987.52295,0.0456887
986.55857,0.0456278
985.59419,0.0455717
984.62982,0.0455262
983.66544,0.0454595
982.70106,0.0453706
981.73668,0.0452815
980.77230,0.0451815
979.80793,0.0450684
978.84355,0.0449417
977.87917,0.0447987
976.91479,0.0446468
975.95041,0.0445096
974.98604,0.0444009
974.02166,0.0443105
973.05728,0.0441967
972.09290,0.0440363
971.12853,0.0438614
970.16415,0.0436884
969.19977,0.0435220
968.23539,0.0433662
967.27101,0.0432069
966.30664,0.0430438
965.34226,0.0428917
964.37788,0.0427656
963.41350,0.0426797
962.44912,0.0426108
961.48475,0.0425032
960.52037,0.0423468
959.55599,0.0421600
958.59161,0.0419672
957.62724,0.0417879
956.66286,0.0416125
955.69848,0.0414331
954.73410,0.0412368
953.76972,0.0410415
952.80535,0.0408780
951.84097,0.0407322
950.87659,0.0405773
949.91221,0.0404040
948.94783,0.0402284
947.98346,0.0400742
947.01908,0.0399541
946.05470,0.0398455
945.09032,0.0397332
944.12594,0.0396051
943.16157,0.0394440
942.19719,0.0392945
941.23281,0.0391621
940.26843,0.0390203
939.30406,0.0388729
938.33968,0.0386884
937.37530,0.0384723
936.41092,0.0382861
935.44654,0.0381453
934.48217,0.0380082
933.51779,0.0378557
932.55341,0.0376900
931.58903,0.0375332
930.62465,0.0374138
929.66028,0.0373037
928.69590,0.0371883
927.73152,0.0370415
926.76714,0.0368384
925.80276,0.0366552
924.83839,0.0365419
923.87401,0.0364602
922.90963,0.0363703
921.94525,0.0362585
920.98088,0.0361280
920.01650,0.0360045
919.05212,0.0358959
918.08774,0.0357781
917.12336,0.0356536
916.15899,0.0355263
915.19461,0.0354182
914.23023,0.0353546
913.26585,0.0352855
912.30147,0.0351917
911.33710,0.0351066
910.37272,0.0350016
909.40834,0.0348497
908.44396,0.0347000
907.47959,0.0345869
906.51521,0.0345019
905.55083,0.0344362
904.58645,0.0343884
903.62207,0.0343735
902.65770,0.0343650
901.69332,0.0343124
900.72894,0.0342467
899.76456,0.0342138
898.80018,0.0341656
897.83581,0.0340758
896.87143,0.0340241
895.90705,0.0340259
894.94267,0.0340326
893.97829,0.0340334
893.01392,0.0340289
892.04954,0.0340549
891.08516,0.0340913
890.12078,0.0340761
889.15641,0.0340434
888.19203,0.0340258
887.22765,0.0340110
886.26327,0.0340070
885.29889,0.0340187
884.33452,0.0340019
883.37014,0.0339455
882.40576,0.0338890
881.44138,0.0338425
880.47700,0.0338509
879.51263,0.0338984
878.54825,0.0339004
877.58387,0.0338855
876.61949,0.0338986
875.65512,0.0339521
874.69074,0.0340356
873.72636,0.0340800
872.76198,0.0340792
871.79760,0.0341012
870.83323,0.0341546
869.86885,0.0342218
868.90447,0.0343136
867.94009,0.0343910
866.97571,0.0344168
866.01134,0.0344298
865.04696,0.0344633
864.08258,0.0345096
863.11820,0.0345328
862.15382,0.0344991
861.18945,0.0344558
860.22507,0.0344687
859.26069,0.0345123
858.29631,0.0345587
857.33194,0.0346048
856.36756,0.0346473
855.40318,0.0347108
854.43880,0.0347883
853.47442,0.0348529
852.51005,0.0348889
851.54567,0.0349030
850.58129,0.0349225
849.61691,0.0349580
848.65253,0.0350000
847.68816,0.0350202
846.72378,0.0350234
845.75940,0.0350377
844.79502,0.0350728
843.83065,0.0351101
842.86627,0.0351127
841.90189,0.0350843
840.93751,0.0350467
839.97313,0.0350293
839.00876,0.0350397
838.04438,0.0350401
837.08000,0.0350035
836.11562,0.0349409
835.15124,0.0348965
834.18687,0.0348917
833.22249,0.0349027
832.25811,0.0348941
831.29373,0.0348716
830.32935,0.0348369
829.36498,0.0347831
828.40060,0.0347488
827.43622,0.0347284
826.47184,0.0347046
825.50747,0.0346636
824.54309,0.0346066
823.57871,0.0345685
822.61433,0.0345502
821.64995,0.0345497
820.68558,0.0345400
819.72120,0.0345325
818.75682,0.0345357
817.79244,0.0345353
816.82806,0.0345495
815.86369,0.0345275
814.89931,0.0344716
813.93493,0.0344067
812.97055,0.0343122
812.00618,0.0342024
811.04180,0.0340966
810.07742,0.0340097
809.11304,0.0339248
808.14866,0.0338702
807.18429,0.0338595
806.21991,0.0338603
805.25553,0.0338721
804.29115,0.0338822
803.32677,0.0339101
802.36240,0.0339512
801.39802,0.0339611
800.43364,0.0339258
799.46926,0.0338820
798.50488,0.0338514
797.54051,0.0337954
796.57613,0.0337342
795.61175,0.0336772
794.64737,0.0336172
793.68300,0.0335831
792.71862,0.0335799
791.75424,0.0336038
790.78986,0.0336244
789.82548,0.0335992
788.86111,0.0335300
787.89673,0.0335068
786.93235,0.0335359
785.96797,0.0335170
785.00359,0.0334661
784.03922,0.0334329
783.07484,0.0334290
782.11046,0.0334347
781.14608,0.0334302
780.18171,0.0334299
779.21733,0.0334186
778.25295,0.0333967
777.28857,0.0334089
776.32419,0.0334589
775.35982,0.0334746
774.39544,0.0334430
773.43106,0.0334311
772.46668,0.0334634
771.50230,0.0334847
770.53793,0.0334442
769.57355,0.0333829
768.60917,0.0333259
767.64479,0.0332988
766.68041,0.0333358
765.71604,0.0333966
764.75166,0.0334374
763.78728,0.0334593
762.82290,0.0334884
761.85853,0.0335218
760.89415,0.0335495
759.92977,0.0335323
758.96539,0.0334757
758.00101,0.0334307
757.03664,0.0333717
756.07226,0.0333349
755.10788,0.0333472
754.14350,0.0333711
753.17912,0.0333925
752.21475,0.0334319
751.25037,0.0334813
750.28599,0.0334860
749.32161,0.0335239
748.35724,0.0336029
747.39286,0.0336724
746.42848,0.0337671
745.46410,0.0338483
744.49972,0.0339001
743.53535,0.0339078
742.57097,0.0338729
741.60659,0.0338300
740.64221,0.0338067
739.67783,0.0337643
738.71346,0.0336903
737.74908,0.0337188
736.78470,0.0337953
735.82032,0.0338487
734.85594,0.0339264
733.89157,0.0340127
732.92719,0.0341031
731.96281,0.0341598
730.99843,0.0342317
730.03406,0.0343490
729.06968,0.0344589
728.10530,0.0345469
727.14092,0.0345852
726.17654,0.0346012
725.21217,0.0346186
724.24779,0.0346181
723.28341,0.0345873
722.31903,0.0345648
721.35465,0.0345763
720.39028,0.0345921
719.42590,0.0346394
718.46152,0.0347186
717.49714,0.0348173
716.53276,0.0349292
715.56839,0.0350001
714.60401,0.0350644
713.63963,0.0351537
712.67525,0.0351941
711.71088,0.0351759
710.74650,0.0351552
709.78212,0.0351519
708.81774,0.0351428
707.85336,0.0351126
706.88899,0.0351116
705.92461,0.0351596
704.96023,0.0352271
703.99585,0.0352993
703.03147,0.0353569
702.06710,0.0353929
701.10272,0.0354080
700.13834,0.0354285
699.17396,0.0354759
698.20959,0.0355271
697.24521,0.0355659
696.28083,0.0355909
695.31645,0.0356190
694.35207,0.0356552
693.38770,0.0356938
692.42332,0.0357247
691.45894,0.0357399
690.49456,0.0357573
689.53018,0.0357740
688.56581,0.0358017
687.60143,0.0358638
686.63705,0.0359343
685.67267,0.0359824
684.70829,0.0359911
683.74392,0.0359831
682.77954,0.0360050
681.81516,0.0360218
680.85078,0.0360118
679.88641,0.0360233
678.92203,0.0360610
677.95765,0.0361183
676.99327,0.0361863
676.02889,0.0362578
675.06452,0.0362337
674.10014,0.0360789
673.13576,0.0362049
672.17138,0.0366757
671.20700,0.0371231
670.24263,0.0374287
669.27825,0.0376197
668.31387,0.0377077
667.34949,0.0376726
666.38512,0.0375134
665.42074,0.0372422
664.45636,0.0368694
663.49198,0.0364191
662.52760,0.0360678
661.56323,0.0361221
660.59885,0.0363500
659.63447,0.0364483
658.67009,0.0364998
657.70571,0.0365463
656.74134,0.0365845
655.77696,0.0366052
654.81258,0.0366173
653.84820,0.0366494
652.88382,0.0366899
651.91945,0.0367319
650.95507,0.0367620
649.99069,0.0367636
649.02631,0.0367541
648.06194,0.0367677
647.09756,0.0367569
646.13318,0.0367106
645.16880,0.0367050
644.20442,0.0367124
643.24005,0.0367141
642.27567,0.0367421
641.31129,0.0367694
640.34691,0.0367742
639.38253,0.0367523
638.41816,0.0367335
637.45378,0.0367756
636.48940,0.0368650
635.52502,0.0369186
634.56065,0.0369251
633.59627,0.0369583
632.63189,0.0369892
631.66751,0.0369061
630.70313,0.0368146
629.73876,0.0369305
628.77438,0.0371192
627.81000,0.0369502
626.84562,0.0367223
625.88124,0.0365502
624.91687,0.0358018
623.95249,0.0349050
622.98811,0.0342681
622.02373,0.0340095
621.05935,0.0339896
620.09498,0.0335180
619.13060,0.0330225
618.16622,0.0331913
617.20184,0.0336559
616.23747,0.0336463
615.27309,0.0339459
614.30871,0.0348526
613.34433,0.0355468
612.37995,0.0364460
611.41558,0.0374050
610.45120,0.0383238
609.48682,0.0388876
608.52244,0.0388953
607.55806,0.0389298
606.59369,0.0387510
605.62931,0.0381717
604.66493,0.0373687
603.70055,0.0373090
602.73618,0.0380248
601.77180,0.0385731
600.80742,0.0388266
599.84304,0.0387309
598.87866,0.0385803
597.91429,0.0385338
596.94991,0.0386514
595.98553,0.0386191
595.02115,0.0380947
594.05677,0.0375704
593.09240,0.0373480
592.12802,0.0375366
591.16364,0.0378837
590.19926,0.0381470
589.23488,0.0383206
588.27051,0.0382648
587.30613,0.0381681
586.34175,0.0381764
585.37737,0.0381904
584.41300,0.0381833
583.44862,0.0381532
582.48424,0.0380486
581.51986,0.0378979
580.55548,0.0378692
579.59111,0.0378697
578.62673,0.0378480
577.66235,0.0378211
576.69797,0.0377139
575.73359,0.0376937
574.76922,0.0377465
573.80484,0.0377941
572.84046,0.0378892
571.87608,0.0379593
570.91171,0.0379748
569.94733,0.0379748
568.98295,0.0380127
568.01857,0.0380018
567.05419,0.0379624
566.08982,0.0379721
565.12544,0.0379281
564.16106,0.0378811
563.19668,0.0378473
562.23230,0.0377719
561.26793,0.0376662
560.30355,0.0375132
559.33917,0.0373684
558.37479,0.0373272
557.41041,0.0374019
556.44604,0.0374617
555.48166,0.0374658
554.51728,0.0374313
553.55290,0.0373766
552.58853,0.0373904
551.62415,0.0373990
550.65977,0.0373274
549.69539,0.0372065
548.73101,0.0370614
547.76664,0.0369526
546.80226,0.0369873
545.83788,0.0371585
544.87350,0.0372617
543.90912,0.0372363
542.94475,0.0371875
541.98037,0.0372597
541.01599,0.0374669
540.05161,0.0375909
539.08724,0.0376081
538.12286,0.0375831
537.15848,0.0375258
536.19410,0.0375001
535.22972,0.0374915
534.26535,0.0374964
533.30097,0.0374432
532.33659,0.0373134
531.37221,0.0372923
530.40783,0.0374233
529.44346,0.0375814
528.47908,0.0376559
527.51470,0.0376655
526.55032,0.0376828
525.58594,0.0376726
524.62157,0.0376400
523.65719,0.0376451
522.69281,0.0376782
521.72843,0.0376900
520.76406,0.0376886
519.79968,0.0377378
518.83530,0.0377846
517.87092,0.0377412
516.90654,0.0376788
515.94217,0.0376504
514.97779,0.0375651
514.01341,0.0374119
513.04903,0.0373293
512.08465,0.0373732
511.12028,0.0374335
510.15590,0.0374421
509.19152,0.0374701
508.22714,0.0375380
507.26276,0.0375425
506.29839,0.0374382
505.33401,0.0373771
504.36963,0.0374400
503.40525,0.0374817
502.44088,0.0375266
501.47650,0.0376524
500.51212,0.0377609
499.54774,0.0378215
498.58336,0.0378597
497.61899,0.0379019
496.65461,0.0379094
495.69023,0.0378106
494.72585,0.0376514
493.76147,0.0375658
492.79710,0.0376132
491.83272,0.0376855
490.86834,0.0377425
489.90396,0.0377741
488.93959,0.0377865
487.97521,0.0378224
487.01083,0.0378351
486.04645,0.0378910
485.08207,0.0379716
484.11770,0.0379459
483.15332,0.0378502
482.18894,0.0377970
481.22456,0.0378295
480.26018,0.0378398
479.29581,0.0378259
478.33143,0.0378631
477.36705,0.0379240
476.40267,0.0379261
475.43829,0.0378149
474.47392,0.0376922
473.50954,0.0375583
472.54516,0.0373828
471.58078,0.0372670
470.61641,0.0372270
469.65203,0.0372029
468.68765,0.0371640
467.72327,0.0372197
466.75889,0.0373462
465.79452,0.0373236
464.83014,0.0372014
463.86576,0.0371604
462.90138,0.0372163
461.93700,0.0373156
460.97263,0.0373886
460.00825,0.0374214
459.04387,0.0374333
458.07949,0.0373942
457.11512,0.0373906
456.15074,0.0374450
455.18636,0.0374110
454.22198,0.0372875
453.25760,0.0372010
452.29323,0.0372195
451.32885,0.0372453
450.36447,0.0371814
449.40009,0.0370804
448.43571,0.0370306
447.47134,0.0370600
446.50696,0.0371311
445.54258,0.0372590
444.57820,0.0373592
443.61382,0.0373755
442.64945,0.0373823
441.68507,0.0373385
440.72069,0.0372504
439.75631,0.0371012
438.79194,0.0368822
437.82756,0.0367350
436.86318,0.0367180
435.89880,0.0367943
434.93442,0.0369020
433.97005,0.0369988
433.00567,0.0370370
432.04129,0.0370190
431.07691,0.0370004
430.11253,0.0369684
429.14816,0.0368736
428.18378,0.0366401
427.21940,0.0363573
426.25502,0.0361937
425.29065,0.0361587
424.32627,0.0362101
423.36189,0.0362839
422.39751,0.0363583
421.43313,0.0364174
420.46876,0.0364417
419.50438,0.0364803
418.54000,0.0365199
417.57562,0.0365073
416.61124,0.0364298
415.64687,0.0363272
414.68249,0.0362342
413.71811,0.0361007
412.75373,0.0359173
411.78935,0.0357458
410.82498,0.0356127
409.86060,0.0354858
408.89622,0.0353398
407.93184,0.0352133
406.96747,0.0351430
406.00309,0.0351394
405.03871,0.0351847
404.07433,0.0351847
403.10995,0.0351847
402.14558,0.0351847
401.18120,0.0351847
400.21682,0.0351847
399.25244,0.0351847
