3998.31069,0.0008605
3997.34631,0.0008605
3996.38194,0.0008605
3995.41756,0.0008605
3994.45318,0.0008605
3993.48880,0.0008605
3992.52442,0.0008605
3991.56005,0.0008829
3990.59567,0.0009122
3989.63129,0.0008782
3988.66691,0.0007750
3987.70253,0.0006896
3986.73816,0.0006438
3985.77378,0.0006032
3984.80940,0.0005139
3983.84502,0.0004570
3982.88065,0.0005078
3981.91627,0.0005248
3980.95189,0.0004735
3979.98751,0.0004366
3979.02313,0.0003937
3978.05876,0.0003089
3977.09438,0.0002428
3976.13000,0.0002553
3975.16562,0.0002930
3974.20124,0.0003308
3973.23687,0.0003822
3972.27249,0.0004564
3971.30811,0.0005552
3970.34373,0.0006447
3969.37935,0.0007202
3968.41498,0.0007499
3967.45060,0.0007302
3966.48622,0.0007377
3965.52184,0.0007679
3964.55747,0.0007437
3963.59309,0.0006692
3962.62871,0.0005892
3961.66433,0.0004750
3960.69995,0.0003541
3959.73558,0.0002984
3958.77120,0.0002856
3957.80682,0.0002862
3956.84244,0.0003093
3955.87806,0.0003579
3954.91369,0.0004191
3953.94931,0.0004732
3952.98493,0.0004922
3952.02055,0.0004798
3951.05618,0.0004512
3950.09180,0.0004348
3949.12742,0.0004984
3948.16304,0.0005844
3947.19866,0.0006183
3946.23429,0.0006624
3945.26991,0.0007111
3944.30553,0.0007061
3943.34115,0.0006464
3942.37677,0.0005485
3941.41240,0.0004414
3940.44802,0.0003523
3939.48364,0.0003005
3938.51926,0.0002866
3937.55488,0.0002869
3936.59051,0.0002949
3935.62613,0.0003174
3934.66175,0.0003516
3933.69737,0.0004032
3932.73300,0.0004760
3931.76862,0.0005451
3930.80424,0.0005747
3929.83986,0.0005575
3928.87548,0.0005366
3927.91111,0.0005516
3926.94673,0.0005874
3925.98235,0.0006212
3925.01797,0.0006754
3924.05359,0.0007397
3923.08922,0.0007607
3922.12484,0.0007710
3921.16046,0.0007891
3920.19608,0.0007821
3919.23171,0.0007659
3918.26733,0.0007326
3917.30295,0.0007044
3916.33857,0.0006981
3915.37419,0.0007044
3914.40982,0.0007670
3913.44544,0.0008499
3912.48106,0.0008809
3911.51668,0.0008155
3910.55230,0.0006942
3909.58793,0.0006186
3908.62355,0.0005988
3907.65917,0.0006174
3906.69479,0.0005898
3905.73041,0.0005020
3904.76604,0.0004378
3903.80166,0.0004134
3902.83728,0.0004506
3901.87290,0.0004733
3900.90853,0.0004544
3899.94415,0.0004652
3898.97977,0.0005101
3898.01539,0.0005829
3897.05101,0.0006211
3896.08664,0.0006100
3895.12226,0.0005844
3894.15788,0.0005592
3893.19350,0.0005038
3892.22912,0.0003912
3891.26475,0.0003061
3890.30037,0.0002706
3889.33599,0.0002959
3888.37161,0.0003731
3887.40724,0.0004198
3886.44286,0.0004232
3885.47848,0.0004030
3884.51410,0.0004248
3883.54972,0.0004791
3882.58535,0.0004722
3881.62097,0.0004112
3880.65659,0.0003766
3879.69221,0.0004048
3878.72783,0.0004601
3877.76346,0.0004990
3876.79908,0.0004980
3875.83470,0.0004896
3874.87032,0.0004585
3873.90594,0.0003800
3872.94157,0.0003276
3871.97719,0.0003204
3871.01281,0.0003225
3870.04843,0.0003550
3869.08406,0.0004685
3868.11968,0.0006068
3867.15530,0.0007063
3866.19092,0.0007747
3865.22654,0.0008146
3864.26217,0.0008618
3863.29779,0.0008783
3862.33341,0.0008176
3861.36903,0.0007185
3860.40465,0.0006407
3859.44028,0.0005942
3858.47590,0.0005287
3857.51152,0.0004839
3856.54714,0.0004669
3855.58276,0.0004694
3854.61839,0.0004901
3853.65401,0.0004687
3852.68963,0.0004550
3851.72525,0.0004894
3850.76088,0.0004967
3849.79650,0.0004615
3848.83212,0.0004696
3847.86774,0.0004958
3846.90336,0.0004774
3845.93899,0.0004979
3844.97461,0.0005732
3844.01023,0.0006609
3843.04585,0.0006973
3842.08147,0.0006755
3841.11710,0.0006916
3840.15272,0.0007404
3839.18834,0.0007532
3838.22396,0.0007385
3837.25959,0.0007431
3836.29521,0.0007045
3835.33083,0.0006002
3834.36645,0.0005192
3833.40207,0.0004691
3832.43770,0.0004371
3831.47332,0.0004139
3830.50894,0.0004361
3829.54456,0.0005288
3828.58018,0.0006164
3827.61581,0.0006837
3826.65143,0.0007419
3825.68705,0.0007664
3824.72267,0.0007426
3823.75829,0.0006706
3822.79392,0.0005811
3821.82954,0.0005150
3820.86516,0.0004497
3819.90078,0.0003405
3818.93641,0.0002288
3817.97203,0.0001474
3817.00765,0.0000742
3816.04327,0.0000387
3815.07889,0.0000572
3814.11452,0.0001162
3813.15014,0.0002458
3812.18576,0.0004227
3811.22138,0.0006198
3810.25700,0.0008505
3809.29263,0.0010328
3808.32825,0.0011277
3807.36387,0.0011603
3806.39949,0.0011138
3805.43512,0.0010406
3804.47074,0.0009968
3803.50636,0.0009415
3802.54198,0.0008437
3801.57760,0.0007682
3800.61323,0.0007770
3799.64885,0.0008398
3798.68447,0.0008770
3797.72009,0.0008925
3796.75571,0.0009241
3795.79134,0.0009435
3794.82696,0.0009711
3793.86258,0.0010010
3792.89820,0.0009800
3791.93382,0.0008933
3790.96945,0.0007435
3790.00507,0.0006207
3789.04069,0.0005918
3788.07631,0.0006046
3787.11194,0.0006009
3786.14756,0.0006254
3785.18318,0.0006745
3784.21880,0.0006911
3783.25442,0.0007293
3782.29005,0.0007731
3781.32567,0.0008089
3780.36129,0.0008396
3779.39691,0.0008240
3778.43253,0.0008381
3777.46816,0.0008880
3776.50378,0.0008901
3775.53940,0.0007970
3774.57502,0.0006596
3773.61065,0.0005523
3772.64627,0.0004494
3771.68189,0.0003886
3770.71751,0.0004172
3769.75313,0.0005274
3768.78876,0.0006849
3767.82438,0.0008567
3766.86000,0.0010252
3765.89562,0.0011102
3764.93124,0.0010980
3763.96687,0.0010175
3763.00249,0.0009158
3762.03811,0.0008298
3761.07373,0.0007446
3760.10935,0.0007046
3759.14498,0.0007172
3758.18060,0.0007791
3757.21622,0.0008689
3756.25184,0.0009404
3755.28747,0.0009948
3754.32309,0.0010087
3753.35871,0.0009896
3752.39433,0.0008884
3751.42995,0.0007402
3750.46558,0.0006840
3749.50120,0.0007124
3748.53682,0.0007932
3747.57244,0.0008441
3746.60806,0.0008421
3745.64369,0.0008265
3744.67931,0.0008028
3743.71493,0.0008051
3742.75055,0.0007746
3741.78618,0.0007103
3740.82180,0.0006725
3739.85742,0.0006940
3738.89304,0.0007919
3737.92866,0.0009076
3736.96429,0.0010243
3735.99991,0.0010776
3735.03553,0.0010299
3734.07115,0.0009551
3733.10677,0.0009067
3732.14240,0.0008786
3731.17802,0.0007931
3730.21364,0.0006840
3729.24926,0.0006648
3728.28488,0.0006691
3727.32051,0.0006085
3726.35613,0.0005754
3725.39175,0.0005743
3724.42737,0.0005202
3723.46300,0.0004923
3722.49862,0.0005244
3721.53424,0.0005989
3720.56986,0.0007235
3719.60548,0.0008299
3718.64111,0.0009461
3717.67673,0.0011101
3716.71235,0.0011695
3715.74797,0.0011077
3714.78359,0.0010728
3713.81922,0.0010437
3712.85484,0.0010481
3711.89046,0.0011352
3710.92608,0.0012042
3709.96171,0.0012784
3708.99733,0.0013694
3708.03295,0.0013893
3707.06857,0.0013507
3706.10419,0.0012668
3705.13982,0.0010858
3704.17544,0.0008851
3703.21106,0.0007765
3702.24668,0.0007491
3701.28230,0.0008343
3700.31793,0.0009485
3699.35355,0.0010021
3698.38917,0.0010789
3697.42479,0.0011526
3696.46041,0.0011745
3695.49604,0.0011610
3694.53166,0.0011931
3693.56728,0.0012630
3692.60290,0.0012832
3691.63853,0.0013378
3690.67415,0.0014364
3689.70977,0.0015652
3688.74539,0.0016850
3687.78101,0.0017159
3686.81664,0.0017236
3685.85226,0.0017155
3684.88788,0.0016580
3683.92350,0.0015750
3682.95912,0.0015668
3681.99475,0.0016309
3681.03037,0.0016304
3680.06599,0.0016165
3679.10161,0.0016361
3678.13724,0.0017082
3677.17286,0.0018213
3676.20848,0.0018687
3675.24410,0.0018773
3674.27972,0.0018969
3673.31535,0.0019340
3672.35097,0.0020045
3671.38659,0.0021470
3670.42221,0.0023770
3669.45783,0.0026176
3668.49346,0.0027899
3667.52908,0.0028688
3666.56470,0.0029464
3665.60032,0.0030506
3664.63594,0.0031146
3663.67157,0.0031384
3662.70719,0.0031352
3661.74281,0.0031539
3660.77843,0.0031854
3659.81406,0.0032715
3658.84968,0.0034742
3657.88530,0.0036587
3656.92092,0.0037321
3655.95654,0.0037501
3654.99217,0.0038340
3654.02779,0.0039805
3653.06341,0.0040635
3652.09903,0.0041022
3651.13465,0.0041744
3650.17028,0.0042834
3649.20590,0.0043863
3648.24152,0.0045438
3647.27714,0.0047563
3646.31276,0.0048722
3645.34839,0.0049318
3644.38401,0.0049910
3643.41963,0.0050525
3642.45525,0.0051741
3641.49088,0.0052978
3640.52650,0.0054439
3639.56212,0.0056290
3638.59774,0.0057624
3637.63336,0.0058843
3636.66899,0.0060281
3635.70461,0.0061532
3634.74023,0.0062393
3633.77585,0.0062907
3632.81147,0.0063524
3631.84710,0.0064784
3630.88272,0.0066593
3629.91834,0.0067703
3628.95396,0.0068320
3627.98959,0.0069208
3627.02521,0.0069826
3626.06083,0.0070859
3625.09645,0.0072138
3624.13207,0.0072854
3623.16770,0.0073447
3622.20332,0.0073858
3621.23894,0.0074567
3620.27456,0.0075237
3619.31018,0.0074973
3618.34581,0.0074641
3617.38143,0.0074931
3616.41705,0.0075325
3615.45267,0.0075416
3614.48829,0.0075385
3613.52392,0.0075015
3612.55954,0.0074724
3611.59516,0.0075202
3610.63078,0.0075660
3609.66641,0.0075625
3608.70203,0.0075206
3607.73765,0.0074922
3606.77327,0.0075400
3605.80889,0.0075979
3604.84452,0.0076245
3603.88014,0.0076318
3602.91576,0.0075799
3601.95138,0.0075224
3600.98700,0.0075269
3600.02263,0.0075076
3599.05825,0.0074094
3598.09387,0.0072969
3597.12949,0.0072359
3596.16512,0.0072380
3595.20074,0.0073072
3594.23636,0.0074267
3593.27198,0.0075563
3592.30760,0.0076886
3591.34323,0.0077715
3590.37885,0.0077932
3589.41447,0.0077880
3588.45009,0.0077442
3587.48571,0.0077050
3586.52134,0.0077151
3585.55696,0.0077557
3584.59258,0.0077782
3583.62820,0.0077836
3582.66382,0.0077971
3581.69945,0.0077927
3580.73507,0.0077863
3579.77069,0.0077725
3578.80631,0.0077209
3577.84194,0.0076756
3576.87756,0.0076600
3575.91318,0.0076600
3574.94880,0.0077123
3573.98442,0.0078167
3573.02005,0.0078951
3572.05567,0.0079499
3571.09129,0.0080167
3570.12691,0.0080586
3569.16253,0.0080726
3568.19816,0.0080668
3567.23378,0.0079965
3566.26940,0.0079200
3565.30502,0.0078948
3564.34065,0.0078698
3563.37627,0.0078610
3562.41189,0.0078497
3561.44751,0.0078601
3560.48313,0.0079514
3559.51876,0.0080172
3558.55438,0.0080223
3557.59000,0.0080173
3556.62562,0.0080191
3555.66124,0.0080186
3554.69687,0.0080054
3553.73249,0.0079957
3552.76811,0.0079961
3551.80373,0.0080144
3550.83935,0.0080479
3549.87498,0.0081543
3548.91060,0.0083248
3547.94622,0.0084542
3546.98184,0.0085552
3546.01747,0.0086598
3545.05309,0.0087342
3544.08871,0.0087397
3543.12433,0.0086976
3542.15995,0.0086192
3541.19558,0.0085044
3540.23120,0.0084233
3539.26682,0.0084131
3538.30244,0.0084789
3537.33806,0.0086092
3536.37369,0.0087473
3535.40931,0.0088688
3534.44493,0.0090365
3533.48055,0.0092247
3532.51618,0.0093569
3531.55180,0.0094382
3530.58742,0.0093878
3529.62304,0.0092488
3528.65866,0.0092083
3527.69429,0.0092881
3526.72991,0.0093750
3525.76553,0.0093804
3524.80115,0.0093484
3523.83677,0.0093616
3522.87240,0.0094765
3521.90802,0.0096212
3520.94364,0.0097148
3519.97926,0.0097727
3519.01488,0.0097704
3518.05051,0.0097966
3517.08613,0.0099122
3516.12175,0.0100563
3515.15737,0.0101578
3514.19300,0.0101976
3513.22862,0.0102488
3512.26424,0.0103038
3511.29986,0.0103905
3510.33548,0.0105037
3509.37111,0.0105864
3508.40673,0.0106750
3507.44235,0.0107433
3506.47797,0.0107996
3505.51359,0.0108570
3504.54922,0.0108877
3503.58484,0.0108832
3502.62046,0.0108627
3501.65608,0.0108838
3500.69171,0.0109273
3499.72733,0.0109852
3498.76295,0.0110345
3497.79857,0.0110567
3496.83419,0.0111035
3495.86982,0.0111311
3494.90544,0.0111301
3493.94106,0.0111594
3492.97668,0.0111923
3492.01230,0.0111956
3491.04793,0.0112167
3490.08355,0.0112803
3489.11917,0.0113443
3488.15479,0.0114146
3487.19041,0.0114872
3486.22604,0.0115351
3485.26166,0.0115766
3484.29728,0.0116068
3483.33290,0.0116211
3482.36853,0.0116404
3481.40415,0.0116810
3480.43977,0.0117514
3479.47539,0.0118150
3478.51101,0.0118353
3477.54664,0.0118508
3476.58226,0.0119030
3475.61788,0.0119802
3474.65350,0.0120485
3473.68912,0.0120856
3472.72475,0.0120964
3471.76037,0.0121040
3470.79599,0.0121498
3469.83161,0.0122502
3468.86724,0.0123623
3467.90286,0.0124356
3466.93848,0.0124826
3465.97410,0.0125099
3465.00972,0.0124999
3464.04535,0.0125094
3463.08097,0.0125173
3462.11659,0.0124801
3461.15221,0.0124714
3460.18783,0.0124984
3459.22346,0.0125560
3458.25908,0.0126429
3457.29470,0.0127250
3456.33032,0.0128252
3455.36594,0.0129223
3454.40157,0.0129471
3453.43719,0.0129124
3452.47281,0.0128878
3451.50843,0.0128627
3450.54406,0.0128489
3449.57968,0.0128889
3448.61530,0.0129212
3447.65092,0.0129644
3446.68654,0.0130388
3445.72217,0.0130890
3444.75779,0.0131183
3443.79341,0.0131122
3442.82903,0.0130789
3441.86465,0.0130531
3440.90028,0.0130276
3439.93590,0.0130154
3438.97152,0.0130519
3438.00714,0.0131061
3437.04276,0.0131450
3436.07839,0.0132132
3435.11401,0.0133030
3434.14963,0.0133747
3433.18525,0.0134154
3432.22088,0.0134518
3431.25650,0.0135338
3430.29212,0.0136137
3429.32774,0.0136421
3428.36336,0.0136465
3427.39899,0.0136503
3426.43461,0.0136368
3425.47023,0.0136224
3424.50585,0.0136555
3423.54147,0.0137062
3422.57710,0.0137328
3421.61272,0.0137349
3420.64834,0.0137473
3419.68396,0.0137903
3418.71959,0.0138436
3417.75521,0.0139094
3416.79083,0.0139312
3415.82645,0.0138827
3414.86207,0.0138520
3413.89770,0.0138564
3412.93332,0.0138609
3411.96894,0.0138664
3411.00456,0.0138728
3410.04018,0.0138739
3409.07581,0.0138630
3408.11143,0.0138785
3407.14705,0.0139619
3406.18267,0.0140762
3405.21829,0.0141386
3404.25392,0.0140951
3403.28954,0.0140276
3402.32516,0.0139909
3401.36078,0.0139246
3400.39641,0.0138717
3399.43203,0.0138601
3398.46765,0.0138443
3397.50327,0.0138444
3396.53889,0.0139070
3395.57452,0.0140231
3394.61014,0.0141299
3393.64576,0.0141881
3392.68138,0.0141398
3391.71700,0.0140448
3390.75263,0.0140162
3389.78825,0.0139757
3388.82387,0.0139165
3387.85949,0.0139207
3386.89512,0.0139855
3385.93074,0.0140900
3384.96636,0.0141972
3384.00198,0.0142708
3383.03760,0.0142928
3382.07323,0.0142692
3381.10885,0.0142098
3380.14447,0.0141456
3379.18009,0.0140997
3378.21571,0.0140253
3377.25134,0.0139530
3376.28696,0.0139654
3375.32258,0.0140246
3374.35820,0.0140795
3373.39382,0.0141193
3372.42945,0.0141076
3371.46507,0.0140716
3370.50069,0.0140785
3369.53631,0.0141204
3368.57194,0.0141560
3367.60756,0.0141759
3366.64318,0.0141945
3365.67880,0.0142092
3364.71442,0.0142005
3363.75005,0.0141506
3362.78567,0.0140925
3361.82129,0.0140309
3360.85691,0.0139197
3359.89253,0.0138154
3358.92816,0.0137525
3357.96378,0.0136894
3356.99940,0.0136529
3356.03502,0.0136626
3355.07065,0.0136662
3354.10627,0.0136327
3353.14189,0.0135733
3352.17751,0.0135070
3351.21313,0.0134949
3350.24876,0.0135250
3349.28438,0.0135312
3348.32000,0.0135361
3347.35562,0.0135518
3346.39124,0.0135890
3345.42687,0.0136667
3344.46249,0.0137521
3343.49811,0.0138029
3342.53373,0.0138094
3341.56935,0.0137959
3340.60498,0.0137868
3339.64060,0.0138095
3338.67622,0.0138400
3337.71184,0.0138318
3336.74747,0.0137927
3335.78309,0.0137258
3334.81871,0.0136300
3333.85433,0.0135458
3332.88995,0.0135106
3331.92558,0.0134805
3330.96120,0.0134363
3329.99682,0.0134056
3329.03244,0.0133786
3328.06806,0.0133712
3327.10369,0.0133954
3326.13931,0.0134287
3325.17493,0.0134363
3324.21055,0.0133944
3323.24618,0.0133266
3322.28180,0.0133021
3321.31742,0.0133297
3320.35304,0.0133255
3319.38866,0.0132893
3318.42429,0.0132445
3317.45991,0.0132006
3316.49553,0.0131816
3315.53115,0.0131682
3314.56677,0.0131738
3313.60240,0.0131729
3312.63802,0.0131784
3311.67364,0.0132064
3310.70926,0.0131896
3309.74488,0.0131606
3308.78051,0.0131126
3307.81613,0.0130448
3306.85175,0.0130245
3305.88737,0.0130360
3304.92300,0.0130672
3303.95862,0.0131061
3302.99424,0.0131362
3302.02986,0.0131521
3301.06548,0.0131690
3300.10111,0.0131534
3299.13673,0.0130612
3298.17235,0.0129581
3297.20797,0.0128425
3296.24359,0.0127443
3295.27922,0.0127270
3294.31484,0.0127324
3293.35046,0.0127640
3292.38608,0.0128125
3291.42171,0.0128246
3290.45733,0.0128180
3289.49295,0.0128053
3288.52857,0.0127836
3287.56419,0.0127691
3286.59982,0.0127696
3285.63544,0.0127824
3284.67106,0.0128284
3283.70668,0.0128666
3282.74230,0.0128542
3281.77793,0.0128357
3280.81355,0.0127791
3279.84917,0.0126570
3278.88479,0.0125618
3277.92041,0.0125047
3276.95604,0.0124517
3275.99166,0.0124681
3275.02728,0.0125391
3274.06290,0.0125888
3273.09853,0.0126208
3272.13415,0.0126137
3271.16977,0.0125842
3270.20539,0.0125622
3269.24101,0.0125024
3268.27664,0.0124553
3267.31226,0.0124688
3266.34788,0.0124687
3265.38350,0.0124604
3264.41912,0.0124676
3263.45475,0.0124311
3262.49037,0.0123684
3261.52599,0.0123106
3260.56161,0.0122621
3259.59724,0.0122421
3258.63286,0.0122133
3257.66848,0.0122029
3256.70410,0.0122478
3255.73972,0.0122841
3254.77535,0.0123167
3253.81097,0.0123753
3252.84659,0.0124049
3251.88221,0.0124016
3250.91783,0.0124237
3249.95346,0.0124495
3248.98908,0.0124552
3248.02470,0.0124247
3247.06032,0.0123250
3246.09594,0.0122650
3245.13157,0.0122895
3244.16719,0.0122834
3243.20281,0.0122410
3242.23843,0.0122107
3241.27406,0.0122113
3240.30968,0.0122407
3239.34530,0.0122583
3238.38092,0.0122519
3237.41654,0.0122241
3236.45217,0.0121727
3235.48779,0.0121292
3234.52341,0.0121470
3233.55903,0.0121807
3232.59465,0.0121498
3231.63028,0.0121265
3230.66590,0.0121421
3229.70152,0.0121368
3228.73714,0.0121210
3227.77276,0.0120977
3226.80839,0.0120880
3225.84401,0.0121238
3224.87963,0.0121775
3223.91525,0.0122221
3222.95088,0.0122205
3221.98650,0.0121413
3221.02212,0.0120494
3220.05774,0.0119989
3219.09336,0.0119170
3218.12899,0.0117991
3217.16461,0.0117286
3216.20023,0.0117127
3215.23585,0.0117464
3214.27147,0.0118014
3213.30710,0.0118074
3212.34272,0.0117698
3211.37834,0.0117253
3210.41396,0.0116649
3209.44959,0.0115919
3208.48521,0.0115405
3207.52083,0.0115352
3206.55645,0.0115308
3205.59207,0.0115037
3204.62770,0.0115236
3203.66332,0.0115658
3202.69894,0.0115727
3201.73456,0.0115609
3200.77018,0.0115501
3199.80581,0.0115564
3198.84143,0.0115638
3197.87705,0.0115799
3196.91267,0.0116259
3195.94829,0.0116795
3194.98392,0.0116717
3194.01954,0.0116148
3193.05516,0.0116068
3192.09078,0.0115916
3191.12641,0.0115454
3190.16203,0.0115209
3189.19765,0.0115084
3188.23327,0.0115268
3187.26889,0.0115525
3186.30452,0.0115584
3185.34014,0.0115476
3184.37576,0.0115263
3183.41138,0.0114731
3182.44700,0.0113880
3181.48263,0.0113336
3180.51825,0.0112815
3179.55387,0.0112205
3178.58949,0.0111726
3177.62512,0.0111302
3176.66074,0.0110975
3175.69636,0.0110430
3174.73198,0.0109862
3173.76760,0.0109765
3172.80323,0.0109897
3171.83885,0.0109673
3170.87447,0.0109461
3169.91009,0.0109770
3168.94571,0.0109975
3167.98134,0.0109690
3167.01696,0.0109150
3166.05258,0.0108899
3165.08820,0.0109072
3164.12382,0.0109216
3163.15945,0.0109188
3162.19507,0.0109178
3161.23069,0.0109002
3160.26631,0.0108223
3159.30194,0.0107417
3158.33756,0.0106859
3157.37318,0.0106009
3156.40880,0.0105023
3155.44442,0.0104407
3154.48005,0.0104512
3153.51567,0.0105076
3152.55129,0.0105722
3151.58691,0.0106393
3150.62253,0.0106977
3149.65816,0.0107246
3148.69378,0.0107080
3147.72940,0.0106704
3146.76502,0.0105941
3145.80065,0.0104863
3144.83627,0.0103997
3143.87189,0.0103311
3142.90751,0.0102898
3141.94313,0.0102805
3140.97876,0.0102770
3140.01438,0.0102852
3139.05000,0.0103002
3138.08562,0.0103080
3137.12124,0.0103182
3136.15687,0.0103205
3135.19249,0.0103145
3134.22811,0.0103174
3133.26373,0.0103066
3132.29935,0.0102614
3131.33498,0.0102244
3130.37060,0.0102194
3129.40622,0.0102076
3128.44184,0.0101921
3127.47747,0.0101658
3126.51309,0.0101092
3125.54871,0.0100585
3124.58433,0.0100151
3123.61995,0.0099767
3122.65558,0.0099381
3121.69120,0.0098916
3120.72682,0.0098548
3119.76244,0.0098226
3118.79806,0.0097894
3117.83369,0.0097612
3116.86931,0.0097458
3115.90493,0.0097154
3114.94055,0.0096731
3113.97618,0.0096615
3113.01180,0.0096714
3112.04742,0.0096808
3111.08304,0.0096693
3110.11866,0.0096367
3109.15429,0.0095777
3108.18991,0.0095107
3107.22553,0.0094821
3106.26115,0.0094653
3105.29677,0.0094347
3104.33240,0.0094169
3103.36802,0.0094338
3102.40364,0.0094729
3101.43926,0.0095170
3100.47488,0.0095267
3099.51051,0.0094778
3098.54613,0.0094143
3097.58175,0.0093551
3096.61737,0.0093288
3095.65300,0.0093187
3094.68862,0.0092612
3093.72424,0.0091897
3092.75986,0.0091512
3091.79548,0.0091508
3090.83111,0.0091803
3089.86673,0.0092205
3088.90235,0.0092082
3087.93797,0.0091295
3086.97359,0.0090592
3086.00922,0.0089978
3085.04484,0.0089512
3084.08046,0.0089407
3083.11608,0.0089310
3082.15171,0.0089247
3081.18733,0.0089449
3080.22295,0.0090055
3079.25857,0.0090757
3078.29419,0.0091015
3077.32982,0.0090963
3076.36544,0.0090800
3075.40106,0.0090485
3074.43668,0.0090003
3073.47230,0.0089557
3072.50793,0.0089288
3071.54355,0.0088824
3070.57917,0.0088258
3069.61479,0.0087822
3068.65041,0.0087448
3067.68604,0.0087459
3066.72166,0.0087762
3065.75728,0.0088069
3064.79290,0.0088285
3063.82853,0.0088345
3062.86415,0.0088273
3061.89977,0.0088083
3060.93539,0.0087841
3059.97101,0.0087208
3059.00664,0.0086320
3058.04226,0.0085514
3057.07788,0.0084885
3056.11350,0.0084649
3055.14912,0.0084255
3054.18475,0.0083536
3053.22037,0.0082676
3052.25599,0.0081745
3051.29161,0.0081039
3050.32724,0.0080490
3049.36286,0.0079972
3048.39848,0.0079358
3047.43410,0.0079036
3046.46972,0.0079189
3045.50535,0.0079570
3044.54097,0.0080030
3043.57659,0.0080293
3042.61221,0.0080519
3041.64783,0.0080388
3040.68346,0.0080134
3039.71908,0.0080309
3038.75470,0.0080328
3037.79032,0.0080191
3036.82594,0.0080163
3035.86157,0.0080193
3034.89719,0.0080061
3033.93281,0.0079803
3032.96843,0.0079544
3032.00406,0.0079165
3031.03968,0.0078912
3030.07530,0.0078508
3029.11092,0.0078112
3028.14654,0.0078035
3027.18217,0.0077955
3026.21779,0.0078157
3025.25341,0.0078495
3024.28903,0.0078673
3023.32465,0.0078566
3022.36028,0.0078085
3021.39590,0.0077514
3020.43152,0.0076708
3019.46714,0.0075670
3018.50276,0.0074614
3017.53839,0.0073599
3016.57401,0.0072801
3015.60963,0.0072482
3014.64525,0.0072571
3013.68088,0.0072643
3012.71650,0.0072707
3011.75212,0.0072554
3010.78774,0.0072069
3009.82336,0.0071833
3008.85899,0.0071926
3007.89461,0.0072149
3006.93023,0.0072249
3005.96585,0.0072084
3005.00147,0.0072023
3004.03710,0.0072135
3003.07272,0.0072082
3002.10834,0.0071564
3001.14396,0.0070536
3000.17959,0.0069441
2999.21521,0.0068863
2998.25083,0.0068865
2997.28645,0.0069151
2996.32207,0.0069409
2995.35770,0.0069390
2994.39332,0.0069380
2993.42894,0.0069584
2992.46456,0.0069640
2991.50018,0.0069316
2990.53581,0.0068630
2989.57143,0.0068115
2988.60705,0.0068184
2987.64267,0.0068389
2986.67829,0.0068277
2985.71392,0.0067948
2984.74954,0.0067934
2983.78516,0.0068209
2982.82078,0.0068313
2981.85641,0.0068325
2980.89203,0.0068045
2979.92765,0.0067423
2978.96327,0.0067181
2977.99889,0.0067433
2977.03452,0.0067483
2976.07014,0.0067029
2975.10576,0.0066372
2974.14138,0.0065785
2973.17700,0.0065507
2972.21263,0.0065461
2971.24825,0.0065450
2970.28387,0.0065716
2969.31949,0.0066112
2968.35512,0.0066315
2967.39074,0.0066391
2966.42636,0.0066505
2965.46198,0.0066685
2964.49760,0.0066769
2963.53323,0.0066785
2962.56885,0.0066596
2961.60447,0.0066334
2960.64009,0.0066310
2959.67571,0.0066137
2958.71134,0.0065835
2957.74696,0.0065544
2956.78258,0.0064967
2955.81820,0.0064122
2954.85382,0.0063371
2953.88945,0.0062898
2952.92507,0.0062457
2951.96069,0.0062135
2950.99631,0.0062023
2950.03194,0.0062150
2949.06756,0.0062531
2948.10318,0.0062676
2947.13880,0.0062749
2946.17442,0.0063118
2945.21005,0.0063518
2944.24567,0.0063714
2943.28129,0.0063824
2942.31691,0.0064102
2941.35253,0.0064504
2940.38816,0.0065070
2939.42378,0.0065764
2938.45940,0.0066538
2937.49502,0.0067367
2936.53065,0.0067822
2935.56627,0.0067945
2934.60189,0.0068107
2933.63751,0.0068322
2932.67313,0.0068528
2931.70876,0.0068696
2930.74438,0.0068751
2929.78000,0.0068799
2928.81562,0.0069030
2927.85124,0.0069453
2926.88687,0.0070065
2925.92249,0.0070391
2924.95811,0.0070135
2923.99373,0.0069701
2923.02935,0.0069167
2922.06498,0.0068494
2921.10060,0.0067603
2920.13622,0.0066350
2919.17184,0.0065115
2918.20747,0.0064363
2917.24309,0.0064028
2916.27871,0.0063784
2915.31433,0.0063485
2914.34995,0.0063035
2913.38558,0.0062502
2912.42120,0.0061970
2911.45682,0.0061256
2910.49244,0.0060442
2909.52806,0.0059761
2908.56369,0.0059283
2907.59931,0.0059163
2906.63493,0.0059175
2905.67055,0.0058945
2904.70618,0.0058532
2903.74180,0.0058156
2902.77742,0.0057937
2901.81304,0.0057514
2900.84866,0.0056884
2899.88429,0.0056459
2898.91991,0.0056259
2897.95553,0.0056474
2896.99115,0.0056782
2896.02677,0.0056628
2895.06240,0.0056161
2894.09802,0.0055658
2893.13364,0.0055316
2892.16926,0.0055065
2891.20488,0.0054774
2890.24051,0.0054344
2889.27613,0.0053861
2888.31175,0.0053583
2887.34737,0.0053575
2886.38300,0.0053679
2885.41862,0.0053488
2884.45424,0.0053104
2883.48986,0.0052771
2882.52548,0.0052527
2881.56111,0.0052522
2880.59673,0.0052643
2879.63235,0.0052737
2878.66797,0.0052679
2877.70359,0.0052544
2876.73922,0.0052557
2875.77484,0.0052620
2874.81046,0.0052474
2873.84608,0.0052375
2872.88171,0.0052594
2871.91733,0.0052794
2870.95295,0.0053061
2869.98857,0.0053366
2869.02419,0.0053601
2868.05982,0.0053900
2867.09544,0.0054120
2866.13106,0.0054411
2865.16668,0.0054524
2864.20230,0.0054431
2863.23793,0.0054523
2862.27355,0.0054772
2861.30917,0.0055155
2860.34479,0.0055408
2859.38041,0.0055590
2858.41604,0.0055759
2857.45166,0.0055873
2856.48728,0.0056164
2855.52290,0.0056437
2854.55853,0.0056529
2853.59415,0.0056471
2852.62977,0.0056441
2851.66539,0.0056322
2850.70101,0.0055800
2849.73664,0.0055035
2848.77226,0.0054118
2847.80788,0.0053270
2846.84350,0.0052658
2845.87912,0.0052252
2844.91475,0.0052048
2843.95037,0.0051852
2842.98599,0.0051772
2842.02161,0.0051847
2841.05724,0.0051772
2840.09286,0.0051521
2839.12848,0.0051244
2838.16410,0.0051075
2837.19972,0.0051030
2836.23535,0.0050939
2835.27097,0.0050816
2834.30659,0.0050685
2833.34221,0.0050370
2832.37783,0.0049985
2831.41346,0.0049545
2830.44908,0.0048867
2829.48470,0.0048311
2828.52032,0.0048203
2827.55594,0.0048352
2826.59157,0.0048439
2825.62719,0.0048266
2824.66281,0.0048021
2823.69843,0.0048007
2822.73406,0.0048192
2821.76968,0.0048316
2820.80530,0.0048230
2819.84092,0.0048038
2818.87654,0.0047953
2817.91217,0.0047997
2816.94779,0.0048026
2815.98341,0.0048037
2815.01903,0.0047863
2814.05465,0.0047434
2813.09028,0.0047272
2812.12590,0.0047548
2811.16152,0.0047770
2810.19714,0.0047542
2809.23276,0.0047151
2808.26839,0.0047094
2807.30401,0.0047051
2806.33963,0.0046752
2805.37525,0.0046566
2804.41088,0.0046541
2803.44650,0.0046464
2802.48212,0.0046377
2801.51774,0.0046427
2800.55336,0.0046639
2799.58899,0.0046728
2798.62461,0.0046612
2797.66023,0.0046749
2796.69585,0.0047070
2795.73147,0.0047235
2794.76710,0.0047254
2793.80272,0.0047122
2792.83834,0.0046981
2791.87396,0.0046814
2790.90959,0.0046540
2789.94521,0.0046225
2788.98083,0.0045990
2788.01645,0.0045948
2787.05207,0.0045987
2786.08770,0.0045962
2785.12332,0.0045774
2784.15894,0.0045706
2783.19456,0.0045741
2782.23018,0.0045632
2781.26581,0.0045732
2780.30143,0.0045849
2779.33705,0.0045739
2778.37267,0.0045781
2777.40829,0.0046078
2776.44392,0.0046261
2775.47954,0.0046028
2774.51516,0.0045507
2773.55078,0.0045031
2772.58641,0.0044819
2771.62203,0.0044658
2770.65765,0.0044571
2769.69327,0.0044631
2768.72889,0.0044503
2767.76452,0.0044301
2766.80014,0.0044400
2765.83576,0.0044701
2764.87138,0.0044632
2763.90700,0.0044306
2762.94263,0.0044074
2761.97825,0.0043882
2761.01387,0.0043911
2760.04949,0.0044111
2759.08512,0.0044388
2758.12074,0.0044431
2757.15636,0.0044240
2756.19198,0.0044212
2755.22760,0.0044209
2754.26323,0.0044190
2753.29885,0.0043965
2752.33447,0.0043590
2751.37009,0.0043206
2750.40571,0.0042806
2749.44134,0.0042654
2748.47696,0.0042514
2747.51258,0.0042297
2746.54820,0.0042194
2745.58382,0.0042324
2744.61945,0.0042562
2743.65507,0.0042711
2742.69069,0.0042860
2741.72631,0.0042828
2740.76194,0.0042687
2739.79756,0.0042492
2738.83318,0.0042232
2737.86880,0.0042058
2736.90442,0.0041816
2735.94005,0.0041570
2734.97567,0.0041419
2734.01129,0.0041357
2733.04691,0.0041326
2732.08253,0.0041278
2731.11816,0.0041103
2730.15378,0.0040683
2729.18940,0.0040299
2728.22502,0.0039975
2727.26065,0.0039683
2726.29627,0.0039506
2725.33189,0.0039296
2724.36751,0.0039151
2723.40313,0.0039283
2722.43876,0.0039683
2721.47438,0.0040137
2720.51000,0.0040463
2719.54562,0.0040624
2718.58124,0.0040623
2717.61687,0.0040465
2716.65249,0.0040272
2715.68811,0.0040085
2714.72373,0.0039752
2713.75935,0.0039310
2712.79498,0.0038889
2711.83060,0.0038706
2710.86622,0.0038800
2709.90184,0.0038862
2708.93747,0.0038827
2707.97309,0.0038824
2707.00871,0.0038710
2706.04433,0.0038395
2705.07995,0.0038211
2704.11558,0.0038100
2703.15120,0.0037831
2702.18682,0.0037610
2701.22244,0.0037477
2700.25806,0.0037448
2699.29369,0.0037674
2698.32931,0.0038145
2697.36493,0.0038654
2696.40055,0.0039029
2695.43618,0.0039199
2694.47180,0.0039091
2693.50742,0.0038878
2692.54304,0.0038584
2691.57866,0.0038145
2690.61429,0.0037753
2689.64991,0.0037366
2688.68553,0.0036914
2687.72115,0.0036675
2686.75677,0.0036736
2685.79240,0.0036870
2684.82802,0.0036978
2683.86364,0.0036945
2682.89926,0.0036687
2681.93488,0.0036398
2680.97051,0.0036313
2680.00613,0.0036354
2679.04175,0.0036381
2678.07737,0.0036511
2677.11300,0.0036643
2676.14862,0.0036745
2675.18424,0.0037028
2674.21986,0.0037490
2673.25548,0.0037865
2672.29111,0.0037824
2671.32673,0.0037542
2670.36235,0.0037308
2669.39797,0.0037118
2668.43359,0.0036848
2667.46922,0.0036417
2666.50484,0.0036031
2665.54046,0.0035641
2664.57608,0.0035291
2663.61171,0.0035260
2662.64733,0.0035222
2661.68295,0.0034927
2660.71857,0.0034646
2659.75419,0.0034455
2658.78982,0.0034218
2657.82544,0.0034076
2656.86106,0.0034172
2655.89668,0.0034372
2654.93230,0.0034611
2653.96793,0.0034863
2653.00355,0.0035012
2652.03917,0.0035068
2651.07479,0.0034956
2650.11041,0.0034565
2649.14604,0.0034143
2648.18166,0.0033728
2647.21728,0.0033322
2646.25290,0.0033083
2645.28853,0.0032808
2644.32415,0.0032524
2643.35977,0.0032435
2642.39539,0.0032515
2641.43101,0.0032649
2640.46664,0.0032773
2639.50226,0.0032845
2638.53788,0.0032789
2637.57350,0.0032816
2636.60912,0.0032961
2635.64475,0.0032934
2634.68037,0.0032513
2633.71599,0.0031825
2632.75161,0.0031334
2631.78724,0.0031053
2630.82286,0.0031014
2629.85848,0.0031335
2628.89410,0.0031532
2627.92972,0.0031419
2626.96535,0.0031503
2626.00097,0.0031774
2625.03659,0.0031786
2624.07221,0.0031566
2623.10783,0.0031056
2622.14346,0.0030530
2621.17908,0.0030289
2620.21470,0.0030055
2619.25032,0.0030022
2618.28594,0.0030067
2617.32157,0.0029799
2616.35719,0.0029397
2615.39281,0.0029123
2614.42843,0.0029051
2613.46406,0.0029013
2612.49968,0.0029019
2611.53530,0.0029083
2610.57092,0.0029425
2609.60654,0.0030167
2608.64217,0.0030902
2607.67779,0.0031530
2606.71341,0.0031969
2605.74903,0.0032163
2604.78465,0.0032068
2603.82028,0.0031728
2602.85590,0.0031496
2601.89152,0.0031128
2600.92714,0.0030589
2599.96276,0.0030311
2598.99839,0.0030241
2598.03401,0.0030130
2597.06963,0.0029677
2596.10525,0.0029108
2595.14088,0.0028921
2594.17650,0.0028763
2593.21212,0.0028485
2592.24774,0.0028313
2591.28336,0.0028007
2590.31899,0.0027860
2589.35461,0.0028293
2588.39023,0.0028834
2587.42585,0.0029002
2586.46147,0.0028756
2585.49710,0.0028102
2584.53272,0.0027368
2583.56834,0.0027041
2582.60396,0.0026833
2581.63959,0.0026551
2580.67521,0.0026526
2579.71083,0.0026853
2578.74645,0.0027573
2577.78207,0.0028229
2576.81770,0.0028464
2575.85332,0.0028468
2574.88894,0.0028279
2573.92456,0.0027845
2572.96018,0.0027004
2571.99581,0.0026217
2571.03143,0.0025762
2570.06705,0.0025229
2569.10267,0.0025037
2568.13829,0.0025268
2567.17392,0.0025481
2566.20954,0.0025823
2565.24516,0.0026462
2564.28078,0.0027299
2563.31641,0.0027813
2562.35203,0.0027753
2561.38765,0.0027573
2560.42327,0.0027617
2559.45889,0.0027467
2558.49452,0.0026475
2557.53014,0.0025053
2556.56576,0.0024035
2555.60138,0.0023816
2554.63700,0.0024214
2553.67263,0.0024779
2552.70825,0.0025671
2551.74387,0.0026603
2550.77949,0.0027215
2549.81512,0.0028077
2548.85074,0.0029199
2547.88636,0.0030183
2546.92198,0.0030654
2545.95760,0.0030305
2544.99323,0.0029671
2544.02885,0.0029390
2543.06447,0.0029303
2542.10009,0.0028785
2541.13571,0.0027828
2540.17134,0.0026599
2539.20696,0.0024657
2538.24258,0.0022694
2537.27820,0.0021899
2536.31382,0.0022021
2535.34945,0.0022394
2534.38507,0.0022593
2533.42069,0.0022936
2532.45631,0.0024151
2531.49194,0.0025556
2530.52756,0.0025974
2529.56318,0.0025484
2528.59880,0.0024826
2527.63442,0.0024319
2526.67005,0.0024026
2525.70567,0.0024027
2524.74129,0.0024198
2523.77691,0.0024344
2522.81253,0.0024274
2521.84816,0.0024085
2520.88378,0.0023978
2519.91940,0.0023895
2518.95502,0.0023633
2517.99065,0.0023192
2517.02627,0.0023245
2516.06189,0.0023807
2515.09751,0.0024326
2514.13313,0.0024967
2513.16876,0.0025395
2512.20438,0.0025192
2511.24000,0.0024816
2510.27562,0.0024445
2509.31124,0.0023995
2508.34687,0.0023970
2507.38249,0.0024195
2506.41811,0.0023935
2505.45373,0.0023702
2504.48935,0.0023700
2503.52498,0.0023711
2502.56060,0.0023902
2501.59622,0.0023631
2500.63184,0.0023014
2499.66747,0.0022843
2498.70309,0.0022988
2497.73871,0.0023248
2496.77433,0.0023543
2495.80995,0.0023617
2494.84558,0.0023434
2493.88120,0.0023649
2492.91682,0.0024183
2491.95244,0.0024214
2490.98806,0.0024045
2490.02369,0.0023676
2489.05931,0.0023101
2488.09493,0.0023330
2487.13055,0.0024296
2486.16618,0.0024834
2485.20180,0.0024377
2484.23742,0.0023747
2483.27304,0.0023539
2482.30866,0.0023383
2481.34429,0.0023148
2480.37991,0.0022753
2479.41553,0.0022319
2478.45115,0.0021864
2477.48677,0.0021765
2476.52240,0.0022494
2475.55802,0.0023245
2474.59364,0.0023391
2473.62926,0.0023037
2472.66488,0.0022894
2471.70051,0.0023037
2470.73613,0.0022873
2469.77175,0.0022816
2468.80737,0.0022641
2467.84300,0.0022050
2466.87862,0.0021576
2465.91424,0.0021503
2464.94986,0.0021349
2463.98548,0.0020385
2463.02111,0.0019274
2462.05673,0.0018827
2461.09235,0.0018952
2460.12797,0.0019063
2459.16359,0.0019184
2458.19922,0.0019597
2457.23484,0.0019546
2456.27046,0.0019415
2455.30608,0.0019660
2454.34171,0.0019790
2453.37733,0.0019429
2452.41295,0.0018321
2451.44857,0.0017580
2450.48419,0.0017721
2449.51982,0.0017987
2448.55544,0.0018361
2447.59106,0.0019018
2446.62668,0.0019382
2445.66230,0.0019232
2444.69793,0.0019264
2443.73355,0.0019309
2442.76917,0.0019151
2441.80479,0.0018918
2440.84041,0.0018734
2439.87604,0.0019201
2438.91166,0.0020028
2437.94728,0.0020974
2436.98290,0.0022018
2436.01853,0.0022542
2435.05415,0.0022501
2434.08977,0.0022362
2433.12539,0.0022146
2432.16101,0.0021566
2431.19664,0.0020977
2430.23226,0.0020533
2429.26788,0.0020301
2428.30350,0.0020407
2427.33912,0.0020339
2426.37475,0.0020276
2425.41037,0.0020268
2424.44599,0.0020082
2423.48161,0.0020027
2422.51724,0.0019935
2421.55286,0.0019731
2420.58848,0.0019785
2419.62410,0.0020039
2418.65972,0.0020127
2417.69535,0.0020329
2416.73097,0.0020623
2415.76659,0.0020522
2414.80221,0.0020320
2413.83783,0.0020018
2412.87346,0.0019791
2411.90908,0.0020069
2410.94470,0.0020207
2409.98032,0.0019951
2409.01594,0.0019894
2408.05157,0.0019907
2407.08719,0.0019558
2406.12281,0.0019146
2405.15843,0.0018613
2404.19406,0.0017921
2403.22968,0.0017514
2402.26530,0.0017387
2401.30092,0.0017749
2400.33654,0.0018278
2399.37217,0.0018386
2398.40779,0.0018585
2397.44341,0.0019497
2396.47903,0.0020735
2395.51465,0.0021240
2394.55028,0.0021125
2393.58590,0.0020950
2392.62152,0.0020775
2391.65714,0.0020727
2390.69276,0.0020680
2389.72839,0.0020676
2388.76401,0.0020654
2387.79963,0.0020752
2386.83525,0.0021074
2385.87088,0.0021329
2384.90650,0.0021582
2383.94212,0.0021537
2382.97774,0.0021192
2382.01336,0.0020905
2381.04899,0.0020983
2380.08461,0.0021724
2379.12023,0.0022815
2378.15585,0.0024364
2377.19147,0.0026518
2376.22710,0.0028679
2375.26272,0.0030374
2374.29834,0.0031982
2373.33396,0.0034068
2372.36959,0.0036379
2371.40521,0.0038458
2370.44083,0.0040088
2369.47645,0.0041628
2368.51207,0.0043206
2367.54770,0.0044415
2366.58332,0.0045548
2365.61894,0.0046817
2364.65456,0.0047872
2363.69018,0.0048662
2362.72581,0.0049663
2361.76143,0.0050880
2360.79705,0.0051689
2359.83267,0.0051757
2358.86829,0.0051124
2357.90392,0.0050096
2356.93954,0.0048687
2355.97516,0.0046678
2355.01078,0.0043882
2354.04641,0.0040375
2353.08203,0.0036804
2352.11765,0.0033746
2351.15327,0.0031509
2350.18889,0.0030125
2349.22452,0.0029670
2348.26014,0.0030313
2347.29576,0.0031783
2346.33138,0.0033706
2345.36700,0.0036090
2344.40263,0.0038603
2343.43825,0.0040093
2342.47387,0.0040409
2341.50949,0.0040678
2340.54512,0.0041324
2339.58074,0.0041692
2338.61636,0.0041687
2337.65198,0.0041821
2336.68760,0.0041676
2335.72323,0.0040963
2334.75885,0.0040187
2333.79447,0.0039871
2332.83009,0.0039835
2331.86571,0.0039299
2330.90134,0.0038534
2329.93696,0.0038142
2328.97258,0.0038004
2328.00820,0.0037622
2327.04382,0.0036942
2326.07945,0.0036209
2325.11507,0.0034926
2324.15069,0.0033369
2323.18631,0.0032138
2322.22194,0.0031443
2321.25756,0.0031313
2320.29318,0.0030910
2319.32880,0.0030144
2318.36442,0.0029396
2317.40005,0.0028709
2316.43567,0.0028217
2315.47129,0.0027834
2314.50691,0.0027145
2313.54253,0.0025943
2312.57816,0.0025143
2311.61378,0.0024852
2310.64940,0.0024550
2309.68502,0.0024264
2308.72065,0.0023338
2307.75627,0.0022104
2306.79189,0.0021452
2305.82751,0.0021224
2304.86313,0.0021126
2303.89876,0.0020814
2302.93438,0.0020136
2301.97000,0.0019398
2301.00562,0.0019232
2300.04124,0.0019522
2299.07687,0.0019487
2298.11249,0.0019207
2297.14811,0.0018665
2296.18373,0.0018098
2295.21935,0.0018369
2294.25498,0.0018961
2293.29060,0.0019046
2292.32622,0.0018741
2291.36184,0.0018676
2290.39747,0.0019254
2289.43309,0.0020141
2288.46871,0.0021139
2287.50433,0.0021350
2286.53995,0.0020112
2285.57558,0.0018277
2284.61120,0.0016391
2283.64682,0.0014991
2282.68244,0.0014148
2281.71806,0.0013242
2280.75369,0.0012456
2279.78931,0.0012168
2278.82493,0.0012153
2277.86055,0.0012333
2276.89618,0.0012906
2275.93180,0.0012971
2274.96742,0.0012234
2274.00304,0.0011559
2273.03866,0.0011239
2272.07429,0.0011608
2271.10991,0.0012148
2270.14553,0.0012476
2269.18115,0.0013400
2268.21677,0.0014716
2267.25240,0.0015941
2266.28802,0.0017453
2265.32364,0.0018586
2264.35926,0.0018477
2263.39488,0.0018076
2262.43051,0.0017330
2261.46613,0.0015954
2260.50175,0.0014439
2259.53737,0.0012189
2258.57300,0.0010550
2257.60862,0.0010234
2256.64424,0.0009759
2255.67986,0.0009812
2254.71548,0.0010815
2253.75111,0.0011851
2252.78673,0.0012733
2251.82235,0.0013419
2250.85797,0.0013892
2249.89359,0.0014442
2248.92922,0.0014409
2247.96484,0.0013155
2247.00046,0.0011990
2246.03608,0.0011311
2245.07171,0.0010870
2244.10733,0.0011233
2243.14295,0.0011840
2242.17857,0.0011937
2241.21419,0.0011317
2240.24982,0.0009797
2239.28544,0.0008257
2238.32106,0.0006779
2237.35668,0.0004335
2236.39230,0.0001539
2235.42793,-0.0000407
2234.46355,-0.0001332
2233.49917,-0.0001575
2232.53479,-0.0001739
2231.57041,-0.0001852
2230.60604,-0.0001754
2229.64166,-0.0001585
2228.67728,-0.0001502
2227.71290,-0.0001485
2226.74853,-0.0001469
2225.78415,-0.0001453
2224.81977,-0.0001437
2223.85539,-0.0001421
2222.89101,-0.0001405
2221.92664,-0.0001389
2220.96226,-0.0001373
2219.99788,-0.0001357
2219.03350,-0.0001341
2218.06912,-0.0001325
2217.10475,-0.0001309
2216.14037,-0.0001293
2215.17599,-0.0001277
2214.21161,-0.0001261
2213.24724,-0.0001245
2212.28286,-0.0001229
2211.31848,-0.0001212
2210.35410,-0.0001196
2209.38972,-0.0001180
2208.42535,-0.0001164
2207.46097,-0.0001148
2206.49659,-0.0001132
2205.53221,-0.0001116
2204.56783,-0.0001100
2203.60346,-0.0001084
2202.63908,-0.0001068
2201.67470,-0.0001052
2200.71032,-0.0001036
2199.74594,-0.0001020
2198.78157,-0.0001004
2197.81719,-0.0000988
2196.85281,-0.0000972
2195.88843,-0.0000956
2194.92406,-0.0000939
2193.95968,-0.0000923
2192.99530,-0.0000907
2192.03092,-0.0000891
2191.06654,-0.0000875
2190.10217,-0.0000859
2189.13779,-0.0000843
2188.17341,-0.0000827
2187.20903,-0.0000811
2186.24465,-0.0000795
2185.28028,-0.0000779
2184.31590,-0.0000763
2183.35152,-0.0000747
2182.38714,-0.0000731
2181.42276,-0.0000715
2180.45839,-0.0000699
2179.49401,-0.0000683
2178.52963,-0.0000666
2177.56525,-0.0000650
2176.60088,-0.0000634
2175.63650,-0.0000618
2174.67212,-0.0000602
2173.70774,-0.0000586
2172.74336,-0.0000570
2171.77899,-0.0000554
2170.81461,-0.0000538
2169.85023,-0.0000522
2168.88585,-0.0000506
2167.92147,-0.0000490
2166.95710,-0.0000474
2165.99272,-0.0000458
2165.02834,-0.0000442
2164.06396,-0.0000426
2163.09959,-0.0000410
2162.13521,-0.0000393
2161.17083,-0.0000377
2160.20645,-0.0000361
2159.24207,-0.0000345
2158.27770,-0.0000329
2157.31332,-0.0000313
2156.34894,-0.0000297
2155.38456,-0.0000281
2154.42018,-0.0000265
2153.45581,-0.0000249
2152.49143,-0.0000233
2151.52705,-0.0000217
2150.56267,-0.0000201
2149.59829,-0.0000185
2148.63392,-0.0000169
2147.66954,-0.0000153
2146.70516,-0.0000137
2145.74078,-0.0000120
2144.77641,-0.0000104
2143.81203,-0.0000088
2142.84765,-0.0000072
2141.88327,-0.0000056
2140.91889,-0.0000040
2139.95452,-0.0000024
2138.99014,-0.0000008
2138.02576,0.0000008
2137.06138,0.0000024
2136.09700,0.0000040
2135.13263,0.0000056
2134.16825,0.0000072
2133.20387,0.0000088
2132.23949,0.0000104
2131.27512,0.0000120
2130.31074,0.0000136
2129.34636,0.0000153
2128.38198,0.0000169
2127.41760,0.0000185
2126.45323,0.0000201
2125.48885,0.0000217
2124.52447,0.0000233
2123.56009,0.0000249
2122.59571,0.0000265
2121.63134,0.0000281
2120.66696,0.0000297
2119.70258,0.0000313
2118.73820,0.0000329
2117.77382,0.0000345
2116.80945,0.0000361
2115.84507,0.0000377
2114.88069,0.0000393
2113.91631,0.0000410
2112.95194,0.0000426
2111.98756,0.0000442
2111.02318,0.0000458
2110.05880,0.0000474
2109.09442,0.0000490
2108.13005,0.0000506
2107.16567,0.0000522
2106.20129,0.0000538
2105.23691,0.0000554
2104.27253,0.0000570
2103.30816,0.0000586
2102.34378,0.0000602
2101.37940,0.0000618
2100.41502,0.0000634
2099.45065,0.0000650
2098.48627,0.0000666
2097.52189,0.0000683
2096.55751,0.0000699
2095.59313,0.0000715
2094.62876,0.0000731
2093.66438,0.0000747
2092.70000,0.0000763
2091.73562,0.0000779
2090.77124,0.0000795
2089.80687,0.0000811
2088.84249,0.0000827
2087.87811,0.0000843
2086.91373,0.0000859
2085.94935,0.0000875
2084.98498,0.0000891
2084.02060,0.0000907
2083.05622,0.0000923
2082.09184,0.0000939
2081.12747,0.0000956
2080.16309,0.0000972
2079.19871,0.0000988
2078.23433,0.0001004
2077.26995,0.0001020
2076.30558,0.0001036
2075.34120,0.0001052
2074.37682,0.0001068
2073.41244,0.0001084
2072.44806,0.0001100
2071.48369,0.0001116
2070.51931,0.0001132
2069.55493,0.0001148
2068.59055,0.0001164
2067.62618,0.0001180
2066.66180,0.0001196
2065.69742,0.0001212
2064.73304,0.0001229
2063.76866,0.0001245
2062.80429,0.0001261
2061.83991,0.0001277
2060.87553,0.0001293
2059.91115,0.0001309
2058.94677,0.0001325
2057.98240,0.0001341
2057.01802,0.0001357
2056.05364,0.0001373
2055.08926,0.0001389
2054.12488,0.0001405
2053.16051,0.0001421
2052.19613,0.0001437
2051.23175,0.0001453
2050.26737,0.0001469
2049.30300,0.0001485
2048.33862,0.0001502
2047.37424,0.0001518
2046.40986,0.0001534
2045.44548,0.0001550
2044.48111,0.0001566
2043.51673,0.0001582
2042.55235,0.0001598
2041.58797,0.0001614
2040.62359,0.0001630
2039.65922,0.0001646
2038.69484,0.0001662
2037.73046,0.0001678
2036.76608,0.0001694
2035.80171,0.0001710
2034.83733,0.0001726
2033.87295,0.0001742
2032.90857,0.0001758
2031.94419,0.0001775
2030.97982,0.0001791
2030.01544,0.0001807
2029.05106,0.0001823
2028.08668,0.0001839
2027.12230,0.0001855
2026.15793,0.0001871
2025.19355,0.0001887
2024.22917,0.0001903
2023.26479,0.0001919
2022.30041,0.0001935
2021.33604,0.0001951
2020.37166,0.0001967
2019.40728,0.0001983
2018.44290,0.0001999
2017.47853,0.0002015
2016.51415,0.0002031
2015.54977,0.0002048
2014.58539,0.0002064
2013.62101,0.0002080
2012.65664,0.0002096
2011.69226,0.0002112
2010.72788,0.0002128
2009.76350,0.0002144
2008.79912,0.0002160
2007.83475,0.0002176
2006.87037,0.0002192
2005.90599,0.0002208
2004.94161,0.0002224
2003.97724,0.0002240
2003.01286,0.0002256
2002.04848,0.0002272
2001.08410,0.0002288
2000.11972,0.0002305
1999.15535,0.0002321
1998.19097,0.0002337
1997.22659,0.0002353
1996.26221,0.0002369
1995.29783,0.0002385
1994.33346,0.0002401
1993.36908,0.0002417
1992.40470,0.0002433
1991.44032,0.0002449
1990.47594,0.0002465
1989.51157,0.0002481
1988.54719,0.0002497
1987.58281,0.0002513
1986.61843,0.0002529
1985.65406,0.0002545
1984.68968,0.0002561
1983.72530,0.0002578
1982.76092,0.0002594
1981.79654,0.0002610
1980.83217,0.0002626
1979.86779,0.0002642
1978.90341,0.0002658
1977.93903,0.0002674
1976.97465,0.0002690
1976.01028,0.0002706
1975.04590,0.0002722
1974.08152,0.0002738
1973.11714,0.0002754
1972.15276,0.0002770
1971.18839,0.0002786
1970.22401,0.0002802
1969.25963,0.0002818
1968.29525,0.0002834
1967.33088,0.0002851
1966.36650,0.0002867
1965.40212,0.0002883
1964.43774,0.0002899
1963.47336,0.0002915
1962.50899,0.0002931
1961.54461,0.0002947
1960.58023,0.0002963
1959.61585,0.0002979
1958.65147,0.0002995
1957.68710,0.0003011
1956.72272,0.0003027
1955.75834,0.0003043
1954.79396,0.0003059
1953.82959,0.0003075
1952.86521,0.0003091
1951.90083,0.0003107
1950.93645,0.0003124
1949.97207,0.0003140
1949.00770,0.0003156
1948.04332,0.0003172
1947.07894,0.0003188
1946.11456,0.0003204
1945.15018,0.0003220
1944.18581,0.0003236
1943.22143,0.0003252
1942.25705,0.0003268
1941.29267,0.0003284
1940.32829,0.0003300
1939.36392,0.0003316
1938.39954,0.0003332
1937.43516,0.0002999
1936.47078,0.0002597
1935.50641,0.0003005
1934.54203,0.0004027
1933.57765,0.0005113
1932.61327,0.0006550
1931.64889,0.0008324
1930.68452,0.0009583
1929.72014,0.0009806
1928.75576,0.0009595
1927.79138,0.0009923
1926.82700,0.0009924
1925.86263,0.0009321
1924.89825,0.0009296
1923.93387,0.0010388
1922.96949,0.0011756
1922.00512,0.0011724
1921.04074,0.0011361
1920.07636,0.0011427
1919.11198,0.0011199
1918.14760,0.0011646
1917.18323,0.0013229
1916.21885,0.0015559
1915.25447,0.0016958
1914.29009,0.0017385
1913.32571,0.0017754
1912.36134,0.0017714
1911.39696,0.0016933
1910.43258,0.0014997
1909.46820,0.0013260
1908.50382,0.0011960
1907.53945,0.0011561
1906.57507,0.0012888
1905.61069,0.0014033
1904.64631,0.0014822
1903.68194,0.0015089
1902.71756,0.0014473
1901.75318,0.0013899
1900.78880,0.0013262
1899.82442,0.0012724
1898.86005,0.0012358
1897.89567,0.0011698
1896.93129,0.0011131
1895.96691,0.0011593
1895.00253,0.0012348
1894.03816,0.0012548
1893.07378,0.0012579
1892.10940,0.0012263
1891.14502,0.0011843
1890.18065,0.0011694
1889.21627,0.0011838
1888.25189,0.0011860
1887.28751,0.0011416
1886.32313,0.0011225
1885.35876,0.0011481
1884.39438,0.0011923
1883.43000,0.0012411
1882.46562,0.0012647
1881.50124,0.0012408
1880.53687,0.0012231
1879.57249,0.0012521
1878.60811,0.0012836
1877.64373,0.0013394
1876.67935,0.0014230
1875.71498,0.0015069
1874.75060,0.0015716
1873.78622,0.0015938
1872.82184,0.0016170
1871.85747,0.0016490
1870.89309,0.0016544
1869.92871,0.0016278
1868.96433,0.0015995
1867.99995,0.0015870
1867.03558,0.0015691
1866.07120,0.0015780
1865.10682,0.0016516
1864.14244,0.0017181
1863.17806,0.0017205
1862.21369,0.0017176
1861.24931,0.0017354
1860.28493,0.0017715
1859.32055,0.0017896
1858.35618,0.0017589
1857.39180,0.0017475
1856.42742,0.0017479
1855.46304,0.0017443
1854.49866,0.0017627
1853.53429,0.0017802
1852.56991,0.0017921
1851.60553,0.0018182
1850.64115,0.0018683
1849.67677,0.0019230
1848.71240,0.0019891
1847.74802,0.0020426
1846.78364,0.0020657
1845.81926,0.0020690
1844.85488,0.0020408
1843.89051,0.0020546
1842.92613,0.0021018
1841.96175,0.0021279
1840.99737,0.0021702
1840.03300,0.0022408
1839.06862,0.0023151
1838.10424,0.0023555
1837.13986,0.0024070
1836.17548,0.0024624
1835.21111,0.0024799
1834.24673,0.0025044
1833.28235,0.0025343
1832.31797,0.0025778
1831.35359,0.0026159
1830.38922,0.0026382
1829.42484,0.0026694
1828.46046,0.0026722
1827.49608,0.0026476
1826.53171,0.0026288
1825.56733,0.0026472
1824.60295,0.0026907
1823.63857,0.0027601
1822.67419,0.0028759
1821.70982,0.0029622
1820.74544,0.0030063
1819.78106,0.0030574
1818.81668,0.0031170
1817.85230,0.0031488
1816.88793,0.0031224
1815.92355,0.0030931
1814.95917,0.0031120
1813.99479,0.0031631
1813.03041,0.0032193
1812.06604,0.0032701
1811.10166,0.0033009
1810.13728,0.0032948
1809.17290,0.0032890
1808.20853,0.0033141
1807.24415,0.0033344
1806.27977,0.0033180
1805.31539,0.0032954
1804.35101,0.0033101
1803.38664,0.0033590
1802.42226,0.0034137
1801.45788,0.0034615
1800.49350,0.0035035
1799.52912,0.0035269
1798.56475,0.0035403
1797.60037,0.0035737
1796.63599,0.0036217
1795.67161,0.0036701
1794.70724,0.0037196
1793.74286,0.0037573
1792.77848,0.0037687
1791.81410,0.0037763
1790.84972,0.0037898
1789.88535,0.0037898
1788.92097,0.0037808
1787.95659,0.0037705
1786.99221,0.0037753
1786.02783,0.0038158
1785.06346,0.0038812
1784.09908,0.0039482
1783.13470,0.0040028
1782.17032,0.0040352
1781.20594,0.0040554
1780.24157,0.0041016
1779.27719,0.0041616
1778.31281,0.0042095
1777.34843,0.0042717
1776.38406,0.0043514
1775.41968,0.0044348
1774.45530,0.0045083
1773.49092,0.0045647
1772.52654,0.0046181
1771.56217,0.0046761
1770.59779,0.0047444
1769.63341,0.0048194
1768.66903,0.0049029
1767.70465,0.0050036
1766.74028,0.0051211
1765.77590,0.0052481
1764.81152,0.0053664
1763.84714,0.0054686
1762.88276,0.0055605
1761.91839,0.0056560
1760.95401,0.0057523
1759.98963,0.0058399
1759.02525,0.0059283
1758.06088,0.0060137
1757.09650,0.0060992
1756.13212,0.0061907
1755.16774,0.0062857
1754.20336,0.0063899
1753.23899,0.0064994
1752.27461,0.0066171
1751.31023,0.0067375
1750.34585,0.0068495
1749.38147,0.0069504
1748.41710,0.0070285
1747.45272,0.0070852
1746.48834,0.0071304
1745.52396,0.0071691
1744.55959,0.0072052
1743.59521,0.0072479
1742.63083,0.0073012
1741.66645,0.0073529
1740.70207,0.0074018
1739.73770,0.0074462
1738.77332,0.0074823
1737.80894,0.0075107
1736.84456,0.0075176
1735.88018,0.0075092
1734.91581,0.0075007
1733.95143,0.0074843
1732.98705,0.0074570
1732.02267,0.0074262
1731.05829,0.0073955
1730.09392,0.0073625
1729.12954,0.0073201
1728.16516,0.0072701
1727.20078,0.0072243
1726.23641,0.0071839
1725.27203,0.0071391
1724.30765,0.0070891
1723.34327,0.0070425
1722.37889,0.0069985
1721.41452,0.0069555
1720.45014,0.0069218
1719.48576,0.0069015
1718.52138,0.0068921
1717.55700,0.0068798
1716.59263,0.0068585
1715.62825,0.0068327
1714.66387,0.0067891
1713.69949,0.0067333
1712.73512,0.0066840
1711.77074,0.0066314
1710.80636,0.0065684
1709.84198,0.0065077
1708.87760,0.0064618
1707.91323,0.0064206
1706.94885,0.0063779
1705.98447,0.0063431
1705.02009,0.0063089
1704.05571,0.0062677
1703.09134,0.0062227
1702.12696,0.0061844
1701.16258,0.0061621
1700.19820,0.0061466
1699.23382,0.0061302
1698.26945,0.0061126
1697.30507,0.0060919
1696.34069,0.0060672
1695.37631,0.0060444
1694.41194,0.0060397
1693.44756,0.0060539
1692.48318,0.0060670
1691.51880,0.0060792
1690.55442,0.0061116
1689.59005,0.0061743
1688.62567,0.0062590
1687.66129,0.0063455
1686.69691,0.0064236
1685.73253,0.0065103
1684.76816,0.0066176
1683.80378,0.0067204
1682.83940,0.0068113
1681.87502,0.0069151
1680.91065,0.0070224
1679.94627,0.0071217
1678.98189,0.0072298
1678.01751,0.0073453
1677.05313,0.0074643
1676.08876,0.0075847
1675.12438,0.0077079
1674.16000,0.0078532
1673.19562,0.0080177
1672.23124,0.0081762
1671.26687,0.0083277
1670.30249,0.0084937
1669.33811,0.0086657
1668.37373,0.0088247
1667.40935,0.0089925
1666.44498,0.0091707
1665.48060,0.0093505
1664.51622,0.0095322
1663.55184,0.0097043
1662.58747,0.0098850
1661.62309,0.0100742
1660.65871,0.0102434
1659.69433,0.0103892
1658.72995,0.0105357
1657.76558,0.0107064
1656.80120,0.0108872
1655.83682,0.0110670
1654.87244,0.0112347
1653.90806,0.0114008
1652.94369,0.0115708
1651.97931,0.0117320
1651.01493,0.0119012
1650.05055,0.0120572
1649.08618,0.0121862
1648.12180,0.0123085
1647.15742,0.0124367
1646.19304,0.0125749
1645.22866,0.0126982
1644.26429,0.0128044
1643.29991,0.0129013
1642.33553,0.0129994
1641.37115,0.0131113
1640.40677,0.0132340
1639.44240,0.0133462
1638.47802,0.0134353
1637.51364,0.0135248
1636.54926,0.0136073
1635.58488,0.0136722
1634.62051,0.0137323
1633.65613,0.0137868
1632.69175,0.0138309
1631.72737,0.0138595
1630.76300,0.0138714
1629.79862,0.0138720
1628.83424,0.0138710
1627.86986,0.0138504
1626.90548,0.0138104
1625.94111,0.0137682
1624.97673,0.0137068
1624.01235,0.0136260
1623.04797,0.0135412
1622.08359,0.0134517
1621.11922,0.0133331
1620.15484,0.0131844
1619.19046,0.0130217
1618.22608,0.0128501
1617.26171,0.0126751
1616.29733,0.0124851
1615.33295,0.0122819
1614.36857,0.0120757
1613.40419,0.0118649
1612.43982,0.0116564
1611.47544,0.0114678
1610.51106,0.0112941
1609.54668,0.0111047
1608.58230,0.0109067
1607.61793,0.0107083
1606.65355,0.0105040
1605.68917,0.0103050
1604.72479,0.0101215
1603.76041,0.0099396
1602.79604,0.0097421
1601.83166,0.0095492
1600.86728,0.0093758
1599.90290,0.0092187
1598.93853,0.0090658
1597.97415,0.0089028
1597.00977,0.0087333
1596.04539,0.0085626
1595.08101,0.0084038
1594.11664,0.0082660
1593.15226,0.0081372
1592.18788,0.0080021
1591.22350,0.0078616
1590.25912,0.0077287
1589.29475,0.0076109
1588.33037,0.0075028
1587.36599,0.0073914
1586.40161,0.0072772
1585.43724,0.0071625
1584.47286,0.0070555
1583.50848,0.0069572
1582.54410,0.0068494
1581.57972,0.0067413
1580.61535,0.0066420
1579.65097,0.0065389
1578.68659,0.0064290
1577.72221,0.0063221
1576.75783,0.0062187
1575.79346,0.0061143
1574.82908,0.0060226
1573.86470,0.0059436
1572.90032,0.0058728
1571.93594,0.0058073
1570.97157,0.0057439
1570.00719,0.0056901
1569.04281,0.0056313
1568.07843,0.0055640
1567.11406,0.0054897
1566.14968,0.0053950
1565.18530,0.0052977
1564.22092,0.0052208
1563.25654,0.0051669
1562.29217,0.0051167
1561.32779,0.0050576
1560.36341,0.0050075
1559.39903,0.0049739
1558.43465,0.0049449
1557.47028,0.0049094
1556.50590,0.0048724
1555.54152,0.0048367
1554.57714,0.0047951
1553.61276,0.0047685
1552.64839,0.0047641
1551.68401,0.0047536
1550.71963,0.0047219
1549.75525,0.0046776
1548.79088,0.0046335
1547.82650,0.0045885
1546.86212,0.0045401
1545.89774,0.0044882
1544.93336,0.0044397
1543.96899,0.0044044
1543.00461,0.0043764
1542.04023,0.0043597
1541.07585,0.0043533
1540.11147,0.0043496
1539.14710,0.0043553
1538.18272,0.0043569
1537.21834,0.0043433
1536.25396,0.0043223
1535.28959,0.0043001
1534.32521,0.0042837
1533.36083,0.0042738
1532.39645,0.0042556
1531.43207,0.0042262
1530.46770,0.0041978
1529.50332,0.0041695
1528.53894,0.0041465
1527.57456,0.0041388
1526.61018,0.0041353
1525.64581,0.0041267
1524.68143,0.0041194
1523.71705,0.0041271
1522.75267,0.0041561
1521.78829,0.0041890
1520.82392,0.0042113
1519.85954,0.0042316
1518.89516,0.0042506
1517.93078,0.0042510
1516.96641,0.0042393
1516.00203,0.0042401
1515.03765,0.0042529
1514.07327,0.0042581
1513.10889,0.0042607
1512.14452,0.0042775
1511.18014,0.0042961
1510.21576,0.0043042
1509.25138,0.0043178
1508.28700,0.0043457
1507.32263,0.0043729
1506.35825,0.0043870
1505.39387,0.0043986
1504.42949,0.0044254
1503.46512,0.0044630
1502.50074,0.0044974
1501.53636,0.0045324
1500.57198,0.0045715
1499.60760,0.0046117
1498.64323,0.0046517
1497.67885,0.0046878
1496.71447,0.0047237
1495.75009,0.0047619
1494.78571,0.0047978
1493.82134,0.0048359
1492.85696,0.0048810
1491.89258,0.0049155
1490.92820,0.0049364
1489.96382,0.0049638
1488.99945,0.0050043
1488.03507,0.0050600
1487.07069,0.0051143
1486.10631,0.0051544
1485.14194,0.0051991
1484.17756,0.0052535
1483.21318,0.0053095
1482.24880,0.0053670
1481.28442,0.0054216
1480.32005,0.0054611
1479.35567,0.0055034
1478.39129,0.0055739
1477.42691,0.0056588
1476.46253,0.0057488
1475.49816,0.0058407
1474.53378,0.0059353
1473.56940,0.0060361
1472.60502,0.0061357
1471.64065,0.0062318
1470.67627,0.0063233
1469.71189,0.0064168
1468.74751,0.0065069
1467.78313,0.0065945
1466.81876,0.0066874
1465.85438,0.0067694
1464.89000,0.0068484
1463.92562,0.0069373
1462.96124,0.0070294
1461.99687,0.0071299
1461.03249,0.0072396
1460.06811,0.0073435
1459.10373,0.0074404
1458.13935,0.0075389
1457.17498,0.0076254
1456.21060,0.0076951
1455.24622,0.0077435
1454.28184,0.0077739
1453.31747,0.0078143
1452.35309,0.0078625
1451.38871,0.0079169
1450.42433,0.0079917
1449.45995,0.0080774
1448.49558,0.0081628
1447.53120,0.0082576
1446.56682,0.0083598
1445.60244,0.0084547
1444.63806,0.0085409
1443.67369,0.0086099
1442.70931,0.0086758
1441.74493,0.0087504
1440.78055,0.0088186
1439.81618,0.0088998
1438.85180,0.0089948
1437.88742,0.0090811
1436.92304,0.0091630
1435.95866,0.0092473
1434.99429,0.0093305
1434.02991,0.0094078
1433.06553,0.0094803
1432.10115,0.0095518
1431.13677,0.0096305
1430.17240,0.0097134
1429.20802,0.0098019
1428.24364,0.0099095
1427.27926,0.0100128
1426.31488,0.0100925
1425.35051,0.0101720
1424.38613,0.0102609
1423.42175,0.0103475
1422.45737,0.0104278
1421.49300,0.0105055
1420.52862,0.0105925
1419.56424,0.0106926
1418.59986,0.0108002
1417.63548,0.0109219
1416.67111,0.0110465
1415.70673,0.0111552
1414.74235,0.0112480
1413.77797,0.0113279
1412.81359,0.0114000
1411.84922,0.0114697
1410.88484,0.0115362
1409.92046,0.0115975
1408.95608,0.0116634
1407.99171,0.0117293
1407.02733,0.0117923
1406.06295,0.0118711
1405.09857,0.0119457
1404.13419,0.0119965
1403.16982,0.0120303
1402.20544,0.0120530
1401.24106,0.0120848
1400.27668,0.0121263
1399.31230,0.0121641
1398.34793,0.0121996
1397.38355,0.0122343
1396.41917,0.0122571
1395.45479,0.0122677
1394.49041,0.0122811
1393.52604,0.0122922
1392.56166,0.0123037
1391.59728,0.0123207
1390.63290,0.0123375
1389.66853,0.0123538
1388.70415,0.0123625
1387.73977,0.0123689
1386.77539,0.0123684
1385.81101,0.0123495
1384.84664,0.0123241
1383.88226,0.0122989
1382.91788,0.0122794
1381.95350,0.0122744
1380.98912,0.0122848
1380.02475,0.0122999
1379.06037,0.0123114
1378.09599,0.0123219
1377.13161,0.0123271
1376.16724,0.0123319
1375.20286,0.0123353
1374.23848,0.0123227
1373.27410,0.0123025
1372.30972,0.0122855
1371.34535,0.0122678
1370.38097,0.0122507
1369.41659,0.0122353
1368.45221,0.0122136
1367.48783,0.0121883
1366.52346,0.0121701
1365.55908,0.0121485
1364.59470,0.0121205
1363.63032,0.0120954
1362.66594,0.0120625
1361.70157,0.0120207
1360.73719,0.0119826
1359.77281,0.0119451
1358.80843,0.0118977
1357.84406,0.0118472
1356.87968,0.0118004
1355.91530,0.0117537
1354.95092,0.0117143
1353.98654,0.0116738
1353.02217,0.0116287
1352.05779,0.0115932
1351.09341,0.0115530
1350.12903,0.0114944
1349.16465,0.0114267
1348.20028,0.0113567
1347.23590,0.0112779
1346.27152,0.0112041
1345.30714,0.0111428
1344.34276,0.0110715
1343.37839,0.0110037
1342.41401,0.0109542
1341.44963,0.0109188
1340.48525,0.0108900
1339.52088,0.0108534
1338.55650,0.0108192
1337.59212,0.0107942
1336.62774,0.0107770
1335.66336,0.0107600
1334.69899,0.0107378
1333.73461,0.0107129
1332.77023,0.0106757
1331.80585,0.0106393
1330.84147,0.0106139
1329.87710,0.0105856
1328.91272,0.0105426
1327.94834,0.0104884
1326.98396,0.0104381
1326.01959,0.0103973
1325.05521,0.0103754
1324.09083,0.0103569
1323.12645,0.0103310
1322.16207,0.0103134
1321.19770,0.0102950
1320.23332,0.0102734
1319.26894,0.0102478
1318.30456,0.0102115
1317.34018,0.0101667
1316.37581,0.0101173
1315.41143,0.0100780
1314.44705,0.0100582
1313.48267,0.0100569
1312.51829,0.0100531
1311.55392,0.0100372
1310.58954,0.0100213
1309.62516,0.0100004
1308.66078,0.0099732
1307.69641,0.0099391
1306.73203,0.0099046
1305.76765,0.0098853
1304.80327,0.0098823
1303.83889,0.0098965
1302.87452,0.0099178
1301.91014,0.0099377
1300.94576,0.0099598
1299.98138,0.0099790
1299.01700,0.0099990
1298.05263,0.0100178
1297.08825,0.0100207
1296.12387,0.0100176
1295.15949,0.0100254
1294.19512,0.0100412
1293.23074,0.0100608
1292.26636,0.0100850
1291.30198,0.0101076
1290.33760,0.0101209
1289.37323,0.0101359
1288.40885,0.0101575
1287.44447,0.0101698
1286.48009,0.0101761
1285.51571,0.0101823
1284.55134,0.0101856
1283.58696,0.0101878
1282.62258,0.0101814
1281.65820,0.0101712
1280.69382,0.0101659
1279.72945,0.0101551
1278.76507,0.0101315
1277.80069,0.0101082
1276.83631,0.0100928
1275.87194,0.0100707
1274.90756,0.0100553
1273.94318,0.0100520
1272.97880,0.0100453
1272.01442,0.0100439
1271.05005,0.0100474
1270.08567,0.0100648
1269.12129,0.0100966
1268.15691,0.0101192
1267.19253,0.0101314
1266.22816,0.0101404
1265.26378,0.0101512
1264.29940,0.0101597
1263.33502,0.0101661
1262.37065,0.0101677
1261.40627,0.0101661
1260.44189,0.0101807
1259.47751,0.0102079
1258.51313,0.0102449
1257.54876,0.0102798
1256.58438,0.0102968
1255.62000,0.0103048
1254.65562,0.0103053
1253.69124,0.0103028
1252.72687,0.0103008
1251.76249,0.0103000
1250.79811,0.0102995
1249.83373,0.0102981
1248.86935,0.0103031
1247.90498,0.0103088
1246.94060,0.0103121
1245.97622,0.0103112
1245.01184,0.0103013
1244.04747,0.0102794
1243.08309,0.0102507
1242.11871,0.0102357
1241.15433,0.0102416
1240.18995,0.0102625
1239.22558,0.0102792
1238.26120,0.0102793
1237.29682,0.0102795
1236.33244,0.0102851
1235.36806,0.0102879
1234.40369,0.0102898
1233.43931,0.0102855
1232.47493,0.0102648
1231.51055,0.0102446
1230.54618,0.0102394
1229.58180,0.0102302
1228.61742,0.0102003
1227.65304,0.0101527
1226.68866,0.0100996
1225.72429,0.0100431
1224.75991,0.0099821
1223.79553,0.0099290
1222.83115,0.0098903
1221.86677,0.0098552
1220.90240,0.0098248
1219.93802,0.0098126
1218.97364,0.0098128
1218.00926,0.0098091
1217.04488,0.0097953
1216.08051,0.0097799
1215.11613,0.0097548
1214.15175,0.0097137
1213.18737,0.0096809
1212.22300,0.0096544
1211.25862,0.0096238
1210.29424,0.0095943
1209.32986,0.0095632
1208.36548,0.0095347
1207.40111,0.0095121
1206.43673,0.0094926
1205.47235,0.0094747
1204.50797,0.0094591
1203.54359,0.0094429
1202.57922,0.0094312
1201.61484,0.0094361
1200.65046,0.0094467
1199.68608,0.0094512
1198.72171,0.0094409
1197.75733,0.0094171
1196.79295,0.0094013
1195.82857,0.0093865
1194.86419,0.0093607
1193.89982,0.0093421
1192.93544,0.0093374
1191.97106,0.0093332
1191.00668,0.0093302
1190.04230,0.0093439
1189.07793,0.0093696
1188.11355,0.0093780
1187.14917,0.0093654
1186.18479,0.0093631
1185.22041,0.0093772
1184.25604,0.0093899
1183.29166,0.0094072
1182.32728,0.0094383
1181.36290,0.0094672
1180.39853,0.0094831
1179.43415,0.0095029
1178.46977,0.0095380
1177.50539,0.0095672
1176.54101,0.0095699
1175.57664,0.0095578
1174.61226,0.0095519
1173.64788,0.0095580
1172.68350,0.0095749
1171.71912,0.0096011
1170.75475,0.0096273
1169.79037,0.0096466
1168.82599,0.0096674
1167.86161,0.0096982
1166.89724,0.0097379
1165.93286,0.0097794
1164.96848,0.0098140
1164.00410,0.0098412
1163.03972,0.0098718
1162.07535,0.0099111
1161.11097,0.0099524
1160.14659,0.0099910
1159.18221,0.0100250
1158.21783,0.0100558
1157.25346,0.0100782
1156.28908,0.0100870
1155.32470,0.0100930
1154.36032,0.0100945
1153.39594,0.0100879
1152.43157,0.0100916
1151.46719,0.0101187
1150.50281,0.0101534
1149.53843,0.0101832
1148.57406,0.0102152
1147.60968,0.0102571
1146.64530,0.0103095
1145.68092,0.0103560
1144.71654,0.0103974
1143.75217,0.0104321
1142.78779,0.0104470
1141.82341,0.0104654
1140.85903,0.0104901
1139.89465,0.0105056
1138.93028,0.0105106
1137.96590,0.0105239
1137.00152,0.0105627
1136.03714,0.0106056
1135.07276,0.0106474
1134.10839,0.0106927
1133.14401,0.0107525
1132.17963,0.0108277
1131.21525,0.0108962
1130.25088,0.0109557
1129.28650,0.0109965
1128.32212,0.0110347
1127.35774,0.0110913
1126.39336,0.0111637
1125.42899,0.0112340
1124.46461,0.0112682
1123.50023,0.0112891
1122.53585,0.0113208
1121.57147,0.0113650
1120.60710,0.0114156
1119.64272,0.0114459
1118.67834,0.0114649
1117.71396,0.0114865
1116.74959,0.0115089
1115.78521,0.0115320
1114.82083,0.0115630
1113.85645,0.0115924
1112.89207,0.0116038
1111.92770,0.0116247
1110.96332,0.0116654
1109.99894,0.0117184
1109.03456,0.0117786
1108.07018,0.0118318
1107.10581,0.0118744
1106.14143,0.0119028
1105.17705,0.0119140
1104.21267,0.0119034
1103.24829,0.0118840
1102.28392,0.0118577
1101.31954,0.0118140
1100.35516,0.0117842
1099.39078,0.0117874
1098.42641,0.0118155
1097.46203,0.0118670
1096.49765,0.0119276
1095.53327,0.0119768
1094.56889,0.0120277
1093.60452,0.0120756
1092.64014,0.0120807
1091.67576,0.0120595
1090.71138,0.0120200
1089.74700,0.0119533
1088.78263,0.0119041
1087.81825,0.0118875
1086.85387,0.0118784
1085.88949,0.0118788
1084.92512,0.0118906
1083.96074,0.0119021
1082.99636,0.0119199
1082.03198,0.0119255
1081.06760,0.0118995
1080.10323,0.0118738
1079.13885,0.0118567
1078.17447,0.0118420
1077.21009,0.0118371
1076.24571,0.0118333
1075.28134,0.0118188
1074.31696,0.0117987
1073.35258,0.0117791
1072.38820,0.0117512
1071.42382,0.0117174
1070.45945,0.0116655
1069.49507,0.0115951
1068.53069,0.0115422
1067.56631,0.0115054
1066.60194,0.0114731
1065.63756,0.0114525
1064.67318,0.0114436
1063.70880,0.0114291
1062.74442,0.0113995
1061.78005,0.0113552
1060.81567,0.0113047
1059.85129,0.0112677
1058.88691,0.0112143
1057.92253,0.0111413
1056.95816,0.0110848
1055.99378,0.0110389
1055.02940,0.0110092
1054.06502,0.0109898
1053.10065,0.0109545
1052.13627,0.0108978
1051.17189,0.0108275
1050.20751,0.0107536
1049.24313,0.0106965
1048.27876,0.0106724
1047.31438,0.0106433
1046.35000,0.0106112
1045.38562,0.0106058
1044.42124,0.0105999
1043.45687,0.0105825
1042.49249,0.0105537
1041.52811,0.0105116
1040.56373,0.0104708
1039.59935,0.0104404
1038.63498,0.0104045
1037.67060,0.0103644
1036.70622,0.0103363
1035.74184,0.0102999
1034.77747,0.0102717
1033.81309,0.0102531
1032.84871,0.0102076
1031.88433,0.0101622
1030.91995,0.0101358
1029.95558,0.0101274
1028.99120,0.0101458
1028.02682,0.0101713
1027.06244,0.0101718
1026.09806,0.0101487
1025.13369,0.0101230
1024.16931,0.0100855
1023.20493,0.0100326
1022.24055,0.0099637
1021.27618,0.0098815
1020.31180,0.0098103
1019.34742,0.0097496
1018.38304,0.0097093
1017.41866,0.0097051
1016.45429,0.0097198
1015.48991,0.0097361
1014.52553,0.0097436
1013.56115,0.0097414
1012.59677,0.0097378
1011.63240,0.0097371
1010.66802,0.0097354
1009.70364,0.0097246
1008.73926,0.0097083
1007.77488,0.0096882
1006.81051,0.0096684
1005.84613,0.0096659
1004.88175,0.0096653
1003.91737,0.0096465
1002.95300,0.0096150
1001.98862,0.0095805
1001.02424,0.0095573
1000.05986,0.0095341
999.09548,0.0095018
998.13111,0.0094801
997.16673,0.0094732
996.20235,0.0094764
995.23797,0.0094876
994.27359,0.0094922
993.30922,0.0094679
992.34484,0.0094270
991.38046,0.0093933
990.41608,0.0093586
989.45171,0.0093143
988.48733,0.0092669
987.52295,0.0092284
986.55857,0.0091931
985.59419,0.0091767
984.62982,0.0092047
983.66544,0.0092361
982.70106,0.0092299
981.73668,0.0091951
980.77230,0.0091631
979.80793,0.0091337
978.84355,0.0090877
977.87917,0.0090408
976.91479,0.0089971
975.95041,0.0089427
974.98604,0.0088853
974.02166,0.0088588
973.05728,0.0088501
972.09290,0.0088086
971.12853,0.0087414
970.16415,0.0086790
969.19977,0.0086272
968.23539,0.0085621
967.27101,0.0084987
966.30664,0.0084643
965.34226,0.0084184
964.37788,0.0083562
963.41350,0.0083020
962.44912,0.0082446
961.48475,0.0081718
960.52037,0.0080953
959.55599,0.0080381
958.59161,0.0080055
957.62724,0.0079845
956.66286,0.0079447
955.69848,0.0078936
954.73410,0.0078464
953.76972,0.0077860
952.80535,0.0077345
951.84097,0.0077005
950.87659,0.0076614
949.91221,0.0076217
948.94783,0.0075975
947.98346,0.0075866
947.01908,0.0075699
946.05470,0.0075446
945.09032,0.0074951
944.12594,0.0073989
943.16157,0.0072903
942.19719,0.0072094
941.23281,0.0071563
940.26843,0.0071248
939.30406,0.0071189
938.33968,0.0071344
937.37530,0.0071582
936.41092,0.0071994
935.44654,0.0072542
934.48217,0.0072954
933.51779,0.0072991
932.55341,0.0072562
931.58903,0.0072152
930.62465,0.0071960
929.66028,0.0071541
928.69590,0.0070915
927.73152,0.0070306
926.76714,0.0069771
925.80276,0.0069447
924.83839,0.0069450
923.87401,0.0069427
922.90963,0.0069076
921.94525,0.0068820
920.98088,0.0068807
920.01650,0.0068853
919.05212,0.0068896
918.08774,0.0068784
917.12336,0.0068386
916.15899,0.0067836
915.19461,0.0067390
914.23023,0.0067069
913.26585,0.0066902
912.30147,0.0066764
911.33710,0.0066644
910.37272,0.0066701
909.40834,0.0066768
908.44396,0.0066854
907.47959,0.0067060
906.51521,0.0067299
905.55083,0.0067311
904.58645,0.0067131
903.62207,0.0066965
902.65770,0.0066808
901.69332,0.0066804
900.72894,0.0066905
899.76456,0.0067109
898.80018,0.0067139
897.83581,0.0066944
896.87143,0.0066929
895.90705,0.0066828
894.94267,0.0066590
893.97829,0.0066193
893.01392,0.0065789
892.04954,0.0065742
891.08516,0.0065864
890.12078,0.0066038
889.15641,0.0066429
888.19203,0.0067349
887.22765,0.0068295
886.26327,0.0069169
885.29889,0.0070311
884.33452,0.0071149
883.37014,0.0071434
882.40576,0.0071002
881.44138,0.0070352
880.47700,0.0070049
879.51263,0.0069767
878.54825,0.0069250
877.58387,0.0068597
876.61949,0.0068484
875.65512,0.0068809
874.69074,0.0069534
873.72636,0.0070865
872.76198,0.0072148
871.79760,0.0073174
870.83323,0.0073762
869.86885,0.0073941
868.90447,0.0074074
867.94009,0.0074123
866.97571,0.0073806
866.01134,0.0073245
865.04696,0.0072903
864.08258,0.0072695
863.11820,0.0072968
862.15382,0.0073751
861.18945,0.0074430
860.22507,0.0075053
859.26069,0.0075507
858.29631,0.0075777
857.33194,0.0076164
856.36756,0.0076764
855.40318,0.0077407
854.43880,0.0077756
853.47442,0.0077737
852.51005,0.0077606
851.54567,0.0077695
850.58129,0.0077891
849.61691,0.0077957
848.65253,0.0077886
847.68816,0.0077885
846.72378,0.0078197
845.75940,0.0078574
844.79502,0.0078891
843.83065,0.0079153
842.86627,0.0079106
841.90189,0.0078889
840.93751,0.0078782
839.97313,0.0078735
839.00876,0.0078768
838.04438,0.0078979
837.08000,0.0079275
836.11562,0.0079728
835.15124,0.0080372
834.18687,0.0080898
833.22249,0.0081319
832.25811,0.0081777
831.29373,0.0081884
830.32935,0.0081648
829.36498,0.0081376
828.40060,0.0080865
827.43622,0.0080493
826.47184,0.0080383
825.50747,0.0080044
824.54309,0.0079788
823.57871,0.0079658
822.61433,0.0079432
821.64995,0.0079292
820.68558,0.0079223
819.72120,0.0079132
818.75682,0.0079136
817.79244,0.0079190
816.82806,0.0079059
815.86369,0.0079021
814.89931,0.0078940
813.93493,0.0078569
812.97055,0.0078340
812.00618,0.0078186
811.04180,0.0077953
810.07742,0.0077617
809.11304,0.0077568
808.14866,0.0078060
807.18429,0.0078497
806.21991,0.0078868
805.25553,0.0079016
804.29115,0.0078849
803.32677,0.0078874
802.36240,0.0078804
801.39802,0.0078425
800.43364,0.0078178
799.46926,0.0078405
798.50488,0.0078918
797.54051,0.0079539
796.57613,0.0080193
795.61175,0.0080540
794.64737,0.0080858
793.68300,0.0081085
792.71862,0.0080964
791.75424,0.0080888
790.78986,0.0080509
789.82548,0.0079749
788.86111,0.0079260
787.89673,0.0079032
786.93235,0.0078657
785.96797,0.0078058
785.00359,0.0077583
784.03922,0.0077502
783.07484,0.0077818
782.11046,0.0078314
781.14608,0.0078948
780.18171,0.0079847
779.21733,0.0080784
778.25295,0.0081485
777.28857,0.0081737
776.32419,0.0081475
775.35982,0.0080849
774.39544,0.0080001
773.43106,0.0079158
772.46668,0.0078457
771.50230,0.0077910
770.53793,0.0077708
769.57355,0.0078063
768.60917,0.0078947
767.64479,0.0080086
766.68041,0.0081113
765.71604,0.0081997
764.75166,0.0082744
763.78728,0.0083174
762.82290,0.0083212
761.85853,0.0082773
760.89415,0.0082008
759.92977,0.0081236
758.96539,0.0080647
758.00101,0.0080291
757.03664,0.0080234
756.07226,0.0080428
755.10788,0.0080547
754.14350,0.0080756
753.17912,0.0081239
752.21475,0.0081987
751.25037,0.0082671
750.28599,0.0082759
749.32161,0.0082710
748.35724,0.0082619
747.39286,0.0082628
746.42848,0.0083149
745.46410,0.0083687
744.49972,0.0084024
743.53535,0.0083730
742.57097,0.0083094
741.60659,0.0083072
740.64221,0.0083696
739.67783,0.0084394
738.71346,0.0084698
737.74908,0.0085163
736.78470,0.0085576
735.82032,0.0085785
734.85594,0.0086356
733.89157,0.0086802
732.92719,0.0086820
731.96281,0.0086321
730.99843,0.0085946
730.03406,0.0085992
729.06968,0.0085951
728.10530,0.0086166
727.14092,0.0086608
726.17654,0.0087230
725.21217,0.0087691
724.24779,0.0087664
723.28341,0.0087740
722.31903,0.0087866
721.35465,0.0087867
720.39028,0.0088017
719.42590,0.0088240
718.46152,0.0088058
717.49714,0.0087844
716.53276,0.0088270
715.56839,0.0088898
714.60401,0.0089549
713.63963,0.0090015
712.67525,0.0089968
711.71088,0.0089991
710.74650,0.0090265
709.78212,0.0090548
708.81774,0.0090790
707.85336,0.0090799
706.88899,0.0090720
705.92461,0.0090843
704.96023,0.0091077
703.99585,0.0091374
703.03147,0.0091721
702.06710,0.0092211
701.10272,0.0092961
700.13834,0.0093842
699.17396,0.0094842
698.20959,0.0095613
697.24521,0.0095869
696.28083,0.0095833
695.31645,0.0095601
694.35207,0.0095370
693.38770,0.0095070
692.42332,0.0094525
691.45894,0.0094148
690.49456,0.0094287
689.53018,0.0094516
688.56581,0.0094490
687.60143,0.0094640
686.63705,0.0094967
685.67267,0.0095298
684.70829,0.0095683
683.74392,0.0096130
682.77954,0.0096906
681.81516,0.0097604
680.85078,0.0097902
679.88641,0.0098148
678.92203,0.0098315
677.95765,0.0098238
676.99327,0.0097745
676.02889,0.0096840
675.06452,0.0095402
674.10014,0.0093692
673.13576,0.0094175
672.17138,0.0097445
671.20700,0.0101172
670.24263,0.0103946
669.27825,0.0105740
668.31387,0.0106905
667.34949,0.0107400
666.38512,0.0106912
665.42074,0.0105465
664.45636,0.0103155
663.49198,0.0100313
662.52760,0.0098315
661.56323,0.0098955
660.59885,0.0100768
659.63447,0.0101260
658.67009,0.0100844
657.70571,0.0100430
656.74134,0.0100028
655.77696,0.0099516
654.81258,0.0098842
653.84820,0.0098504
652.88382,0.0098680
651.91945,0.0099209
650.95507,0.0099866
649.99069,0.0100150
649.02631,0.0100275
648.06194,0.0100400
647.09756,0.0100412
646.13318,0.0100440
645.16880,0.0100495
644.20442,0.0100703
643.24005,0.0100984
642.27567,0.0101319
641.31129,0.0101955
640.34691,0.0102853
639.38253,0.0103758
638.41816,0.0104455
637.45378,0.0105023
636.48940,0.0105621
635.52502,0.0106141
634.56065,0.0106472
633.59627,0.0106642
632.63189,0.0106090
631.66751,0.0104675
630.70313,0.0104635
629.73876,0.0105978
628.77438,0.0106088
627.81000,0.0104388
626.84562,0.0098793
625.88124,0.0091203
624.91687,0.0088186
623.95249,0.0086800
622.98811,0.0084161
622.02373,0.0085915
621.05935,0.0092574
620.09498,0.0102481
619.13060,0.0113521
618.16622,0.0119513
617.20184,0.0119376
616.23747,0.0114243
615.27309,0.0101173
614.30871,0.0083444
613.34433,0.0069227
612.37995,0.0059177
611.41558,0.0054810
610.45120,0.0056729
609.48682,0.0062455
608.52244,0.0071392
607.55806,0.0076215
606.59369,0.0077537
605.62931,0.0081567
604.66493,0.0085703
603.70055,0.0086778
602.73618,0.0086146
601.77180,0.0088361
600.80742,0.0094624
599.84304,0.0101370
598.87866,0.0104656
597.91429,0.0107187
596.94991,0.0109772
595.98553,0.0107274
595.02115,0.0104880
594.05677,0.0105231
593.09240,0.0105480
592.12802,0.0105793
591.16364,0.0105173
590.19926,0.0103981
589.23488,0.0103111
588.27051,0.0103515
587.30613,0.0105334
586.34175,0.0107223
585.37737,0.0108739
584.41300,0.0108958
583.44862,0.0108975
582.48424,0.0109672
581.51986,0.0110322
580.55548,0.0110515
579.59111,0.0109554
578.62673,0.0108525
577.66235,0.0107749
576.69797,0.0107471
575.73359,0.0107838
574.76922,0.0107638
573.80484,0.0107386
572.84046,0.0107179
571.87608,0.0107957
570.91171,0.0110133
569.94733,0.0111935
568.98295,0.0112508
568.01857,0.0111727
567.05419,0.0110712
566.08982,0.0109765
565.12544,0.0108703
564.16106,0.0107686
563.19668,0.0106460
562.23230,0.0105439
561.26793,0.0104956
560.30355,0.0105423
559.33917,0.0105882
558.37479,0.0105674
557.41041,0.0105214
556.44604,0.0104729
555.48166,0.0105231
554.51728,0.0105773
553.55290,0.0105512
552.58853,0.0105599
551.62415,0.0106463
550.65977,0.0107692
549.69539,0.0108640
548.73101,0.0108760
547.76664,0.0108327
546.80226,0.0108530
545.83788,0.0108762
544.87350,0.0108747
543.90912,0.0109269
542.94475,0.0109258
541.98037,0.0109186
541.01599,0.0110025
540.05161,0.0111246
539.08724,0.0112423
538.12286,0.0112875
537.15848,0.0112590
536.19410,0.0112553
535.22972,0.0112967
534.26535,0.0112813
533.30097,0.0112323
532.33659,0.0112003
531.37221,0.0111707
530.40783,0.0111526
529.44346,0.0110541
528.47908,0.0109385
527.51470,0.0109189
526.55032,0.0109336
525.58594,0.0109545
524.62157,0.0109874
523.65719,0.0110599
522.69281,0.0111252
521.72843,0.0111299
520.76406,0.0111055
519.79968,0.0111043
518.83530,0.0111255
517.87092,0.0110791
516.90654,0.0110168
515.94217,0.0109793
514.97779,0.0109480
514.01341,0.0109470
513.04903,0.0109045
512.08465,0.0108471
511.12028,0.0108099
510.15590,0.0107241
509.19152,0.0106395
508.22714,0.0106920
507.26276,0.0108367
506.29839,0.0108744
505.33401,0.0108027
504.36963,0.0107156
503.40525,0.0107082
502.44088,0.0107927
501.47650,0.0108151
500.51212,0.0108119
499.54774,0.0108344
498.58336,0.0107727
497.61899,0.0106990
496.65461,0.0107446
495.69023,0.0108195
494.72585,0.0108020
493.76147,0.0107198
492.79710,0.0106460
491.83272,0.0106155
490.86834,0.0105476
489.90396,0.0103944
488.93959,0.0102357
487.97521,0.0100986
487.01083,0.0099819
486.04645,0.0099169
485.08207,0.0099457
484.11770,0.0100543
483.15332,0.0102177
482.18894,0.0104059
481.22456,0.0105384
480.26018,0.0106346
479.29581,0.0107342
478.33143,0.0108192
477.36705,0.0108779
476.40267,0.0108819
475.43829,0.0108074
474.47392,0.0107158
473.50954,0.0106874
472.54516,0.0107173
471.58078,0.0107991
470.61641,0.0108274
469.65203,0.0107715
468.68765,0.0107704
467.72327,0.0108065
466.75889,0.0108319
465.79452,0.0108505
464.83014,0.0108575
463.86576,0.0108449
462.90138,0.0108530
461.93700,0.0108796
460.97263,0.0108383
460.00825,0.0108183
459.04387,0.0108092
458.07949,0.0107532
457.11512,0.0107249
456.15074,0.0106866
455.18636,0.0106481
454.22198,0.0106483
453.25760,0.0106855
452.29323,0.0107063
451.32885,0.0106866
450.36447,0.0106576
449.40009,0.0106091
448.43571,0.0106409
447.47134,0.0107299
446.50696,0.0108135
445.54258,0.0109242
444.57820,0.0109325
443.61382,0.0108195
442.64945,0.0107108
441.68507,0.0106426
440.72069,0.0105831
439.75631,0.0105067
438.79194,0.0104263
437.82756,0.0103641
436.86318,0.0103497
435.89880,0.0104300
434.93442,0.0106044
433.97005,0.0107044
433.00567,0.0106540
432.04129,0.0106008
431.07691,0.0105843
430.11253,0.0105468
429.14816,0.0104883
428.18378,0.0104259
427.21940,0.0103651
426.25502,0.0103169
425.29065,0.0102829
424.32627,0.0102800
423.36189,0.0102776
422.39751,0.0101790
421.43313,0.0100460
420.46876,0.0099661
419.50438,0.0098673
418.54000,0.0097377
417.57562,0.0096638
416.61124,0.0096363
415.64687,0.0095879
414.68249,0.0095746
413.71811,0.0096399
412.75373,0.0096975
411.78935,0.0097139
410.82498,0.0097704
409.86060,0.0098738
408.89622,0.0099275
407.93184,0.0099165
406.96747,0.0098876
406.00309,0.0098444
405.03871,0.0097529
404.07433,0.0097529
403.10995,0.0097529
402.14558,0.0097529
401.18120,0.0097529
400.21682,0.0097529
399.25244,0.0097529
