3998.31069,0.0007190
3997.34631,0.0007190
3996.38194,0.0007190
3995.41756,0.0007190
3994.45318,0.0007190
3993.48880,0.0007190
3992.52442,0.0007190
3991.56005,0.0008168
3990.59567,0.0009317
3989.63129,0.0010330
3988.66691,0.0010278
3987.70253,0.0009611
3986.73816,0.0008919
3985.77378,0.0008059
3984.80940,0.0006844
3983.84502,0.0005883
3982.88065,0.0005568
3981.91627,0.0005505
3980.95189,0.0005300
3979.98751,0.0004941
3979.02313,0.0005087
3978.05876,0.0005429
3977.09438,0.0005625
3976.13000,0.0006503
3975.16562,0.0007705
3974.20124,0.0008368
3973.23687,0.0008501
3972.27249,0.0008374
3971.30811,0.0008168
3970.34373,0.0007650
3969.37935,0.0006696
3968.41498,0.0005961
3967.45060,0.0006098
3966.48622,0.0006915
3965.52184,0.0007803
3964.55747,0.0008614
3963.59309,0.0009347
3962.62871,0.0009476
3961.66433,0.0009435
3960.69995,0.0009792
3959.73558,0.0009709
3958.77120,0.0008840
3957.80682,0.0007758
3956.84244,0.0007110
3955.87806,0.0006693
3954.91369,0.0005996
3953.94931,0.0005251
3952.98493,0.0004597
3952.02055,0.0003889
3951.05618,0.0003272
3950.09180,0.0003669
3949.12742,0.0004815
3948.16304,0.0005169
3947.19866,0.0004885
3946.23429,0.0004865
3945.26991,0.0005166
3944.30553,0.0005531
3943.34115,0.0005833
3942.37677,0.0005918
3941.41240,0.0005735
3940.44802,0.0005478
3939.48364,0.0005514
3938.51926,0.0006058
3937.55488,0.0006593
3936.59051,0.0006681
3935.62613,0.0006087
3934.66175,0.0005297
3933.69737,0.0005332
3932.73300,0.0006058
3931.76862,0.0006984
3930.80424,0.0007662
3929.83986,0.0007839
3928.87548,0.0007780
3927.91111,0.0007808
3926.94673,0.0008013
3925.98235,0.0007991
3925.01797,0.0007532
3924.05359,0.0006862
3923.08922,0.0006576
3922.12484,0.0006939
3921.16046,0.0007520
3920.19608,0.0008201
3919.23171,0.0009003
3918.26733,0.0009598
3917.30295,0.0009629
3916.33857,0.0009139
3915.37419,0.0008455
3914.40982,0.0007706
3913.44544,0.0006962
3912.48106,0.0006462
3911.51668,0.0005920
3910.55230,0.0005218
3909.58793,0.0004951
3908.62355,0.0005032
3907.65917,0.0005743
3906.69479,0.0006940
3905.73041,0.0007359
3904.76604,0.0007288
3903.80166,0.0007757
3902.83728,0.0008633
3901.87290,0.0009048
3900.90853,0.0008812
3899.94415,0.0008287
3898.97977,0.0007795
3898.01539,0.0007316
3897.05101,0.0006417
3896.08664,0.0005740
3895.12226,0.0005432
3894.15788,0.0004992
3893.19350,0.0004793
3892.22912,0.0005106
3891.26475,0.0005616
3890.30037,0.0005786
3889.33599,0.0005888
3888.37161,0.0006028
3887.40724,0.0006020
3886.44286,0.0006156
3885.47848,0.0006434
3884.51410,0.0006782
3883.54972,0.0006809
3882.58535,0.0006527
3881.62097,0.0006265
3880.65659,0.0006075
3879.69221,0.0005988
3878.72783,0.0005998
3877.76346,0.0005957
3876.79908,0.0005710
3875.83470,0.0005922
3874.87032,0.0006532
3873.90594,0.0007024
3872.94157,0.0007464
3871.97719,0.0007780
3871.01281,0.0007863
3870.04843,0.0007699
3869.08406,0.0007854
3868.11968,0.0008018
3867.15530,0.0008000
3866.19092,0.0008100
3865.22654,0.0008196
3864.26217,0.0008814
3863.29779,0.0009152
3862.33341,0.0008817
3861.36903,0.0008248
3860.40465,0.0007400
3859.44028,0.0006748
3858.47590,0.0006297
3857.51152,0.0006235
3856.54714,0.0005963
3855.58276,0.0005604
3854.61839,0.0005683
3853.65401,0.0005532
3852.68963,0.0005287
3851.72525,0.0004649
3850.76088,0.0003460
3849.79650,0.0001992
3848.83212,0.0001143
3847.86774,0.0001564
3846.90336,0.0002103
3845.93899,0.0002779
3844.97461,0.0003556
3844.01023,0.0004314
3843.04585,0.0005077
3842.08147,0.0005367
3841.11710,0.0005449
3840.15272,0.0005364
3839.18834,0.0005235
3838.22396,0.0005134
3837.25959,0.0005355
3836.29521,0.0005736
3835.33083,0.0005843
3834.36645,0.0006238
3833.40207,0.0006664
3832.43770,0.0007024
3831.47332,0.0007078
3830.50894,0.0006590
3829.54456,0.0006190
3828.58018,0.0005954
3827.61581,0.0006271
3826.65143,0.0006651
3825.68705,0.0006259
3824.72267,0.0005602
3823.75829,0.0005166
3822.79392,0.0005044
3821.82954,0.0005347
3820.86516,0.0006041
3819.90078,0.0006133
3818.93641,0.0005470
3817.97203,0.0005008
3817.00765,0.0004775
3816.04327,0.0004577
3815.07889,0.0004286
3814.11452,0.0003815
3813.15014,0.0003485
3812.18576,0.0004011
3811.22138,0.0005649
3810.25700,0.0007728
3809.29263,0.0009480
3808.32825,0.0010432
3807.36387,0.0010899
3806.39949,0.0011059
3805.43512,0.0010458
3804.47074,0.0009435
3803.50636,0.0008643
3802.54198,0.0007644
3801.57760,0.0006458
3800.61323,0.0006346
3799.64885,0.0006839
3798.68447,0.0006796
3797.72009,0.0006744
3796.75571,0.0006991
3795.79134,0.0007557
3794.82696,0.0008215
3793.86258,0.0008237
3792.89820,0.0007907
3791.93382,0.0007708
3790.96945,0.0007273
3790.00507,0.0006828
3789.04069,0.0006988
3788.07631,0.0006988
3787.11194,0.0006484
3786.14756,0.0006235
3785.18318,0.0005961
3784.21880,0.0005767
3783.25442,0.0006040
3782.29005,0.0006310
3781.32567,0.0006544
3780.36129,0.0006578
3779.39691,0.0006423
3778.43253,0.0006595
3777.46816,0.0006855
3776.50378,0.0006620
3775.53940,0.0005989
3774.57502,0.0005590
3773.61065,0.0005888
3772.64627,0.0006875
3771.68189,0.0007859
3770.71751,0.0008724
3769.75313,0.0009653
3768.78876,0.0010236
3767.82438,0.0010920
3766.86000,0.0011442
3765.89562,0.0010965
3764.93124,0.0010013
3763.96687,0.0008986
3763.00249,0.0007948
3762.03811,0.0007059
3761.07373,0.0006761
3760.10935,0.0007059
3759.14498,0.0007521
3758.18060,0.0008026
3757.21622,0.0008369
3756.25184,0.0008888
3755.28747,0.0009415
3754.32309,0.0009328
3753.35871,0.0008839
3752.39433,0.0007938
3751.42995,0.0007042
3750.46558,0.0006822
3749.50120,0.0007843
3748.53682,0.0009473
3747.57244,0.0010044
3746.60806,0.0009801
3745.64369,0.0009521
3744.67931,0.0009784
3743.71493,0.0010229
3742.75055,0.0009401
3741.78618,0.0008291
3740.82180,0.0008005
3739.85742,0.0008049
3738.89304,0.0008089
3737.92866,0.0008396
3736.96429,0.0009108
3735.99991,0.0009225
3735.03553,0.0008890
3734.07115,0.0008766
3733.10677,0.0008893
3732.14240,0.0009098
3731.17802,0.0008634
3730.21364,0.0008178
3729.24926,0.0008172
3728.28488,0.0007610
3727.32051,0.0006536
3726.35613,0.0005650
3725.39175,0.0004926
3724.42737,0.0003968
3723.46300,0.0003318
3722.49862,0.0003190
3721.53424,0.0003242
3720.56986,0.0003852
3719.60548,0.0004732
3718.64111,0.0005630
3717.67673,0.0006780
3716.71235,0.0007491
3715.74797,0.0007620
3714.78359,0.0007909
3713.81922,0.0008356
3712.85484,0.0009036
3711.89046,0.0009851
3710.92608,0.0010066
3709.96171,0.0010117
3708.99733,0.0010416
3708.03295,0.0010286
3707.06857,0.0009608
3706.10419,0.0008704
3705.13982,0.0007538
3704.17544,0.0006341
3703.21106,0.0005761
3702.24668,0.0005801
3701.28230,0.0006508
3700.31793,0.0007597
3699.35355,0.0008233
3698.38917,0.0008707
3697.42479,0.0008880
3696.46041,0.0008330
3695.49604,0.0007582
3694.53166,0.0007041
3693.56728,0.0006452
3692.60290,0.0005630
3691.63853,0.0005664
3690.67415,0.0006724
3689.70977,0.0008101
3688.74539,0.0009347
3687.78101,0.0009345
3686.81664,0.0008405
3685.85226,0.0007569
3684.88788,0.0006892
3683.92350,0.0006040
3682.95912,0.0004949
3681.99475,0.0004093
3681.03037,0.0003677
3680.06599,0.0003890
3679.10161,0.0004525
3678.13724,0.0005429
3677.17286,0.0006298
3676.20848,0.0006442
3675.24410,0.0007015
3674.27972,0.0008378
3673.31535,0.0009174
3672.35097,0.0009109
3671.38659,0.0008667
3670.42221,0.0008309
3669.45783,0.0008220
3668.49346,0.0008185
3667.52908,0.0007877
3666.56470,0.0007585
3665.60032,0.0007377
3664.63594,0.0007147
3663.67157,0.0007302
3662.70719,0.0007222
3661.74281,0.0006747
3660.77843,0.0006747
3659.81406,0.0007444
3658.84968,0.0008502
3657.88530,0.0009428
3656.92092,0.0009717
3655.95654,0.0009217
3654.99217,0.0008677
3654.02779,0.0008160
3653.06341,0.0006994
3652.09903,0.0005535
3651.13465,0.0004759
3650.17028,0.0005189
3649.20590,0.0006090
3648.24152,0.0007325
3647.27714,0.0008962
3646.31276,0.0009564
3645.34839,0.0009222
3644.38401,0.0009141
3643.41963,0.0008882
3642.45525,0.0008062
3641.49088,0.0007577
3640.52650,0.0007972
3639.56212,0.0008607
3638.59774,0.0008643
3637.63336,0.0008090
3636.66899,0.0007556
3635.70461,0.0007020
3634.74023,0.0005976
3633.77585,0.0004914
3632.81147,0.0004685
3631.84710,0.0004951
3630.88272,0.0005429
3629.91834,0.0006528
3628.95396,0.0007929
3627.98959,0.0008748
3627.02521,0.0009006
3626.06083,0.0009301
3625.09645,0.0009104
3624.13207,0.0008170
3623.16770,0.0007220
3622.20332,0.0006444
3621.23894,0.0006551
3620.27456,0.0007705
3619.31018,0.0008585
3618.34581,0.0008875
3617.38143,0.0009079
3616.41705,0.0009172
3615.45267,0.0009273
3614.48829,0.0009349
3613.52392,0.0008930
3612.55954,0.0008362
3611.59516,0.0008179
3610.63078,0.0008365
3609.66641,0.0009125
3608.70203,0.0010236
3607.73765,0.0010635
3606.77327,0.0010489
3605.80889,0.0010779
3604.84452,0.0010997
3603.88014,0.0010894
3602.91576,0.0010642
3601.95138,0.0010081
3600.98700,0.0009317
3600.02263,0.0008070
3599.05825,0.0006653
3598.09387,0.0005264
3597.12949,0.0003873
3596.16512,0.0003129
3595.20074,0.0003742
3594.23636,0.0005583
3593.27198,0.0006897
3592.30760,0.0007594
3591.34323,0.0008645
3590.37885,0.0009431
3589.41447,0.0009555
3588.45009,0.0009163
3587.48571,0.0008908
3586.52134,0.0008997
3585.55696,0.0009469
3584.59258,0.0010413
3583.62820,0.0011192
3582.66382,0.0011631
3581.69945,0.0011563
3580.73507,0.0011266
3579.77069,0.0010985
3578.80631,0.0010466
3577.84194,0.0010102
3576.87756,0.0009857
3575.91318,0.0009834
3574.94880,0.0010200
3573.98442,0.0010367
3573.02005,0.0010245
3572.05567,0.0010274
3571.09129,0.0010881
3570.12691,0.0012155
3569.16253,0.0013302
3568.19816,0.0013381
3567.23378,0.0012921
3566.26940,0.0012955
3565.30502,0.0012829
3564.34065,0.0011613
3563.37627,0.0010027
3562.41189,0.0008839
3561.44751,0.0008182
3560.48313,0.0008158
3559.51876,0.0008519
3558.55438,0.0009188
3557.59000,0.0009765
3556.62562,0.0009863
3555.66124,0.0010182
3554.69687,0.0010895
3553.73249,0.0011234
3552.76811,0.0011364
3551.80373,0.0012357
3550.83935,0.0013473
3549.87498,0.0013613
3548.91060,0.0013551
3547.94622,0.0013234
3546.98184,0.0012493
3546.01747,0.0012102
3545.05309,0.0011856
3544.08871,0.0011327
3543.12433,0.0010691
3542.15995,0.0010190
3541.19558,0.0009827
3540.23120,0.0009463
3539.26682,0.0009115
3538.30244,0.0009317
3537.33806,0.0010238
3536.37369,0.0010785
3535.40931,0.0011137
3534.44493,0.0012367
3533.48055,0.0013512
3532.51618,0.0013982
3531.55180,0.0014423
3530.58742,0.0014560
3529.62304,0.0014120
3528.65866,0.0013751
3527.69429,0.0014121
3526.72991,0.0014587
3525.76553,0.0014272
3524.80115,0.0013500
3523.83677,0.0012975
3522.87240,0.0013070
3521.90802,0.0013164
3520.94364,0.0013264
3519.97926,0.0013895
3519.01488,0.0014387
3518.05051,0.0014528
3517.08613,0.0014372
3516.12175,0.0014018
3515.15737,0.0013750
3514.19300,0.0013587
3513.22862,0.0013686
3512.26424,0.0013842
3511.29986,0.0014227
3510.33548,0.0014740
3509.37111,0.0014808
3508.40673,0.0014650
3507.44235,0.0014403
3506.47797,0.0014158
3505.51359,0.0013860
3504.54922,0.0013754
3503.58484,0.0014138
3502.62046,0.0014403
3501.65608,0.0014589
3500.69171,0.0014988
3499.72733,0.0015338
3498.76295,0.0015535
3497.79857,0.0015584
3496.83419,0.0015695
3495.86982,0.0015916
3494.90544,0.0016096
3493.94106,0.0016474
3492.97668,0.0016948
3492.01230,0.0016602
3491.04793,0.0015578
3490.08355,0.0014970
3489.11917,0.0014658
3488.15479,0.0014352
3487.19041,0.0014558
3486.22604,0.0015133
3485.26166,0.0015340
3484.29728,0.0015207
3483.33290,0.0015336
3482.36853,0.0015833
3481.40415,0.0016326
3480.43977,0.0016454
3479.47539,0.0016434
3478.51101,0.0016666
3477.54664,0.0016843
3476.58226,0.0016969
3475.61788,0.0017503
3474.65350,0.0018130
3473.68912,0.0018408
3472.72475,0.0018306
3471.76037,0.0017918
3470.79599,0.0017905
3469.83161,0.0018468
3468.86724,0.0018578
3467.90286,0.0018299
3466.93848,0.0018446
3465.97410,0.0018468
3465.00972,0.0018344
3464.04535,0.0018666
3463.08097,0.0018936
3462.11659,0.0018826
3461.15221,0.0018528
3460.18783,0.0018373
3459.22346,0.0018730
3458.25908,0.0018961
3457.29470,0.0018630
3456.33032,0.0019016
3455.36594,0.0020151
3454.40157,0.0020615
3453.43719,0.0020864
3452.47281,0.0021061
3451.50843,0.0020579
3450.54406,0.0020143
3449.57968,0.0020003
3448.61530,0.0019927
3447.65092,0.0019850
3446.68654,0.0019740
3445.72217,0.0019981
3444.75779,0.0020514
3443.79341,0.0020862
3442.82903,0.0021111
3441.86465,0.0021672
3440.90028,0.0021843
3439.93590,0.0021340
3438.97152,0.0020979
3438.00714,0.0020512
3437.04276,0.0020066
3436.07839,0.0020020
3435.11401,0.0020022
3434.14963,0.0020138
3433.18525,0.0020453
3432.22088,0.0021209
3431.25650,0.0022353
3430.29212,0.0023329
3429.32774,0.0023840
3428.36336,0.0024024
3427.39899,0.0023950
3426.43461,0.0023254
3425.47023,0.0022464
3424.50585,0.0022067
3423.54147,0.0021635
3422.57710,0.0021214
3421.61272,0.0021053
3420.64834,0.0021094
3419.68396,0.0020997
3418.71959,0.0020845
3417.75521,0.0021333
3416.79083,0.0022379
3415.82645,0.0023099
3414.86207,0.0023456
3413.89770,0.0024015
3412.93332,0.0024490
3411.96894,0.0024550
3411.00456,0.0024434
3410.04018,0.0024349
3409.07581,0.0024075
3408.11143,0.0023427
3407.14705,0.0022774
3406.18267,0.0022479
3405.21829,0.0022540
3404.25392,0.0022349
3403.28954,0.0021974
3402.32516,0.0021937
3401.36078,0.0021959
3400.39641,0.0022283
3399.43203,0.0023041
3398.46765,0.0023850
3397.50327,0.0024405
3396.53889,0.0024787
3395.57452,0.0025233
3394.61014,0.0025254
3393.64576,0.0025112
3392.68138,0.0024995
3391.71700,0.0024695
3390.75263,0.0024751
3389.78825,0.0025021
3388.82387,0.0025270
3387.85949,0.0025574
3386.89512,0.0025986
3385.93074,0.0026460
3384.96636,0.0026711
3384.00198,0.0026645
3383.03760,0.0026075
3382.07323,0.0025140
3381.10885,0.0024178
3380.14447,0.0023425
3379.18009,0.0022882
3378.21571,0.0022257
3377.25134,0.0021931
3376.28696,0.0022239
3375.32258,0.0022689
3374.35820,0.0023037
3373.39382,0.0023664
3372.42945,0.0024492
3371.46507,0.0025096
3370.50069,0.0025596
3369.53631,0.0026132
3368.57194,0.0026476
3367.60756,0.0026564
3366.64318,0.0026718
3365.67880,0.0026883
3364.71442,0.0026475
3363.75005,0.0025469
3362.78567,0.0024749
3361.82129,0.0024642
3360.85691,0.0024429
3359.89253,0.0024051
3358.92816,0.0023752
3357.96378,0.0023558
3356.99940,0.0023808
3356.03502,0.0024580
3355.07065,0.0025519
3354.10627,0.0025961
3353.14189,0.0025591
3352.17751,0.0024890
3351.21313,0.0024559
3350.24876,0.0024225
3349.28438,0.0023288
3348.32000,0.0022387
3347.35562,0.0021809
3346.39124,0.0021940
3345.42687,0.0022966
3344.46249,0.0023957
3343.49811,0.0024949
3342.53373,0.0025963
3341.56935,0.0026334
3340.60498,0.0026280
3339.64060,0.0026312
3338.67622,0.0026369
3337.71184,0.0026469
3336.74747,0.0026702
3335.78309,0.0026581
3334.81871,0.0026002
3333.85433,0.0025408
3332.88995,0.0025095
3331.92558,0.0025308
3330.96120,0.0025899
3329.99682,0.0026205
3329.03244,0.0026168
3328.06806,0.0026525
3327.10369,0.0027581
3326.13931,0.0028816
3325.17493,0.0029402
3324.21055,0.0029137
3323.24618,0.0028444
3322.28180,0.0027861
3321.31742,0.0027612
3320.35304,0.0027437
3319.38866,0.0027395
3318.42429,0.0027305
3317.45991,0.0027243
3316.49553,0.0027542
3315.53115,0.0027768
3314.56677,0.0027698
3313.60240,0.0027251
3312.63802,0.0026854
3311.67364,0.0026780
3310.70926,0.0026644
3309.74488,0.0026508
3308.78051,0.0026554
3307.81613,0.0026981
3306.85175,0.0027473
3305.88737,0.0028104
3304.92300,0.0029099
3303.95862,0.0029694
3302.99424,0.0029606
3302.02986,0.0029337
3301.06548,0.0029567
3300.10111,0.0029757
3299.13673,0.0029138
3298.17235,0.0028091
3297.20797,0.0027158
3296.24359,0.0026792
3295.27922,0.0026736
3294.31484,0.0026991
3293.35046,0.0027483
3292.38608,0.0027559
3291.42171,0.0027524
3290.45733,0.0027749
3289.49295,0.0028140
3288.52857,0.0028238
3287.56419,0.0027898
3286.59982,0.0027695
3285.63544,0.0027809
3284.67106,0.0028090
3283.70668,0.0028358
3282.74230,0.0028540
3281.77793,0.0028673
3280.81355,0.0028528
3279.84917,0.0027995
3278.88479,0.0027550
3277.92041,0.0027498
3276.95604,0.0027664
3275.99166,0.0027862
3275.02728,0.0028084
3274.06290,0.0028406
3273.09853,0.0028556
3272.13415,0.0028468
3271.16977,0.0028194
3270.20539,0.0027796
3269.24101,0.0027516
3268.27664,0.0027508
3267.31226,0.0027961
3266.34788,0.0028467
3265.38350,0.0028857
3264.41912,0.0029050
3263.45475,0.0028944
3262.49037,0.0028673
3261.52599,0.0027601
3260.56161,0.0026296
3259.59724,0.0025445
3258.63286,0.0025072
3257.66848,0.0025478
3256.70410,0.0025966
3255.73972,0.0026218
3254.77535,0.0026259
3253.81097,0.0026223
3252.84659,0.0026077
3251.88221,0.0025500
3250.91783,0.0024749
3249.95346,0.0023848
3248.98908,0.0023536
3248.02470,0.0023821
3247.06032,0.0023920
3246.09594,0.0024270
3245.13157,0.0024835
3244.16719,0.0025195
3243.20281,0.0025120
3242.23843,0.0024612
3241.27406,0.0023823
3240.30968,0.0023111
3239.34530,0.0022883
3238.38092,0.0022722
3237.41654,0.0022550
3236.45217,0.0022387
3235.48779,0.0022348
3234.52341,0.0022987
3233.55903,0.0023760
3232.59465,0.0024082
3231.63028,0.0024273
3230.66590,0.0024275
3229.70152,0.0024115
3228.73714,0.0024508
3227.77276,0.0025291
3226.80839,0.0025654
3225.84401,0.0025701
3224.87963,0.0025873
3223.91525,0.0026200
3222.95088,0.0026258
3221.98650,0.0025867
3221.02212,0.0025513
3220.05774,0.0025320
3219.09336,0.0024797
3218.12899,0.0024143
3217.16461,0.0023977
3216.20023,0.0023959
3215.23585,0.0023759
3214.27147,0.0023702
3213.30710,0.0023791
3212.34272,0.0023735
3211.37834,0.0023476
3210.41396,0.0023281
3209.44959,0.0023200
3208.48521,0.0023007
3207.52083,0.0022758
3206.55645,0.0022459
3205.59207,0.0022116
3204.62770,0.0022044
3203.66332,0.0022166
3202.69894,0.0022303
3201.73456,0.0022616
3200.77018,0.0023019
3199.80581,0.0023297
3198.84143,0.0023501
3197.87705,0.0023770
3196.91267,0.0024198
3195.94829,0.0024827
3194.98392,0.0024942
3194.01954,0.0024384
3193.05516,0.0024091
3192.09078,0.0023689
3191.12641,0.0022845
3190.16203,0.0022172
3189.19765,0.0021758
3188.23327,0.0021520
3187.26889,0.0021487
3186.30452,0.0021879
3185.34014,0.0022643
3184.37576,0.0023376
3183.41138,0.0023310
3182.44700,0.0022661
3181.48263,0.0022554
3180.51825,0.0022464
3179.55387,0.0022012
3178.58949,0.0021470
3177.62512,0.0020904
3176.66074,0.0020530
3175.69636,0.0020208
3174.73198,0.0020276
3173.76760,0.0020692
3172.80323,0.0020941
3171.83885,0.0020837
3170.87447,0.0020696
3169.91009,0.0021032
3168.94571,0.0021310
3167.98134,0.0021308
3167.01696,0.0021356
3166.05258,0.0021618
3165.08820,0.0021979
3164.12382,0.0022139
3163.15945,0.0022347
3162.19507,0.0022435
3161.23069,0.0022134
3160.26631,0.0021540
3159.30194,0.0020729
3158.33756,0.0019806
3157.37318,0.0018913
3156.40880,0.0018426
3155.44442,0.0018505
3154.48005,0.0019055
3153.51567,0.0019632
3152.55129,0.0020081
3151.58691,0.0020521
3150.62253,0.0020760
3149.65816,0.0021016
3148.69378,0.0021299
3147.72940,0.0021261
3146.76502,0.0020702
3145.80065,0.0019901
3144.83627,0.0019222
3143.87189,0.0018635
3142.90751,0.0018288
3141.94313,0.0018111
3140.97876,0.0018046
3140.01438,0.0018093
3139.05000,0.0018339
3138.08562,0.0018969
3137.12124,0.0019640
3136.15687,0.0020051
3135.19249,0.0020111
3134.22811,0.0019968
3133.26373,0.0019600
3132.29935,0.0019002
3131.33498,0.0018688
3130.37060,0.0018959
3129.40622,0.0019491
3128.44184,0.0019877
3127.47747,0.0020321
3126.51309,0.0020593
3125.54871,0.0020751
3124.58433,0.0021119
3123.61995,0.0021219
3122.65558,0.0021045
3121.69120,0.0020485
3120.72682,0.0019788
3119.76244,0.0019429
3118.79806,0.0019321
3117.83369,0.0019287
3116.86931,0.0018953
3115.90493,0.0018434
3114.94055,0.0017858
3113.97618,0.0017820
3113.01180,0.0018147
3112.04742,0.0017809
3111.08304,0.0017324
3110.11866,0.0016939
3109.15429,0.0016630
3108.18991,0.0016488
3107.22553,0.0016487
3106.26115,0.0016631
3105.29677,0.0016631
3104.33240,0.0016852
3103.36802,0.0017277
3102.40364,0.0017822
3101.43926,0.0018275
3100.47488,0.0018144
3099.51051,0.0017863
3098.54613,0.0017688
3097.58175,0.0017582
3096.61737,0.0017375
3095.65300,0.0017204
3094.68862,0.0017219
3093.72424,0.0017163
3092.75986,0.0016987
3091.79548,0.0016588
3090.83111,0.0016456
3089.86673,0.0016759
3088.90235,0.0016820
3087.93797,0.0016492
3086.97359,0.0016293
3086.00922,0.0016244
3085.04484,0.0015999
3084.08046,0.0016118
3083.11608,0.0016630
3082.15171,0.0016895
3081.18733,0.0016789
3080.22295,0.0016683
3079.25857,0.0016961
3078.29419,0.0017351
3077.32982,0.0017754
3076.36544,0.0018059
3075.40106,0.0018103
3074.43668,0.0017846
3073.47230,0.0017501
3072.50793,0.0017640
3071.54355,0.0017854
3070.57917,0.0017761
3069.61479,0.0017471
3068.65041,0.0017211
3067.68604,0.0017361
3066.72166,0.0017720
3065.75728,0.0018177
3064.79290,0.0018522
3063.82853,0.0018438
3062.86415,0.0018180
3061.89977,0.0018190
3060.93539,0.0018309
3059.97101,0.0017948
3059.00664,0.0017231
3058.04226,0.0016617
3057.07788,0.0016477
3056.11350,0.0016714
3055.14912,0.0016921
3054.18475,0.0017225
3053.22037,0.0017521
3052.25599,0.0017598
3051.29161,0.0017632
3050.32724,0.0017709
3049.36286,0.0017657
3048.39848,0.0017355
3047.43410,0.0016960
3046.46972,0.0016643
3045.50535,0.0016504
3044.54097,0.0016391
3043.57659,0.0016227
3042.61221,0.0016257
3041.64783,0.0016303
3040.68346,0.0016123
3039.71908,0.0015997
3038.75470,0.0016013
3037.79032,0.0016059
3036.82594,0.0016278
3035.86157,0.0016555
3034.89719,0.0016505
3033.93281,0.0016302
3032.96843,0.0016271
3032.00406,0.0016307
3031.03968,0.0016449
3030.07530,0.0016449
3029.11092,0.0016181
3028.14654,0.0016197
3027.18217,0.0016262
3026.21779,0.0016228
3025.25341,0.0016529
3024.28903,0.0016878
3023.32465,0.0016944
3022.36028,0.0016849
3021.39590,0.0016824
3020.43152,0.0016827
3019.46714,0.0016674
3018.50276,0.0016308
3017.53839,0.0015939
3016.57401,0.0015843
3015.60963,0.0016015
3014.64525,0.0016438
3013.68088,0.0016806
3012.71650,0.0016985
3011.75212,0.0016876
3010.78774,0.0016405
3009.82336,0.0016196
3008.85899,0.0016316
3007.89461,0.0016526
3006.93023,0.0016727
3005.96585,0.0016958
3005.00147,0.0017471
3004.03710,0.0018122
3003.07272,0.0018596
3002.10834,0.0018581
3001.14396,0.0018394
3000.17959,0.0018086
2999.21521,0.0017591
2998.25083,0.0017496
2997.28645,0.0017608
2996.32207,0.0017766
2995.35770,0.0017868
2994.39332,0.0017823
2993.42894,0.0017821
2992.46456,0.0017553
2991.50018,0.0017103
2990.53581,0.0016711
2989.57143,0.0016609
2988.60705,0.0016779
2987.64267,0.0016879
2986.67829,0.0016968
2985.71392,0.0017034
2984.74954,0.0017250
2983.78516,0.0017721
2982.82078,0.0018261
2981.85641,0.0018683
2980.89203,0.0018741
2979.92765,0.0018578
2978.96327,0.0018586
2977.99889,0.0018880
2977.03452,0.0019069
2976.07014,0.0018942
2975.10576,0.0018812
2974.14138,0.0018967
2973.17700,0.0019460
2972.21263,0.0020263
2971.24825,0.0021188
2970.28387,0.0021864
2969.31949,0.0022331
2968.35512,0.0022504
2967.39074,0.0022599
2966.42636,0.0023119
2965.46198,0.0023448
2964.49760,0.0023443
2963.53323,0.0023628
2962.56885,0.0023830
2961.60447,0.0024000
2960.64009,0.0024321
2959.67571,0.0024577
2958.71134,0.0024611
2957.74696,0.0024531
2956.78258,0.0024273
2955.81820,0.0024146
2954.85382,0.0024323
2953.88945,0.0024287
2952.92507,0.0024125
2951.96069,0.0024271
2950.99631,0.0024572
2950.03194,0.0024784
2949.06756,0.0025069
2948.10318,0.0025472
2947.13880,0.0025934
2946.17442,0.0026469
2945.21005,0.0026989
2944.24567,0.0027537
2943.28129,0.0027928
2942.31691,0.0028264
2941.35253,0.0029005
2940.38816,0.0030080
2939.42378,0.0031093
2938.45940,0.0031822
2937.49502,0.0032665
2936.53065,0.0033689
2935.56627,0.0034690
2934.60189,0.0035870
2933.63751,0.0037062
2932.67313,0.0038083
2931.70876,0.0038873
2930.74438,0.0039610
2929.78000,0.0040519
2928.81562,0.0041559
2927.85124,0.0042697
2926.88687,0.0043475
2925.92249,0.0043720
2924.95811,0.0043662
2923.99373,0.0043473
2923.02935,0.0043239
2922.06498,0.0042625
2921.10060,0.0041579
2920.13622,0.0040231
2919.17184,0.0038688
2918.20747,0.0037332
2917.24309,0.0036422
2916.27871,0.0035720
2915.31433,0.0034826
2914.34995,0.0033973
2913.38558,0.0033201
2912.42120,0.0032310
2911.45682,0.0031472
2910.49244,0.0030588
2909.52806,0.0029672
2908.56369,0.0028868
2907.59931,0.0028193
2906.63493,0.0027574
2905.67055,0.0026971
2904.70618,0.0026531
2903.74180,0.0026337
2902.77742,0.0026374
2901.81304,0.0026024
2900.84866,0.0025367
2899.88429,0.0025031
2898.91991,0.0024700
2897.95553,0.0024603
2896.99115,0.0024701
2896.02677,0.0024428
2895.06240,0.0023885
2894.09802,0.0023325
2893.13364,0.0022986
2892.16926,0.0022666
2891.20488,0.0022219
2890.24051,0.0021636
2889.27613,0.0021168
2888.31175,0.0021065
2887.34737,0.0021021
2886.38300,0.0021172
2885.41862,0.0021291
2884.45424,0.0021236
2883.48986,0.0021307
2882.52548,0.0021366
2881.56111,0.0021395
2880.59673,0.0021274
2879.63235,0.0021227
2878.66797,0.0021294
2877.70359,0.0021235
2876.73922,0.0021359
2875.77484,0.0021535
2874.81046,0.0021457
2873.84608,0.0021260
2872.88171,0.0021309
2871.91733,0.0021672
2870.95295,0.0022092
2869.98857,0.0022292
2869.02419,0.0022378
2868.05982,0.0022828
2867.09544,0.0023288
2866.13106,0.0023497
2865.16668,0.0023751
2864.20230,0.0024032
2863.23793,0.0024266
2862.27355,0.0024487
2861.30917,0.0024967
2860.34479,0.0025590
2859.38041,0.0026094
2858.41604,0.0026483
2857.45166,0.0026913
2856.48728,0.0027567
2855.52290,0.0028027
2854.55853,0.0028202
2853.59415,0.0028359
2852.62977,0.0028415
2851.66539,0.0028212
2850.70101,0.0027631
2849.73664,0.0026745
2848.77226,0.0025561
2847.80788,0.0024349
2846.84350,0.0023439
2845.87912,0.0022812
2844.91475,0.0022279
2843.95037,0.0021572
2842.98599,0.0020935
2842.02161,0.0020510
2841.05724,0.0020079
2840.09286,0.0019722
2839.12848,0.0019406
2838.16410,0.0019041
2837.19972,0.0018548
2836.23535,0.0017937
2835.27097,0.0017480
2834.30659,0.0017108
2833.34221,0.0016515
2832.37783,0.0015749
2831.41346,0.0015000
2830.44908,0.0014346
2829.48470,0.0013985
2828.52032,0.0014067
2827.55594,0.0014362
2826.59157,0.0014619
2825.62719,0.0014651
2824.66281,0.0014518
2823.69843,0.0014503
2822.73406,0.0014544
2821.76968,0.0014611
2820.80530,0.0014597
2819.84092,0.0014404
2818.87654,0.0014376
2817.91217,0.0014609
2816.94779,0.0014901
2815.98341,0.0014962
2815.01903,0.0014678
2814.05465,0.0014272
2813.09028,0.0013996
2812.12590,0.0013957
2811.16152,0.0013965
2810.19714,0.0013906
2809.23276,0.0013807
2808.26839,0.0013804
2807.30401,0.0014014
2806.33963,0.0014172
2805.37525,0.0014120
2804.41088,0.0013861
2803.44650,0.0013513
2802.48212,0.0013269
2801.51774,0.0013145
2800.55336,0.0013017
2799.58899,0.0012716
2798.62461,0.0012566
2797.66023,0.0012818
2796.69585,0.0013049
2795.73147,0.0013172
2794.76710,0.0013312
2793.80272,0.0013336
2792.83834,0.0013355
2791.87396,0.0013452
2790.90959,0.0013511
2789.94521,0.0013487
2788.98083,0.0013271
2788.01645,0.0012972
2787.05207,0.0012888
2786.08770,0.0012850
2785.12332,0.0012565
2784.15894,0.0012384
2783.19456,0.0012473
2782.23018,0.0012468
2781.26581,0.0012467
2780.30143,0.0012586
2779.33705,0.0012736
2778.37267,0.0013010
2777.40829,0.0013250
2776.44392,0.0013290
2775.47954,0.0013236
2774.51516,0.0013079
2773.55078,0.0012853
2772.58641,0.0012843
2771.62203,0.0012978
2770.65765,0.0012956
2769.69327,0.0012775
2768.72889,0.0012545
2767.76452,0.0012401
2766.80014,0.0012371
2765.83576,0.0012303
2764.87138,0.0012103
2763.90700,0.0012025
2762.94263,0.0012118
2761.97825,0.0012213
2761.01387,0.0012548
2760.04949,0.0013135
2759.08512,0.0013689
2758.12074,0.0013897
2757.15636,0.0013850
2756.19198,0.0013859
2755.22760,0.0013714
2754.26323,0.0013454
2753.29885,0.0013245
2752.33447,0.0013148
2751.37009,0.0013067
2750.40571,0.0012835
2749.44134,0.0012669
2748.47696,0.0012501
2747.51258,0.0012300
2746.54820,0.0012140
2745.58382,0.0012135
2744.61945,0.0012363
2743.65507,0.0012474
2742.69069,0.0012493
2741.72631,0.0012556
2740.76194,0.0012646
2739.79756,0.0012641
2738.83318,0.0012492
2737.86880,0.0012376
2736.90442,0.0012186
2735.94005,0.0012015
2734.97567,0.0011977
2734.01129,0.0012030
2733.04691,0.0012190
2732.08253,0.0012373
2731.11816,0.0012520
2730.15378,0.0012489
2729.18940,0.0012378
2728.22502,0.0012238
2727.26065,0.0012017
2726.29627,0.0011792
2725.33189,0.0011526
2724.36751,0.0011421
2723.40313,0.0011487
2722.43876,0.0011613
2721.47438,0.0011964
2720.51000,0.0012481
2719.54562,0.0012850
2718.58124,0.0012836
2717.61687,0.0012565
2716.65249,0.0012185
2715.68811,0.0011762
2714.72373,0.0011397
2713.75935,0.0011029
2712.79498,0.0010736
2711.83060,0.0010673
2710.86622,0.0010882
2709.90184,0.0011329
2708.93747,0.0011855
2707.97309,0.0012361
2707.00871,0.0012658
2706.04433,0.0012634
2705.07995,0.0012536
2704.11558,0.0012394
2703.15120,0.0012063
2702.18682,0.0011691
2701.22244,0.0011449
2700.25806,0.0011334
2699.29369,0.0011367
2698.32931,0.0011654
2697.36493,0.0012111
2696.40055,0.0012487
2695.43618,0.0012649
2694.47180,0.0012569
2693.50742,0.0012385
2692.54304,0.0012198
2691.57866,0.0012002
2690.61429,0.0011957
2689.64991,0.0011941
2688.68553,0.0011709
2687.72115,0.0011539
2686.75677,0.0011629
2685.79240,0.0011730
2684.82802,0.0011632
2683.86364,0.0011451
2682.89926,0.0011294
2681.93488,0.0011080
2680.97051,0.0010983
2680.00613,0.0011060
2679.04175,0.0011185
2678.07737,0.0011325
2677.11300,0.0011316
2676.14862,0.0011220
2675.18424,0.0011247
2674.21986,0.0011550
2673.25548,0.0012039
2672.29111,0.0012308
2671.32673,0.0012299
2670.36235,0.0012250
2669.39797,0.0012446
2668.43359,0.0012824
2667.46922,0.0012985
2666.50484,0.0012702
2665.54046,0.0012023
2664.57608,0.0011382
2663.61171,0.0011077
2662.64733,0.0011092
2661.68295,0.0011126
2660.71857,0.0010860
2659.75419,0.0010621
2658.78982,0.0010712
2657.82544,0.0011113
2656.86106,0.0011628
2655.89668,0.0011904
2654.93230,0.0011884
2653.96793,0.0011825
2653.00355,0.0012025
2652.03917,0.0012385
2651.07479,0.0012495
2650.11041,0.0012201
2649.14604,0.0011764
2648.18166,0.0011406
2647.21728,0.0011150
2646.25290,0.0011018
2645.28853,0.0010751
2644.32415,0.0010378
2643.35977,0.0010322
2642.39539,0.0010631
2641.43101,0.0011102
2640.46664,0.0011527
2639.50226,0.0011816
2638.53788,0.0011979
2637.57350,0.0012095
2636.60912,0.0012089
2635.64475,0.0011902
2634.68037,0.0011526
2633.71599,0.0010770
2632.75161,0.0010015
2631.78724,0.0009661
2630.82286,0.0009641
2629.85848,0.0009869
2628.89410,0.0010061
2627.92972,0.0010178
2626.96535,0.0010323
2626.00097,0.0010524
2625.03659,0.0010781
2624.07221,0.0010994
2623.10783,0.0011112
2622.14346,0.0010935
2621.17908,0.0010625
2620.21470,0.0010647
2619.25032,0.0010937
2618.28594,0.0011195
2617.32157,0.0011202
2616.35719,0.0010858
2615.39281,0.0010328
2614.42843,0.0009927
2613.46406,0.0009755
2612.49968,0.0009574
2611.53530,0.0009309
2610.57092,0.0009211
2609.60654,0.0009457
2608.64217,0.0010147
2607.67779,0.0011097
2606.71341,0.0011963
2605.74903,0.0012565
2604.78465,0.0012682
2603.82028,0.0012428
2602.85590,0.0012052
2601.89152,0.0011727
2600.92714,0.0011428
2599.96276,0.0011016
2598.99839,0.0010960
2598.03401,0.0011069
2597.06963,0.0010941
2596.10525,0.0011037
2595.14088,0.0011232
2594.17650,0.0011291
2593.21212,0.0011350
2592.24774,0.0011264
2591.28336,0.0010849
2590.31899,0.0010277
2589.35461,0.0009666
2588.39023,0.0008925
2587.42585,0.0008278
2586.46147,0.0007806
2585.49710,0.0007451
2584.53272,0.0007266
2583.56834,0.0007446
2582.60396,0.0008023
2581.63959,0.0008561
2580.67521,0.0009129
2579.71083,0.0009906
2578.74645,0.0010664
2577.78207,0.0011288
2576.81770,0.0011555
2575.85332,0.0011218
2574.88894,0.0010546
2573.92456,0.0009665
2572.96018,0.0008298
2571.99581,0.0007037
2571.03143,0.0005958
2570.06705,0.0004995
2569.10267,0.0005056
2568.13829,0.0005646
2567.17392,0.0006511
2566.20954,0.0008043
2565.24516,0.0009571
2564.28078,0.0010558
2563.31641,0.0010710
2562.35203,0.0010293
2561.38765,0.0009880
2560.42327,0.0009752
2559.45889,0.0009492
2558.49452,0.0008785
2557.53014,0.0008197
2556.56576,0.0007692
2555.60138,0.0007706
2554.63700,0.0008375
2553.67263,0.0008847
2552.70825,0.0009003
2551.74387,0.0008533
2550.77949,0.0007853
2549.81512,0.0007909
2548.85074,0.0008822
2547.88636,0.0009785
2546.92198,0.0009883
2545.95760,0.0009968
2544.99323,0.0010526
2544.02885,0.0011076
2543.06447,0.0011408
2542.10009,0.0011176
2541.13571,0.0010387
2540.17134,0.0009113
2539.20696,0.0007646
2538.24258,0.0006544
2537.27820,0.0006432
2536.31382,0.0006850
2535.34945,0.0006902
2534.38507,0.0007402
2533.42069,0.0008423
2532.45631,0.0009330
2531.49194,0.0010097
2530.52756,0.0010278
2529.56318,0.0009729
2528.59880,0.0008954
2527.63442,0.0008548
2526.67005,0.0008486
2525.70567,0.0008968
2524.74129,0.0009792
2523.77691,0.0010284
2522.81253,0.0010861
2521.84816,0.0011069
2520.88378,0.0010552
2519.91940,0.0009931
2518.95502,0.0009156
2517.99065,0.0008498
2517.02627,0.0008475
2516.06189,0.0009090
2515.09751,0.0010072
2514.13313,0.0011189
2513.16876,0.0011898
2512.20438,0.0011955
2511.24000,0.0011783
2510.27562,0.0011134
2509.31124,0.0010061
2508.34687,0.0009394
2507.38249,0.0009231
2506.41811,0.0009030
2505.45373,0.0008773
2504.48935,0.0008622
2503.52498,0.0008590
2502.56060,0.0008889
2501.59622,0.0009070
2500.63184,0.0008974
2499.66747,0.0008905
2498.70309,0.0008642
2497.73871,0.0008570
2496.77433,0.0009042
2495.80995,0.0009384
2494.84558,0.0009343
2493.88120,0.0009804
2492.91682,0.0010754
2491.95244,0.0011427
2490.98806,0.0012010
2490.02369,0.0012324
2489.05931,0.0012250
2488.09493,0.0012004
2487.13055,0.0011439
2486.16618,0.0010995
2485.20180,0.0010749
2484.23742,0.0010433
2483.27304,0.0010500
2482.30866,0.0011110
2481.34429,0.0011578
2480.37991,0.0011241
2479.41553,0.0010211
2478.45115,0.0009251
2477.48677,0.0008990
2476.52240,0.0009272
2475.55802,0.0009848
2474.59364,0.0010627
2473.62926,0.0011259
2472.66488,0.0011710
2471.70051,0.0012080
2470.73613,0.0012180
2469.77175,0.0011668
2468.80737,0.0010470
2467.84300,0.0009087
2466.87862,0.0008025
2465.91424,0.0007472
2464.94986,0.0007113
2463.98548,0.0006682
2463.02111,0.0006441
2462.05673,0.0006581
2461.09235,0.0006840
2460.12797,0.0006651
2459.16359,0.0006307
2458.19922,0.0006387
2457.23484,0.0006752
2456.27046,0.0007362
2455.30608,0.0007870
2454.34171,0.0008031
2453.37733,0.0007942
2452.41295,0.0007704
2451.44857,0.0007786
2450.48419,0.0007935
2449.51982,0.0007693
2448.55544,0.0007368
2447.59106,0.0007328
2446.62668,0.0007558
2445.66230,0.0007772
2444.69793,0.0007991
2443.73355,0.0008193
2442.76917,0.0008228
2441.80479,0.0008088
2440.84041,0.0007708
2439.87604,0.0007314
2438.91166,0.0007136
2437.94728,0.0007179
2436.98290,0.0007376
2436.01853,0.0007477
2435.05415,0.0007777
2434.08977,0.0008850
2433.12539,0.0010207
2432.16101,0.0011198
2431.19664,0.0011769
2430.23226,0.0011794
2429.26788,0.0011531
2428.30350,0.0011506
2427.33912,0.0011424
2426.37475,0.0010850
2425.41037,0.0010330
2424.44599,0.0010049
2423.48161,0.0009939
2422.51724,0.0010279
2421.55286,0.0010378
2420.58848,0.0010151
2419.62410,0.0009824
2418.65972,0.0009020
2417.69535,0.0008484
2416.73097,0.0008401
2415.76659,0.0008170
2414.80221,0.0008051
2413.83783,0.0008343
2412.87346,0.0008560
2411.90908,0.0008426
2410.94470,0.0008307
2409.98032,0.0008155
2409.01594,0.0008354
2408.05157,0.0008793
2407.08719,0.0008744
2406.12281,0.0008643
2405.15843,0.0008457
2404.19406,0.0008155
2403.22968,0.0008337
2402.26530,0.0008831
2401.30092,0.0009010
2400.33654,0.0008749
2399.37217,0.0008571
2398.40779,0.0008712
2397.44341,0.0009361
2396.47903,0.0009993
2395.51465,0.0009858
2394.55028,0.0009611
2393.58590,0.0009488
2392.62152,0.0009404
2391.65714,0.0009473
2390.69276,0.0009368
2389.72839,0.0009070
2388.76401,0.0008877
2387.79963,0.0008959
2386.83525,0.0009018
2385.87088,0.0008943
2384.90650,0.0008682
2383.94212,0.0008219
2382.97774,0.0008095
2382.01336,0.0008083
2381.04899,0.0007846
2380.08461,0.0007559
2379.12023,0.0007425
2378.15585,0.0007883
2377.19147,0.0008733
2376.22710,0.0009327
2375.26272,0.0009531
2374.29834,0.0009815
2373.33396,0.0010283
2372.36959,0.0010708
2371.40521,0.0011365
2370.44083,0.0012030
2369.47645,0.0012351
2368.51207,0.0012441
2367.54770,0.0012331
2366.58332,0.0012031
2365.61894,0.0011207
2364.65456,0.0009981
2363.69018,0.0009051
2362.72581,0.0008702
2361.76143,0.0009015
2360.79705,0.0009715
2359.83267,0.0010449
2358.86829,0.0011149
2357.90392,0.0011746
2356.93954,0.0012177
2355.97516,0.0012211
2355.01078,0.0011679
2354.04641,0.0010830
2353.08203,0.0010171
2352.11765,0.0009896
2351.15327,0.0009860
2350.18889,0.0010080
2349.22452,0.0010336
2348.26014,0.0010489
2347.29576,0.0010611
2346.33138,0.0010648
2345.36700,0.0010869
2344.40263,0.0011079
2343.43825,0.0010952
2342.47387,0.0010656
2341.50949,0.0010502
2340.54512,0.0010755
2339.58074,0.0010935
2338.61636,0.0010911
2337.65198,0.0011145
2336.68760,0.0011276
2335.72323,0.0010868
2334.75885,0.0010443
2333.79447,0.0010501
2332.83009,0.0010563
2331.86571,0.0010314
2330.90134,0.0009910
2329.93696,0.0009844
2328.97258,0.0010304
2328.00820,0.0010484
2327.04382,0.0010431
2326.07945,0.0010256
2325.11507,0.0009495
2324.15069,0.0008527
2323.18631,0.0008069
2322.22194,0.0008317
2321.25756,0.0008465
2320.29318,0.0008179
2319.32880,0.0008108
2318.36442,0.0008409
2317.40005,0.0008759
2316.43567,0.0009188
2315.47129,0.0009853
2314.50691,0.0010194
2313.54253,0.0010139
2312.57816,0.0010319
2311.61378,0.0010852
2310.64940,0.0011176
2309.68502,0.0010741
2308.72065,0.0009987
2307.75627,0.0009251
2306.79189,0.0008485
2305.82751,0.0008068
2304.86313,0.0008142
2303.89876,0.0008329
2302.93438,0.0008404
2301.97000,0.0008345
2301.00562,0.0008455
2300.04124,0.0009071
2299.07687,0.0009509
2298.11249,0.0009770
2297.14811,0.0009965
2296.18373,0.0009757
2295.21935,0.0010087
2294.25498,0.0010603
2293.29060,0.0010383
2292.32622,0.0010194
2291.36184,0.0010605
2290.39747,0.0011155
2289.43309,0.0011640
2288.46871,0.0012382
2287.50433,0.0013040
2286.53995,0.0013173
2285.57558,0.0012170
2284.61120,0.0010713
2283.64682,0.0009980
2282.68244,0.0009202
2281.71806,0.0008263
2280.75369,0.0007263
2279.78931,0.0006225
2278.82493,0.0005210
2277.86055,0.0004468
2276.89618,0.0004607
2275.93180,0.0004552
2274.96742,0.0004011
2274.00304,0.0002899
2273.03866,0.0001839
2272.07429,0.0002687
2271.10991,0.0004115
2270.14553,0.0004445
2269.18115,0.0004134
2268.21677,0.0004100
2267.25240,0.0004681
2266.28802,0.0005723
2265.32364,0.0006155
2264.35926,0.0005456
2263.39488,0.0005294
2262.43051,0.0004725
2261.46613,0.0003072
2260.50175,0.0002194
2259.53737,0.0001878
2258.57300,0.0002494
2257.60862,0.0004372
2256.64424,0.0006312
2255.67986,0.0007812
2254.71548,0.0008695
2253.75111,0.0008839
2252.78673,0.0008395
2251.82235,0.0007510
2250.85797,0.0005494
2249.89359,0.0002550
2248.92922,0.0000401
2247.96484,0.0000126
2247.00046,0.0001145
2246.03608,0.0002091
2245.07171,0.0002966
2244.10733,0.0003500
2243.14295,0.0003186
2242.17857,0.0002344
2241.21419,0.0000674
2240.24982,-0.0001461
2239.28544,-0.0002726
2238.32106,-0.0003291
2237.35668,-0.0003054
2236.39230,-0.0002131
2235.42793,-0.0000752
2234.46355,0.0001113
2233.49917,0.0003237
2232.53479,0.0004664
2231.57041,0.0005140
2230.60604,0.0005271
2229.64166,0.0005125
2228.67728,0.0004745
2227.71290,0.0004758
2226.74853,0.0004771
2225.78415,0.0004783
2224.81977,0.0004796
2223.85539,0.0004808
2222.89101,0.0004821
2221.92664,0.0004834
2220.96226,0.0004846
2219.99788,0.0004859
2219.03350,0.0004871
2218.06912,0.0004884
2217.10475,0.0004897
2216.14037,0.0004909
2215.17599,0.0004922
2214.21161,0.0004934
2213.24724,0.0004947
2212.28286,0.0004960
2211.31848,0.0004972
2210.35410,0.0004985
2209.38972,0.0004997
2208.42535,0.0005010
2207.46097,0.0005023
2206.49659,0.0005035
2205.53221,0.0005048
2204.56783,0.0005060
2203.60346,0.0005073
2202.63908,0.0005086
2201.67470,0.0005098
2200.71032,0.0005111
2199.74594,0.0005123
2198.78157,0.0005136
2197.81719,0.0005149
2196.85281,0.0005161
2195.88843,0.0005174
2194.92406,0.0005187
2193.95968,0.0005199
2192.99530,0.0005212
2192.03092,0.0005224
2191.06654,0.0005237
2190.10217,0.0005250
2189.13779,0.0005262
2188.17341,0.0005275
2187.20903,0.0005287
2186.24465,0.0005300
2185.28028,0.0005313
2184.31590,0.0005325
2183.35152,0.0005338
2182.38714,0.0005350
2181.42276,0.0005363
2180.45839,0.0005376
2179.49401,0.0005388
2178.52963,0.0005401
2177.56525,0.0005413
2176.60088,0.0005426
2175.63650,0.0005439
2174.67212,0.0005451
2173.70774,0.0005464
2172.74336,0.0005476
2171.77899,0.0005489
2170.81461,0.0005502
2169.85023,0.0005514
2168.88585,0.0005527
2167.92147,0.0005539
2166.95710,0.0005552
2165.99272,0.0005565
2165.02834,0.0005577
2164.06396,0.0005590
2163.09959,0.0005602
2162.13521,0.0005615
2161.17083,0.0005628
2160.20645,0.0005640
2159.24207,0.0005653
2158.27770,0.0005665
2157.31332,0.0005678
2156.34894,0.0005691
2155.38456,0.0005703
2154.42018,0.0005716
2153.45581,0.0005728
2152.49143,0.0005741
2151.52705,0.0005754
2150.56267,0.0005766
2149.59829,0.0005779
2148.63392,0.0005792
2147.66954,0.0005804
2146.70516,0.0005817
2145.74078,0.0005829
2144.77641,0.0005842
2143.81203,0.0005855
2142.84765,0.0005867
2141.88327,0.0005880
2140.91889,0.0005892
2139.95452,0.0005905
2138.99014,0.0005918
2138.02576,0.0005930
2137.06138,0.0005943
2136.09700,0.0005955
2135.13263,0.0005968
2134.16825,0.0005981
2133.20387,0.0005993
2132.23949,0.0006006
2131.27512,0.0006018
2130.31074,0.0006031
2129.34636,0.0006044
2128.38198,0.0006056
2127.41760,0.0006069
2126.45323,0.0006081
2125.48885,0.0006094
2124.52447,0.0006107
2123.56009,0.0006119
2122.59571,0.0006132
2121.63134,0.0006144
2120.66696,0.0006157
2119.70258,0.0006170
2118.73820,0.0006182
2117.77382,0.0006195
2116.80945,0.0006207
2115.84507,0.0006220
2114.88069,0.0006233
2113.91631,0.0006245
2112.95194,0.0006258
2111.98756,0.0006270
2111.02318,0.0006283
2110.05880,0.0006296
2109.09442,0.0006308
2108.13005,0.0006321
2107.16567,0.0006333
2106.20129,0.0006346
2105.23691,0.0006359
2104.27253,0.0006371
2103.30816,0.0006384
2102.34378,0.0006397
2101.37940,0.0006409
2100.41502,0.0006422
2099.45065,0.0006434
2098.48627,0.0006447
2097.52189,0.0006460
2096.55751,0.0006472
2095.59313,0.0006485
2094.62876,0.0006497
2093.66438,0.0006510
2092.70000,0.0006523
2091.73562,0.0006535
2090.77124,0.0006548
2089.80687,0.0006560
2088.84249,0.0006573
2087.87811,0.0006586
2086.91373,0.0006598
2085.94935,0.0006611
2084.98498,0.0006623
2084.02060,0.0006636
2083.05622,0.0006649
2082.09184,0.0006661
2081.12747,0.0006674
2080.16309,0.0006686
2079.19871,0.0006699
2078.23433,0.0006712
2077.26995,0.0006724
2076.30558,0.0006737
2075.34120,0.0006749
2074.37682,0.0006762
2073.41244,0.0006775
2072.44806,0.0006787
2071.48369,0.0006800
2070.51931,0.0006812
2069.55493,0.0006825
2068.59055,0.0006838
2067.62618,0.0006850
2066.66180,0.0006863
2065.69742,0.0006875
2064.73304,0.0006888
2063.76866,0.0006901
2062.80429,0.0006913
2061.83991,0.0006926
2060.87553,0.0006938
2059.91115,0.0006951
2058.94677,0.0006964
2057.98240,0.0006976
2057.01802,0.0006989
2056.05364,0.0007002
2055.08926,0.0007014
2054.12488,0.0007027
2053.16051,0.0007039
2052.19613,0.0007052
2051.23175,0.0007065
2050.26737,0.0007077
2049.30300,0.0007090
2048.33862,0.0007102
2047.37424,0.0007115
2046.40986,0.0007128
2045.44548,0.0007140
2044.48111,0.0007153
2043.51673,0.0007165
2042.55235,0.0007178
2041.58797,0.0007191
2040.62359,0.0007203
2039.65922,0.0007216
2038.69484,0.0007228
2037.73046,0.0007241
2036.76608,0.0007254
2035.80171,0.0007266
2034.83733,0.0007279
2033.87295,0.0007291
2032.90857,0.0007304
2031.94419,0.0007317
2030.97982,0.0007329
2030.01544,0.0007342
2029.05106,0.0007354
2028.08668,0.0007367
2027.12230,0.0007380
2026.15793,0.0007392
2025.19355,0.0007405
2024.22917,0.0007417
2023.26479,0.0007430
2022.30041,0.0007443
2021.33604,0.0007455
2020.37166,0.0007468
2019.40728,0.0007480
2018.44290,0.0007493
2017.47853,0.0007506
2016.51415,0.0007518
2015.54977,0.0007531
2014.58539,0.0007543
2013.62101,0.0007556
2012.65664,0.0007569
2011.69226,0.0007581
2010.72788,0.0007594
2009.76350,0.0007607
2008.79912,0.0007619
2007.83475,0.0007632
2006.87037,0.0007644
2005.90599,0.0007657
2004.94161,0.0007670
2003.97724,0.0007682
2003.01286,0.0007695
2002.04848,0.0007707
2001.08410,0.0007720
2000.11972,0.0007733
1999.15535,0.0007745
1998.19097,0.0007758
1997.22659,0.0007770
1996.26221,0.0007783
1995.29783,0.0007796
1994.33346,0.0007808
1993.36908,0.0007821
1992.40470,0.0007833
1991.44032,0.0007846
1990.47594,0.0007859
1989.51157,0.0007871
1988.54719,0.0007884
1987.58281,0.0007896
1986.61843,0.0007909
1985.65406,0.0007922
1984.68968,0.0007934
1983.72530,0.0007947
1982.76092,0.0007959
1981.79654,0.0007972
1980.83217,0.0007985
1979.86779,0.0007997
1978.90341,0.0008010
1977.93903,0.0008022
1976.97465,0.0008035
1976.01028,0.0008048
1975.04590,0.0008060
1974.08152,0.0008073
1973.11714,0.0008085
1972.15276,0.0008098
1971.18839,0.0008111
1970.22401,0.0008123
1969.25963,0.0008136
1968.29525,0.0008148
1967.33088,0.0008161
1966.36650,0.0008174
1965.40212,0.0008186
1964.43774,0.0008199
1963.47336,0.0008212
1962.50899,0.0008224
1961.54461,0.0008237
1960.58023,0.0008249
1959.61585,0.0008262
1958.65147,0.0008275
1957.68710,0.0008287
1956.72272,0.0008300
1955.75834,0.0008312
1954.79396,0.0008325
1953.82959,0.0008338
1952.86521,0.0008350
1951.90083,0.0008363
1950.93645,0.0008375
1949.97207,0.0008388
1949.00770,0.0008401
1948.04332,0.0008413
1947.07894,0.0008426
1946.11456,0.0008438
1945.15018,0.0008451
1944.18581,0.0008464
1943.22143,0.0008476
1942.25705,0.0008489
1941.29267,0.0008501
1940.32829,0.0008514
1939.36392,0.0008527
1938.39954,0.0008539
1937.43516,0.0008575
1936.47078,0.0008515
1935.50641,0.0008556
1934.54203,0.0009046
1933.57765,0.0009185
1932.61327,0.0008535
1931.64889,0.0007905
1930.68452,0.0007222
1929.72014,0.0006318
1928.75576,0.0005512
1927.79138,0.0004714
1926.82700,0.0003841
1925.86263,0.0003829
1924.89825,0.0004671
1923.93387,0.0005851
1922.96949,0.0007241
1922.00512,0.0007511
1921.04074,0.0007239
1920.07636,0.0007472
1919.11198,0.0007696
1918.14760,0.0008240
1917.18323,0.0009057
1916.21885,0.0009795
1915.25447,0.0010252
1914.29009,0.0011248
1913.32571,0.0012288
1912.36134,0.0012367
1911.39696,0.0011966
1910.43258,0.0010714
1909.46820,0.0009116
1908.50382,0.0007196
1907.53945,0.0005515
1906.57507,0.0004943
1905.61069,0.0004583
1904.64631,0.0004588
1903.68194,0.0004729
1902.71756,0.0005151
1901.75318,0.0005724
1900.78880,0.0006173
1899.82442,0.0007230
1898.86005,0.0008333
1897.89567,0.0008873
1896.93129,0.0008663
1895.96691,0.0008866
1895.00253,0.0009482
1894.03816,0.0009289
1893.07378,0.0008760
1892.10940,0.0007780
1891.14502,0.0006608
1890.18065,0.0005550
1889.21627,0.0004920
1888.25189,0.0004811
1887.28751,0.0004404
1886.32313,0.0003855
1885.35876,0.0003534
1884.39438,0.0003933
1883.43000,0.0004595
1882.46562,0.0005111
1881.50124,0.0005675
1880.53687,0.0006193
1879.57249,0.0007067
1878.60811,0.0007841
1877.64373,0.0008340
1876.67935,0.0008295
1875.71498,0.0007583
1874.75060,0.0006943
1873.78622,0.0006424
1872.82184,0.0006127
1871.85747,0.0005929
1870.89309,0.0006020
1869.92871,0.0006191
1868.96433,0.0006112
1867.99995,0.0006025
1867.03558,0.0005673
1866.07120,0.0005390
1865.10682,0.0005149
1864.14244,0.0004907
1863.17806,0.0004911
1862.21369,0.0005436
1861.24931,0.0006649
1860.28493,0.0007680
1859.32055,0.0008525
1858.35618,0.0009127
1857.39180,0.0009219
1856.42742,0.0009113
1855.46304,0.0008764
1854.49866,0.0008445
1853.53429,0.0008231
1852.56991,0.0008044
1851.60553,0.0007985
1850.64115,0.0008424
1849.67677,0.0009193
1848.71240,0.0009558
1847.74802,0.0009709
1846.78364,0.0009583
1845.81926,0.0008948
1844.85488,0.0008109
1843.89051,0.0007487
1842.92613,0.0007412
1841.96175,0.0007677
1840.99737,0.0007823
1840.03300,0.0007819
1839.06862,0.0007922
1838.10424,0.0008079
1837.13986,0.0008552
1836.17548,0.0008950
1835.21111,0.0008609
1834.24673,0.0008141
1833.28235,0.0007765
1832.31797,0.0007610
1831.35359,0.0007750
1830.38922,0.0007818
1829.42484,0.0007546
1828.46046,0.0006893
1827.49608,0.0006393
1826.53171,0.0006224
1825.56733,0.0006353
1824.60295,0.0006348
1823.63857,0.0006117
1822.67419,0.0006325
1821.70982,0.0006615
1820.74544,0.0006939
1819.78106,0.0007415
1818.81668,0.0007788
1817.85230,0.0008021
1816.88793,0.0007963
1815.92355,0.0007933
1814.95917,0.0008065
1813.99479,0.0008190
1813.03041,0.0008238
1812.06604,0.0008178
1811.10166,0.0008137
1810.13728,0.0008175
1809.17290,0.0008353
1808.20853,0.0008428
1807.24415,0.0008303
1806.27977,0.0007964
1805.31539,0.0007382
1804.35101,0.0006938
1803.38664,0.0006831
1802.42226,0.0006984
1801.45788,0.0007076
1800.49350,0.0007155
1799.52912,0.0007418
1798.56475,0.0007670
1797.60037,0.0007967
1796.63599,0.0008201
1795.67161,0.0008308
1794.70724,0.0008329
1793.74286,0.0008350
1792.77848,0.0008475
1791.81410,0.0008530
1790.84972,0.0008622
1789.88535,0.0008658
1788.92097,0.0008710
1787.95659,0.0008856
1786.99221,0.0008817
1786.02783,0.0008890
1785.06346,0.0008930
1784.09908,0.0008685
1783.13470,0.0008463
1782.17032,0.0008316
1781.20594,0.0008128
1780.24157,0.0007812
1779.27719,0.0007592
1778.31281,0.0007602
1777.34843,0.0007828
1776.38406,0.0008185
1775.41968,0.0008404
1774.45530,0.0008407
1773.49092,0.0008162
1772.52654,0.0007969
1771.56217,0.0008075
1770.59779,0.0008219
1769.63341,0.0008311
1768.66903,0.0008458
1767.70465,0.0008641
1766.74028,0.0008810
1765.77590,0.0009056
1764.81152,0.0009205
1763.84714,0.0009038
1762.88276,0.0008800
1761.91839,0.0008754
1760.95401,0.0008929
1759.98963,0.0009125
1759.02525,0.0009226
1758.06088,0.0009373
1757.09650,0.0009597
1756.13212,0.0009745
1755.16774,0.0009886
1754.20336,0.0010169
1753.23899,0.0010460
1752.27461,0.0010820
1751.31023,0.0011424
1750.34585,0.0012138
1749.38147,0.0012687
1748.41710,0.0012929
1747.45272,0.0013035
1746.48834,0.0013194
1745.52396,0.0013302
1744.55959,0.0013261
1743.59521,0.0013271
1742.63083,0.0013395
1741.66645,0.0013505
1740.70207,0.0013707
1739.73770,0.0014058
1738.77332,0.0014425
1737.80894,0.0014627
1736.84456,0.0014653
1735.88018,0.0014628
1734.91581,0.0014554
1733.95143,0.0014396
1732.98705,0.0014158
1732.02267,0.0014059
1731.05829,0.0014088
1730.09392,0.0014000
1729.12954,0.0013860
1728.16516,0.0013816
1727.20078,0.0013965
1726.23641,0.0014200
1725.27203,0.0014355
1724.30765,0.0014397
1723.34327,0.0014294
1722.37889,0.0014100
1721.41452,0.0013827
1720.45014,0.0013557
1719.48576,0.0013371
1718.52138,0.0013247
1717.55700,0.0013232
1716.59263,0.0013337
1715.62825,0.0013577
1714.66387,0.0013824
1713.69949,0.0014036
1712.73512,0.0014334
1711.77074,0.0014446
1710.80636,0.0014259
1709.84198,0.0014041
1708.87760,0.0013867
1707.91323,0.0013762
1706.94885,0.0013870
1705.98447,0.0014169
1705.02009,0.0014431
1704.05571,0.0014620
1703.09134,0.0014816
1702.12696,0.0015103
1701.16258,0.0015595
1700.19820,0.0016136
1699.23382,0.0016629
1698.26945,0.0017231
1697.30507,0.0017894
1696.34069,0.0018491
1695.37631,0.0019026
1694.41194,0.0019640
1693.44756,0.0020352
1692.48318,0.0020914
1691.51880,0.0021272
1690.55442,0.0021665
1689.59005,0.0022276
1688.62567,0.0023084
1687.66129,0.0023932
1686.69691,0.0024721
1685.73253,0.0025498
1684.76816,0.0026233
1683.80378,0.0026890
1682.83940,0.0027620
1681.87502,0.0028411
1680.91065,0.0029083
1679.94627,0.0029590
1678.98189,0.0030121
1678.01751,0.0030765
1677.05313,0.0031374
1676.08876,0.0031930
1675.12438,0.0032545
1674.16000,0.0033280
1673.19562,0.0034053
1672.23124,0.0034776
1671.26687,0.0035423
1670.30249,0.0036097
1669.33811,0.0036854
1668.37373,0.0037416
1667.40935,0.0037894
1666.44498,0.0038404
1665.48060,0.0038772
1664.51622,0.0039169
1663.55184,0.0039573
1662.58747,0.0039890
1661.62309,0.0040234
1660.65871,0.0040569
1659.69433,0.0040743
1658.72995,0.0040823
1657.76558,0.0040964
1656.80120,0.0041053
1655.83682,0.0041166
1654.87244,0.0041250
1653.90806,0.0041244
1652.94369,0.0041315
1651.97931,0.0041261
1651.01493,0.0041052
1650.05055,0.0040852
1649.08618,0.0040599
1648.12180,0.0040227
1647.15742,0.0039848
1646.19304,0.0039567
1645.22866,0.0039277
1644.26429,0.0039004
1643.29991,0.0038691
1642.33553,0.0038341
1641.37115,0.0038080
1640.40677,0.0037827
1639.44240,0.0037514
1638.47802,0.0037205
1637.51364,0.0037001
1636.54926,0.0036809
1635.58488,0.0036582
1634.62051,0.0036363
1633.65613,0.0036055
1632.69175,0.0035676
1631.72737,0.0035250
1630.76300,0.0034780
1629.79862,0.0034324
1628.83424,0.0033979
1627.86986,0.0033724
1626.90548,0.0033488
1625.94111,0.0033324
1624.97673,0.0033179
1624.01235,0.0033004
1623.04797,0.0032798
1622.08359,0.0032571
1621.11922,0.0032287
1620.15484,0.0031939
1619.19046,0.0031592
1618.22608,0.0031139
1617.26171,0.0030630
1616.29733,0.0030159
1615.33295,0.0029710
1614.36857,0.0029390
1613.40419,0.0029171
1612.43982,0.0029028
1611.47544,0.0028998
1610.51106,0.0029037
1609.54668,0.0028960
1608.58230,0.0028850
1607.61793,0.0028798
1606.65355,0.0028512
1605.68917,0.0028178
1604.72479,0.0028031
1603.76041,0.0027944
1602.79604,0.0027901
1601.83166,0.0027848
1600.86728,0.0027830
1599.90290,0.0027814
1598.93853,0.0027690
1597.97415,0.0027427
1597.00977,0.0027116
1596.04539,0.0026872
1595.08101,0.0026585
1594.11664,0.0026360
1593.15226,0.0026245
1592.18788,0.0026136
1591.22350,0.0026045
1590.25912,0.0025919
1589.29475,0.0025812
1588.33037,0.0025714
1587.36599,0.0025582
1586.40161,0.0025395
1585.43724,0.0025185
1584.47286,0.0025052
1583.50848,0.0024892
1582.54410,0.0024733
1581.57972,0.0024694
1580.61535,0.0024701
1579.65097,0.0024630
1578.68659,0.0024415
1577.72221,0.0024170
1576.75783,0.0023962
1575.79346,0.0023776
1574.82908,0.0023623
1573.86470,0.0023501
1572.90032,0.0023431
1571.93594,0.0023423
1570.97157,0.0023573
1570.00719,0.0023887
1569.04281,0.0024159
1568.07843,0.0024297
1567.11406,0.0024230
1566.14968,0.0023967
1565.18530,0.0023800
1564.22092,0.0023863
1563.25654,0.0024053
1562.29217,0.0024253
1561.32779,0.0024401
1560.36341,0.0024565
1559.39903,0.0024867
1558.43465,0.0025332
1557.47028,0.0025816
1556.50590,0.0026200
1555.54152,0.0026440
1554.57714,0.0026641
1553.61276,0.0027090
1552.64839,0.0027707
1551.68401,0.0028227
1550.71963,0.0028612
1549.75525,0.0028876
1548.79088,0.0029034
1547.82650,0.0029097
1546.86212,0.0029134
1545.89774,0.0029120
1544.93336,0.0028990
1543.96899,0.0028836
1543.00461,0.0028758
1542.04023,0.0028751
1541.07585,0.0028719
1540.11147,0.0028659
1539.14710,0.0028663
1538.18272,0.0028666
1537.21834,0.0028549
1536.25396,0.0028408
1535.28959,0.0028342
1534.32521,0.0028256
1533.36083,0.0028136
1532.39645,0.0027999
1531.43207,0.0027811
1530.46770,0.0027635
1529.50332,0.0027438
1528.53894,0.0027147
1527.57456,0.0026867
1526.61018,0.0026680
1525.64581,0.0026520
1524.68143,0.0026397
1523.71705,0.0026340
1522.75267,0.0026324
1521.78829,0.0026321
1520.82392,0.0026246
1519.85954,0.0026062
1518.89516,0.0025869
1517.93078,0.0025570
1516.96641,0.0025055
1516.00203,0.0024577
1515.03765,0.0024295
1514.07327,0.0024064
1513.10889,0.0023812
1512.14452,0.0023569
1511.18014,0.0023304
1510.21576,0.0022982
1509.25138,0.0022645
1508.28700,0.0022233
1507.32263,0.0021706
1506.35825,0.0021095
1505.39387,0.0020489
1504.42949,0.0020101
1503.46512,0.0019945
1502.50074,0.0019882
1501.53636,0.0019784
1500.57198,0.0019682
1499.60760,0.0019663
1498.64323,0.0019649
1497.67885,0.0019586
1496.71447,0.0019374
1495.75009,0.0019017
1494.78571,0.0018650
1493.82134,0.0018334
1492.85696,0.0018106
1491.89258,0.0017877
1490.92820,0.0017589
1489.96382,0.0017328
1488.99945,0.0017228
1488.03507,0.0017204
1487.07069,0.0017079
1486.10631,0.0016914
1485.14194,0.0016742
1484.17756,0.0016565
1483.21318,0.0016400
1482.24880,0.0016248
1481.28442,0.0016169
1480.32005,0.0016149
1479.35567,0.0016199
1478.39129,0.0016471
1477.42691,0.0016903
1476.46253,0.0017288
1475.49816,0.0017752
1474.53378,0.0018299
1473.56940,0.0018725
1472.60502,0.0019078
1471.64065,0.0019436
1470.67627,0.0019857
1469.71189,0.0020315
1468.74751,0.0020665
1467.78313,0.0020918
1466.81876,0.0021220
1465.85438,0.0021492
1464.89000,0.0021643
1463.92562,0.0021856
1462.96124,0.0021959
1461.99687,0.0021927
1461.03249,0.0022111
1460.06811,0.0022384
1459.10373,0.0022553
1458.13935,0.0022571
1457.17498,0.0022470
1456.21060,0.0022371
1455.24622,0.0022238
1454.28184,0.0022051
1453.31747,0.0021896
1452.35309,0.0021809
1451.38871,0.0021746
1450.42433,0.0021834
1449.45995,0.0022137
1448.49558,0.0022365
1447.53120,0.0022447
1446.56682,0.0022515
1445.60244,0.0022570
1444.63806,0.0022556
1443.67369,0.0022410
1442.70931,0.0022211
1441.74493,0.0022068
1440.78055,0.0021895
1439.81618,0.0021756
1438.85180,0.0021774
1437.88742,0.0021845
1436.92304,0.0021884
1435.95866,0.0021915
1434.99429,0.0021995
1434.02991,0.0022043
1433.06553,0.0022014
1432.10115,0.0022011
1431.13677,0.0022023
1430.17240,0.0022029
1429.20802,0.0022044
1428.24364,0.0022147
1427.27926,0.0022281
1426.31488,0.0022328
1425.35051,0.0022402
1424.38613,0.0022471
1423.42175,0.0022576
1422.45737,0.0022800
1421.49300,0.0023017
1420.52862,0.0023268
1419.56424,0.0023519
1418.59986,0.0023794
1417.63548,0.0024208
1416.67111,0.0024608
1415.70673,0.0024907
1414.74235,0.0025156
1413.77797,0.0025363
1412.81359,0.0025517
1411.84922,0.0025728
1410.88484,0.0026001
1409.92046,0.0026150
1408.95608,0.0026252
1407.99171,0.0026304
1407.02733,0.0026324
1406.06295,0.0026506
1405.09857,0.0026666
1404.13419,0.0026722
1403.16982,0.0026773
1402.20544,0.0026835
1401.24106,0.0026958
1400.27668,0.0027041
1399.31230,0.0027066
1398.34793,0.0027067
1397.38355,0.0027054
1396.41917,0.0026983
1395.45479,0.0026883
1394.49041,0.0026900
1393.52604,0.0026893
1392.56166,0.0026882
1391.59728,0.0026982
1390.63290,0.0027121
1389.66853,0.0027251
1388.70415,0.0027290
1387.73977,0.0027358
1386.77539,0.0027395
1385.81101,0.0027312
1384.84664,0.0027267
1383.88226,0.0027242
1382.91788,0.0027225
1381.95350,0.0027214
1380.98912,0.0027240
1380.02475,0.0027218
1379.06037,0.0027033
1378.09599,0.0026828
1377.13161,0.0026592
1376.16724,0.0026363
1375.20286,0.0026198
1374.23848,0.0026074
1373.27410,0.0026095
1372.30972,0.0026198
1371.34535,0.0026202
1370.38097,0.0026074
1369.41659,0.0025925
1368.45221,0.0025703
1367.48783,0.0025368
1366.52346,0.0025079
1365.55908,0.0024835
1364.59470,0.0024629
1363.63032,0.0024518
1362.66594,0.0024487
1361.70157,0.0024501
1360.73719,0.0024483
1359.77281,0.0024360
1358.80843,0.0024165
1357.84406,0.0024001
1356.87968,0.0023794
1355.91530,0.0023487
1354.95092,0.0023279
1353.98654,0.0023231
1353.02217,0.0023190
1352.05779,0.0023168
1351.09341,0.0023218
1350.12903,0.0023176
1349.16465,0.0023036
1348.20028,0.0022920
1347.23590,0.0022758
1346.27152,0.0022555
1345.30714,0.0022325
1344.34276,0.0022068
1343.37839,0.0021921
1342.41401,0.0021861
1341.44963,0.0021797
1340.48525,0.0021746
1339.52088,0.0021695
1338.55650,0.0021608
1337.59212,0.0021547
1336.62774,0.0021571
1335.66336,0.0021624
1334.69899,0.0021724
1333.73461,0.0021789
1332.77023,0.0021683
1331.80585,0.0021490
1330.84147,0.0021297
1329.87710,0.0021148
1328.91272,0.0021027
1327.94834,0.0020918
1326.98396,0.0020782
1326.01959,0.0020581
1325.05521,0.0020479
1324.09083,0.0020488
1323.12645,0.0020550
1322.16207,0.0020566
1321.19770,0.0020427
1320.23332,0.0020370
1319.26894,0.0020451
1318.30456,0.0020594
1317.34018,0.0020714
1316.37581,0.0020648
1315.41143,0.0020489
1314.44705,0.0020334
1313.48267,0.0020257
1312.51829,0.0020220
1311.55392,0.0020159
1310.58954,0.0020126
1309.62516,0.0020075
1308.66078,0.0020060
1307.69641,0.0020039
1306.73203,0.0019988
1305.76765,0.0019963
1304.80327,0.0019906
1303.83889,0.0019976
1302.87452,0.0020130
1301.91014,0.0020176
1300.94576,0.0020195
1299.98138,0.0020249
1299.01700,0.0020311
1298.05263,0.0020263
1297.08825,0.0020094
1296.12387,0.0019983
1295.15949,0.0019916
1294.19512,0.0019805
1293.23074,0.0019783
1292.26636,0.0019976
1291.30198,0.0020264
1290.33760,0.0020379
1289.37323,0.0020397
1288.40885,0.0020520
1287.44447,0.0020552
1286.48009,0.0020442
1285.51571,0.0020380
1284.55134,0.0020408
1283.58696,0.0020397
1282.62258,0.0020300
1281.65820,0.0020313
1280.69382,0.0020452
1279.72945,0.0020556
1278.76507,0.0020471
1277.80069,0.0020307
1276.83631,0.0020207
1275.87194,0.0019927
1274.90756,0.0019627
1273.94318,0.0019612
1272.97880,0.0019779
1272.01442,0.0019975
1271.05005,0.0020217
1270.08567,0.0020688
1269.12129,0.0021306
1268.15691,0.0021857
1267.19253,0.0022283
1266.22816,0.0022632
1265.26378,0.0022829
1264.29940,0.0022763
1263.33502,0.0022654
1262.37065,0.0022530
1261.40627,0.0022267
1260.44189,0.0021999
1259.47751,0.0021915
1258.51313,0.0021991
1257.54876,0.0021978
1256.58438,0.0021875
1255.62000,0.0021772
1254.65562,0.0021708
1253.69124,0.0021688
1252.72687,0.0021661
1251.76249,0.0021676
1250.79811,0.0021626
1249.83373,0.0021543
1248.86935,0.0021570
1247.90498,0.0021684
1246.94060,0.0021791
1245.97622,0.0021784
1245.01184,0.0021719
1244.04747,0.0021614
1243.08309,0.0021517
1242.11871,0.0021532
1241.15433,0.0021634
1240.18995,0.0021776
1239.22558,0.0021792
1238.26120,0.0021670
1237.29682,0.0021617
1236.33244,0.0021667
1235.36806,0.0021726
1234.40369,0.0021745
1233.43931,0.0021670
1232.47493,0.0021489
1231.51055,0.0021308
1230.54618,0.0021216
1229.58180,0.0021225
1228.61742,0.0021216
1227.65304,0.0021124
1226.68866,0.0020995
1225.72429,0.0020821
1224.75991,0.0020637
1223.79553,0.0020509
1222.83115,0.0020425
1221.86677,0.0020243
1220.90240,0.0019980
1219.93802,0.0019788
1218.97364,0.0019671
1218.00926,0.0019665
1217.04488,0.0019690
1216.08051,0.0019682
1215.11613,0.0019650
1214.15175,0.0019564
1213.18737,0.0019570
1212.22300,0.0019645
1211.25862,0.0019716
1210.29424,0.0019711
1209.32986,0.0019512
1208.36548,0.0019294
1207.40111,0.0019129
1206.43673,0.0018949
1205.47235,0.0018769
1204.50797,0.0018641
1203.54359,0.0018573
1202.57922,0.0018515
1201.61484,0.0018564
1200.65046,0.0018707
1199.68608,0.0018869
1198.72171,0.0018917
1197.75733,0.0018731
1196.79295,0.0018607
1195.82857,0.0018570
1194.86419,0.0018389
1193.89982,0.0018235
1192.93544,0.0018268
1191.97106,0.0018383
1191.00668,0.0018517
1190.04230,0.0018762
1189.07793,0.0019090
1188.11355,0.0019336
1187.14917,0.0019419
1186.18479,0.0019453
1185.22041,0.0019562
1184.25604,0.0019630
1183.29166,0.0019716
1182.32728,0.0019950
1181.36290,0.0020258
1180.39853,0.0020552
1179.43415,0.0020720
1178.46977,0.0020767
1177.50539,0.0020655
1176.54101,0.0020341
1175.57664,0.0020010
1174.61226,0.0019783
1173.64788,0.0019595
1172.68350,0.0019492
1171.71912,0.0019683
1170.75475,0.0020077
1169.79037,0.0020490
1168.82599,0.0020927
1167.86161,0.0021212
1166.89724,0.0021329
1165.93286,0.0021455
1164.96848,0.0021487
1164.00410,0.0021409
1163.03972,0.0021441
1162.07535,0.0021546
1161.11097,0.0021608
1160.14659,0.0021686
1159.18221,0.0021777
1158.21783,0.0021893
1157.25346,0.0022059
1156.28908,0.0022173
1155.32470,0.0022328
1154.36032,0.0022661
1153.39594,0.0022921
1152.43157,0.0023122
1151.46719,0.0023493
1150.50281,0.0023752
1149.53843,0.0023807
1148.57406,0.0023755
1147.60968,0.0023563
1146.64530,0.0023381
1145.68092,0.0023241
1144.71654,0.0023168
1143.75217,0.0023254
1142.78779,0.0023472
1141.82341,0.0023695
1140.85903,0.0023854
1139.89465,0.0024010
1138.93028,0.0024116
1137.96590,0.0024185
1137.00152,0.0024291
1136.03714,0.0024349
1135.07276,0.0024293
1134.10839,0.0024234
1133.14401,0.0024312
1132.17963,0.0024499
1131.21525,0.0024612
1130.25088,0.0024501
1129.28650,0.0024361
1128.32212,0.0024341
1127.35774,0.0024358
1126.39336,0.0024477
1125.42899,0.0024678
1124.46461,0.0024797
1123.50023,0.0024829
1122.53585,0.0024948
1121.57147,0.0025151
1120.60710,0.0025326
1119.64272,0.0025474
1118.67834,0.0025550
1117.71396,0.0025662
1116.74959,0.0025880
1115.78521,0.0026084
1114.82083,0.0026282
1113.85645,0.0026484
1112.89207,0.0026628
1111.92770,0.0026729
1110.96332,0.0026848
1109.99894,0.0027000
1109.03456,0.0027223
1108.07018,0.0027435
1107.10581,0.0027475
1106.14143,0.0027449
1105.17705,0.0027512
1104.21267,0.0027492
1103.24829,0.0027320
1102.28392,0.0027239
1101.31954,0.0027146
1100.35516,0.0026971
1099.39078,0.0026982
1098.42641,0.0027268
1097.46203,0.0027674
1096.49765,0.0027958
1095.53327,0.0028181
1094.56889,0.0028515
1093.60452,0.0028849
1092.64014,0.0028953
1091.67576,0.0028801
1090.71138,0.0028571
1089.74700,0.0028229
1088.78263,0.0027958
1087.81825,0.0027895
1086.85387,0.0027645
1085.88949,0.0027189
1084.92512,0.0026860
1083.96074,0.0026721
1082.99636,0.0026649
1082.03198,0.0026572
1081.06760,0.0026552
1080.10323,0.0026713
1079.13885,0.0027089
1078.17447,0.0027643
1077.21009,0.0028289
1076.24571,0.0028718
1075.28134,0.0028795
1074.31696,0.0028794
1073.35258,0.0028838
1072.38820,0.0028794
1071.42382,0.0028635
1070.45945,0.0028402
1069.49507,0.0028241
1068.53069,0.0028295
1067.56631,0.0028348
1066.60194,0.0028281
1065.63756,0.0028263
1064.67318,0.0028390
1063.70880,0.0028480
1062.74442,0.0028423
1061.78005,0.0028427
1060.81567,0.0028482
1059.85129,0.0028565
1058.88691,0.0028586
1057.92253,0.0028508
1056.95816,0.0028506
1055.99378,0.0028436
1055.02940,0.0028351
1054.06502,0.0028324
1053.10065,0.0028124
1052.13627,0.0027712
1051.17189,0.0027288
1050.20751,0.0026968
1049.24313,0.0026659
1048.27876,0.0026463
1047.31438,0.0026366
1046.35000,0.0026495
1045.38562,0.0026957
1044.42124,0.0027228
1043.45687,0.0027297
1042.49249,0.0027435
1041.52811,0.0027547
1040.56373,0.0027565
1039.59935,0.0027490
1038.63498,0.0027372
1037.67060,0.0027261
1036.70622,0.0027157
1035.74184,0.0026974
1034.77747,0.0026830
1033.81309,0.0026610
1032.84871,0.0026046
1031.88433,0.0025537
1030.91995,0.0025421
1029.95558,0.0025488
1028.99120,0.0025594
1028.02682,0.0025798
1027.06244,0.0025978
1026.09806,0.0026103
1025.13369,0.0026231
1024.16931,0.0026189
1023.20493,0.0026038
1022.24055,0.0025843
1021.27618,0.0025533
1020.31180,0.0025185
1019.34742,0.0024907
1018.38304,0.0024684
1017.41866,0.0024489
1016.45429,0.0024304
1015.48991,0.0024005
1014.52553,0.0023739
1013.56115,0.0023573
1012.59677,0.0023464
1011.63240,0.0023470
1010.66802,0.0023386
1009.70364,0.0023209
1008.73926,0.0023059
1007.77488,0.0022909
1006.81051,0.0022769
1005.84613,0.0022785
1004.88175,0.0022886
1003.91737,0.0022794
1002.95300,0.0022703
1001.98862,0.0022696
1001.02424,0.0022646
1000.05986,0.0022454
999.09548,0.0022061
998.13111,0.0021709
997.16673,0.0021451
996.20235,0.0021241
995.23797,0.0021076
994.27359,0.0020938
993.30922,0.0020676
992.34484,0.0020254
991.38046,0.0019954
990.41608,0.0019672
989.45171,0.0019282
988.48733,0.0018998
987.52295,0.0019017
986.55857,0.0019208
985.59419,0.0019435
984.62982,0.0019805
983.66544,0.0020071
982.70106,0.0020119
981.73668,0.0020051
980.77230,0.0019860
979.80793,0.0019595
978.84355,0.0019256
977.87917,0.0018860
976.91479,0.0018509
975.95041,0.0018356
974.98604,0.0018227
974.02166,0.0018064
973.05728,0.0017888
972.09290,0.0017632
971.12853,0.0017588
970.16415,0.0017686
969.19977,0.0017717
968.23539,0.0017716
967.27101,0.0017814
966.30664,0.0017996
965.34226,0.0017988
964.37788,0.0017842
963.41350,0.0017474
962.44912,0.0016824
961.48475,0.0016209
960.52037,0.0015929
959.55599,0.0015961
958.59161,0.0016010
957.62724,0.0016095
956.66286,0.0016182
955.69848,0.0016306
954.73410,0.0016422
953.76972,0.0016285
952.80535,0.0016252
951.84097,0.0016405
950.87659,0.0016506
949.91221,0.0016658
948.94783,0.0016821
947.98346,0.0016821
947.01908,0.0016672
946.05470,0.0016423
945.09032,0.0015974
944.12594,0.0015354
943.16157,0.0014769
942.19719,0.0014465
941.23281,0.0014539
940.26843,0.0014772
939.30406,0.0014970
938.33968,0.0015175
937.37530,0.0015430
936.41092,0.0015708
935.44654,0.0015902
934.48217,0.0015786
933.51779,0.0015467
932.55341,0.0015279
931.58903,0.0015305
930.62465,0.0015349
929.66028,0.0015219
928.69590,0.0015077
927.73152,0.0015034
926.76714,0.0015163
925.80276,0.0015413
924.83839,0.0015531
923.87401,0.0015415
922.90963,0.0014969
921.94525,0.0014804
920.98088,0.0015238
920.01650,0.0015465
919.05212,0.0015299
918.08774,0.0015097
917.12336,0.0014916
916.15899,0.0014608
915.19461,0.0014219
914.23023,0.0013987
913.26585,0.0013885
912.30147,0.0013816
911.33710,0.0013866
910.37272,0.0014174
909.40834,0.0014524
908.44396,0.0014625
907.47959,0.0014526
906.51521,0.0014382
905.55083,0.0014404
904.58645,0.0014520
903.62207,0.0014601
902.65770,0.0014829
901.69332,0.0015037
900.72894,0.0015067
899.76456,0.0015134
898.80018,0.0015030
897.83581,0.0014801
896.87143,0.0014682
895.90705,0.0014342
894.94267,0.0014014
893.97829,0.0013932
893.01392,0.0013799
892.04954,0.0013548
891.08516,0.0013090
890.12078,0.0012522
889.15641,0.0012175
888.19203,0.0012232
887.22765,0.0012588
886.26327,0.0013235
885.29889,0.0014106
884.33452,0.0014756
883.37014,0.0014940
882.40576,0.0014806
881.44138,0.0014719
880.47700,0.0014577
879.51263,0.0014217
878.54825,0.0013821
877.58387,0.0013462
876.61949,0.0013321
875.65512,0.0013330
874.69074,0.0013516
873.72636,0.0013896
872.76198,0.0014140
871.79760,0.0014169
870.83323,0.0014112
869.86885,0.0013998
868.90447,0.0013701
867.94009,0.0013419
866.97571,0.0013031
866.01134,0.0012433
865.04696,0.0012061
864.08258,0.0011916
863.11820,0.0012156
862.15382,0.0012675
861.18945,0.0013007
860.22507,0.0013010
859.26069,0.0012666
858.29631,0.0012283
857.33194,0.0011920
856.36756,0.0011650
855.40318,0.0011538
854.43880,0.0011469
853.47442,0.0011566
852.51005,0.0011875
851.54567,0.0012319
850.58129,0.0012666
849.61691,0.0012831
848.65253,0.0012771
847.68816,0.0012655
846.72378,0.0012756
845.75940,0.0012810
844.79502,0.0012927
843.83065,0.0013262
842.86627,0.0013521
841.90189,0.0013629
840.93751,0.0013720
839.97313,0.0013838
839.00876,0.0013955
838.04438,0.0014117
837.08000,0.0014113
836.11562,0.0014059
835.15124,0.0014289
834.18687,0.0014619
833.22249,0.0014999
832.25811,0.0015276
831.29373,0.0015267
830.32935,0.0015144
829.36498,0.0014968
828.40060,0.0014774
827.43622,0.0014654
826.47184,0.0014468
825.50747,0.0014188
824.54309,0.0014172
823.57871,0.0014338
822.61433,0.0014367
821.64995,0.0014213
820.68558,0.0013875
819.72120,0.0013744
818.75682,0.0013970
817.79244,0.0013875
816.82806,0.0013387
815.86369,0.0013285
814.89931,0.0013390
813.93493,0.0013389
812.97055,0.0013624
812.00618,0.0013784
811.04180,0.0013677
810.07742,0.0013513
809.11304,0.0013658
808.14866,0.0014233
807.18429,0.0014640
806.21991,0.0014576
805.25553,0.0014187
804.29115,0.0013992
803.32677,0.0013954
802.36240,0.0013593
801.39802,0.0013250
800.43364,0.0013087
799.46926,0.0013210
798.50488,0.0013819
797.54051,0.0014672
796.57613,0.0015371
795.61175,0.0015773
794.64737,0.0016160
793.68300,0.0016269
792.71862,0.0016139
791.75424,0.0016156
790.78986,0.0015823
789.82548,0.0015219
788.86111,0.0014893
787.89673,0.0014876
786.93235,0.0015055
785.96797,0.0015089
785.00359,0.0014727
784.03922,0.0014371
783.07484,0.0014399
782.11046,0.0014538
781.14608,0.0014854
780.18171,0.0015524
779.21733,0.0016064
778.25295,0.0016503
777.28857,0.0017110
776.32419,0.0017519
775.35982,0.0017401
774.39544,0.0016551
773.43106,0.0015179
772.46668,0.0013788
771.50230,0.0012424
770.53793,0.0011390
769.57355,0.0011100
768.60917,0.0011506
767.64479,0.0012363
766.68041,0.0013456
765.71604,0.0014709
764.75166,0.0015635
763.78728,0.0015878
762.82290,0.0015764
761.85853,0.0015702
760.89415,0.0015460
759.92977,0.0014669
758.96539,0.0013912
758.00101,0.0013468
757.03664,0.0013579
756.07226,0.0014228
755.10788,0.0014389
754.14350,0.0014289
753.17912,0.0014476
752.21475,0.0014981
751.25037,0.0015663
750.28599,0.0015833
749.32161,0.0015378
748.35724,0.0014526
747.39286,0.0013683
746.42848,0.0013166
745.46410,0.0013338
744.49972,0.0014105
743.53535,0.0014349
742.57097,0.0014275
741.60659,0.0014746
740.64221,0.0015879
739.67783,0.0017177
738.71346,0.0018052
737.74908,0.0018391
736.78470,0.0017988
735.82032,0.0017377
734.85594,0.0017034
733.89157,0.0016807
732.92719,0.0016695
731.96281,0.0016231
730.99843,0.0015451
730.03406,0.0014903
729.06968,0.0014732
728.10530,0.0014944
727.14092,0.0015434
726.17654,0.0015557
725.21217,0.0015230
724.24779,0.0015478
723.28341,0.0016247
722.31903,0.0016823
721.35465,0.0017227
720.39028,0.0017626
719.42590,0.0017862
718.46152,0.0017530
717.49714,0.0016915
716.53276,0.0016637
715.56839,0.0016671
714.60401,0.0016498
713.63963,0.0015994
712.67525,0.0015725
711.71088,0.0015731
710.74650,0.0015524
709.78212,0.0015177
708.81774,0.0015072
707.85336,0.0014899
706.88899,0.0014482
705.92461,0.0014464
704.96023,0.0014907
703.99585,0.0015376
703.03147,0.0015788
702.06710,0.0016394
701.10272,0.0017300
700.13834,0.0018102
699.17396,0.0018530
698.20959,0.0018662
697.24521,0.0018560
696.28083,0.0018046
695.31645,0.0017236
694.35207,0.0016654
693.38770,0.0016233
692.42332,0.0015661
691.45894,0.0015314
690.49456,0.0015765
689.53018,0.0016527
688.56581,0.0016950
687.60143,0.0017227
686.63705,0.0017388
685.67267,0.0017473
684.70829,0.0017485
683.74392,0.0017406
682.77954,0.0017519
681.81516,0.0017615
680.85078,0.0017360
679.88641,0.0017120
678.92203,0.0017408
677.95765,0.0017679
676.99327,0.0017559
676.02889,0.0017529
675.06452,0.0017524
674.10014,0.0017416
673.13576,0.0017344
672.17138,0.0017455
671.20700,0.0017624
670.24263,0.0017504
669.27825,0.0017108
668.31387,0.0016836
667.34949,0.0016913
666.38512,0.0017001
665.42074,0.0017136
664.45636,0.0017402
663.49198,0.0017504
662.52760,0.0017465
661.56323,0.0017560
660.59885,0.0017969
659.63447,0.0018221
658.67009,0.0018225
657.70571,0.0018152
656.74134,0.0018005
655.77696,0.0018034
654.81258,0.0017969
653.84820,0.0017639
652.88382,0.0017125
651.91945,0.0016698
650.95507,0.0016476
649.99069,0.0016355
649.02631,0.0016469
648.06194,0.0016435
647.09756,0.0016365
646.13318,0.0016251
645.16880,0.0016102
644.20442,0.0016411
643.24005,0.0016569
642.27567,0.0016574
641.31129,0.0016940
640.34691,0.0017563
639.38253,0.0018207
638.41816,0.0018684
637.45378,0.0018833
636.48940,0.0018436
635.52502,0.0017826
634.56065,0.0017028
633.59627,0.0016215
632.63189,0.0015785
631.66751,0.0016359
630.70313,0.0019067
629.73876,0.0020141
628.77438,0.0016814
627.81000,0.0015672
626.84562,0.0017540
625.88124,0.0017468
624.91687,0.0019404
623.95249,0.0022712
622.98811,0.0023376
622.02373,0.0027368
621.05935,0.0033026
620.09498,0.0034618
619.13060,0.0033148
618.16622,0.0028893
617.20184,0.0021107
616.23747,0.0010500
615.27309,0.0000154
614.30871,-0.0008435
613.34433,-0.0011000
612.37995,-0.0012926
611.41558,-0.0012680
610.45120,-0.0003225
609.48682,0.0005297
608.52244,0.0011533
607.55806,0.0017826
606.59369,0.0023708
605.62931,0.0026703
604.66493,0.0023630
603.70055,0.0022476
602.73618,0.0022915
601.77180,0.0021641
600.80742,0.0019113
599.84304,0.0019481
598.87866,0.0022205
597.91429,0.0023769
596.94991,0.0026693
595.98553,0.0027367
595.02115,0.0026652
594.05677,0.0026600
593.09240,0.0025407
592.12802,0.0024524
591.16364,0.0022568
590.19926,0.0019694
589.23488,0.0018055
588.27051,0.0018011
587.30613,0.0018987
586.34175,0.0020120
585.37737,0.0021386
584.41300,0.0021976
583.44862,0.0021800
582.48424,0.0021256
581.51986,0.0021015
580.55548,0.0021438
579.59111,0.0021227
578.62673,0.0020780
577.66235,0.0020628
576.69797,0.0020430
575.73359,0.0019871
574.76922,0.0019040
573.80484,0.0018872
572.84046,0.0018638
571.87608,0.0018498
570.91171,0.0019472
569.94733,0.0020900
568.98295,0.0022193
568.01857,0.0022480
567.05419,0.0021752
566.08982,0.0021100
565.12544,0.0020529
564.16106,0.0020077
563.19668,0.0020633
562.23230,0.0021686
561.26793,0.0021935
560.30355,0.0022214
559.33917,0.0023244
558.37479,0.0024073
557.41041,0.0024056
556.44604,0.0023082
555.48166,0.0022162
554.51728,0.0021963
553.55290,0.0021239
552.58853,0.0020528
551.62415,0.0021344
550.65977,0.0022111
549.69539,0.0021428
548.73101,0.0020128
547.76664,0.0019227
546.80226,0.0019038
545.83788,0.0018885
544.87350,0.0018815
543.90912,0.0019284
542.94475,0.0019661
541.98037,0.0019912
541.01599,0.0020645
540.05161,0.0021569
539.08724,0.0021743
538.12286,0.0020859
537.15848,0.0019663
536.19410,0.0018960
535.22972,0.0018624
534.26535,0.0018085
533.30097,0.0017399
532.33659,0.0016812
531.37221,0.0016701
530.40783,0.0017160
529.44346,0.0017449
528.47908,0.0018039
527.51470,0.0019717
526.55032,0.0021645
525.58594,0.0022862
524.62157,0.0023109
523.65719,0.0022983
522.69281,0.0022731
521.72843,0.0021846
520.76406,0.0020726
519.79968,0.0019981
518.83530,0.0019710
517.87092,0.0020155
516.90654,0.0021520
515.94217,0.0023066
514.97779,0.0023886
514.01341,0.0023993
513.04903,0.0023419
512.08465,0.0022497
511.12028,0.0021353
510.15590,0.0019533
509.19152,0.0017546
508.22714,0.0016164
507.26276,0.0015922
506.29839,0.0016515
505.33401,0.0016475
504.36963,0.0015595
503.40525,0.0015001
502.44088,0.0015099
501.47650,0.0015416
500.51212,0.0015929
499.54774,0.0016914
498.58336,0.0017538
497.61899,0.0016978
496.65461,0.0016019
495.69023,0.0015945
494.72585,0.0016682
493.76147,0.0017521
492.79710,0.0018429
491.83272,0.0019057
490.86834,0.0019055
489.90396,0.0018731
488.93959,0.0018346
487.97521,0.0018171
487.01083,0.0017536
486.04645,0.0015550
485.08207,0.0013439
484.11770,0.0012698
483.15332,0.0013460
482.18894,0.0015141
481.22456,0.0016299
480.26018,0.0016824
479.29581,0.0017645
478.33143,0.0017941
477.36705,0.0017785
476.40267,0.0018116
475.43829,0.0018259
474.47392,0.0018024
473.50954,0.0018141
472.54516,0.0019250
471.58078,0.0020661
470.61641,0.0020741
469.65203,0.0020067
468.68765,0.0020142
467.72327,0.0020417
466.75889,0.0019818
465.79452,0.0019278
464.83014,0.0019423
463.86576,0.0019453
462.90138,0.0020165
461.93700,0.0021408
460.97263,0.0021797
460.00825,0.0021655
459.04387,0.0021055
458.07949,0.0020255
457.11512,0.0019587
456.15074,0.0018863
455.18636,0.0018674
454.22198,0.0018981
453.25760,0.0019292
452.29323,0.0019391
451.32885,0.0019414
450.36447,0.0019080
449.40009,0.0017984
448.43571,0.0017555
447.47134,0.0017809
446.50696,0.0017678
445.54258,0.0017635
444.57820,0.0017437
443.61382,0.0017200
442.64945,0.0017262
441.68507,0.0017227
440.72069,0.0016980
439.75631,0.0016343
438.79194,0.0015512
437.82756,0.0014486
436.86318,0.0013634
435.89880,0.0013682
434.93442,0.0014203
433.97005,0.0014651
433.00567,0.0014917
432.04129,0.0015639
431.07691,0.0017051
430.11253,0.0018405
429.14816,0.0019360
428.18378,0.0019577
427.21940,0.0019158
426.25502,0.0018540
425.29065,0.0017834
424.32627,0.0017300
423.36189,0.0017083
422.39751,0.0016831
421.43313,0.0016222
420.46876,0.0015914
419.50438,0.0016215
418.54000,0.0016536
417.57562,0.0016746
416.61124,0.0016626
415.64687,0.0016083
414.68249,0.0015449
413.71811,0.0014838
412.75373,0.0014388
411.78935,0.0014475
410.82498,0.0014951
409.86060,0.0015413
408.89622,0.0015934
407.93184,0.0016006
406.96747,0.0015781
406.00309,0.0015958
405.03871,0.0015608
404.07433,0.0015608
403.10995,0.0015608
402.14558,0.0015608
401.18120,0.0015608
400.21682,0.0015608
399.25244,0.0015608
