3998.31069,0.0006934
3997.34631,0.0006934
3996.38194,0.0006934
3995.41756,0.0006934
3994.45318,0.0006934
3993.48880,0.0006934
3992.52442,0.0006934
3991.56005,0.0007587
3990.59567,0.0007859
3989.63129,0.0007775
3988.66691,0.0006839
3987.70253,0.0005466
3986.73816,0.0004227
3985.77378,0.0003197
3984.80940,0.0002191
3983.84502,0.0001769
3982.88065,0.0001942
3981.91627,0.0002065
3980.95189,0.0001890
3979.98751,0.0001501
3979.02313,0.0001470
3978.05876,0.0001227
3977.09438,0.0000778
3976.13000,0.0001240
3975.16562,0.0002020
3974.20124,0.0002500
3973.23687,0.0002849
3972.27249,0.0003133
3971.30811,0.0003396
3970.34373,0.0003508
3969.37935,0.0003271
3968.41498,0.0002760
3967.45060,0.0002515
3966.48622,0.0002756
3965.52184,0.0003109
3964.55747,0.0003286
3963.59309,0.0003274
3962.62871,0.0003141
3961.66433,0.0003125
3960.69995,0.0003361
3959.73558,0.0003657
3958.77120,0.0003775
3957.80682,0.0003609
3956.84244,0.0003480
3955.87806,0.0003863
3954.91369,0.0004921
3953.94931,0.0005902
3952.98493,0.0006171
3952.02055,0.0006240
3951.05618,0.0006446
3950.09180,0.0006864
3949.12742,0.0007144
3948.16304,0.0006819
3947.19866,0.0005955
3946.23429,0.0004854
3945.26991,0.0004033
3944.30553,0.0003527
3943.34115,0.0003131
3942.37677,0.0002579
3941.41240,0.0002053
3940.44802,0.0002023
3939.48364,0.0002231
3938.51926,0.0002563
3937.55488,0.0003034
3936.59051,0.0003612
3935.62613,0.0003914
3934.66175,0.0003887
3933.69737,0.0004256
3932.73300,0.0004603
3931.76862,0.0004486
3930.80424,0.0004423
3929.83986,0.0004315
3928.87548,0.0003757
3927.91111,0.0003228
3926.94673,0.0003212
3925.98235,0.0003601
3925.01797,0.0004402
3924.05359,0.0005406
3923.08922,0.0006297
3922.12484,0.0006946
3921.16046,0.0007240
3920.19608,0.0007377
3919.23171,0.0007748
3918.26733,0.0007789
3917.30295,0.0006969
3916.33857,0.0005970
3915.37419,0.0005022
3914.40982,0.0004436
3913.44544,0.0004431
3912.48106,0.0004164
3911.51668,0.0003191
3910.55230,0.0002285
3909.58793,0.0002369
3908.62355,0.0002849
3907.65917,0.0003455
3906.69479,0.0003997
3905.73041,0.0003794
3904.76604,0.0003436
3903.80166,0.0003337
3902.83728,0.0003462
3901.87290,0.0003436
3900.90853,0.0003158
3899.94415,0.0003054
3898.97977,0.0003306
3898.01539,0.0003819
3897.05101,0.0003627
3896.08664,0.0003085
3895.12226,0.0002937
3894.15788,0.0002856
3893.19350,0.0002829
3892.22912,0.0002638
3891.26475,0.0002454
3890.30037,0.0002603
3889.33599,0.0002989
3888.37161,0.0003292
3887.40724,0.0003468
3886.44286,0.0003772
3885.47848,0.0004179
3884.51410,0.0004772
3883.54972,0.0005204
3882.58535,0.0005323
3881.62097,0.0005245
3880.65659,0.0005016
3879.69221,0.0004894
3878.72783,0.0004568
3877.76346,0.0003759
3876.79908,0.0003086
3875.83470,0.0002989
3874.87032,0.0002724
3873.90594,0.0002330
3872.94157,0.0002063
3871.97719,0.0001816
3871.01281,0.0001941
3870.04843,0.0001958
3869.08406,0.0002070
3868.11968,0.0002472
3867.15530,0.0002552
3866.19092,0.0002529
3865.22654,0.0002897
3864.26217,0.0003532
3863.29779,0.0003434
3862.33341,0.0003036
3861.36903,0.0003146
3860.40465,0.0003644
3859.44028,0.0004044
3858.47590,0.0003423
3857.51152,0.0002575
3856.54714,0.0002007
3855.58276,0.0001131
3854.61839,0.0000006
3853.65401,-0.0001052
3852.68963,-0.0001729
3851.72525,-0.0002242
3850.76088,-0.0002588
3849.79650,-0.0002583
3848.83212,-0.0001914
3847.86774,-0.0000753
3846.90336,0.0000101
3845.93899,0.0001037
3844.97461,0.0002149
3844.01023,0.0002728
3843.04585,0.0002434
3842.08147,0.0001735
3841.11710,0.0001196
3840.15272,0.0000590
3839.18834,-0.0000064
3838.22396,-0.0000186
3837.25959,0.0000423
3836.29521,0.0001097
3835.33083,0.0001712
3834.36645,0.0002877
3833.40207,0.0004155
3832.43770,0.0004736
3831.47332,0.0004535
3830.50894,0.0004008
3829.54456,0.0003434
3828.58018,0.0002895
3827.61581,0.0002847
3826.65143,0.0003309
3825.68705,0.0003202
3824.72267,0.0002492
3823.75829,0.0002536
3822.79392,0.0003418
3821.82954,0.0004238
3820.86516,0.0004365
3819.90078,0.0003602
3818.93641,0.0002232
3817.97203,0.0000736
3817.00765,-0.0000289
3816.04327,-0.0000786
3815.07889,-0.0001095
3814.11452,-0.0001312
3813.15014,-0.0001101
3812.18576,0.0000184
3811.22138,0.0002559
3810.25700,0.0005158
3809.29263,0.0006950
3808.32825,0.0007873
3807.36387,0.0008228
3806.39949,0.0007952
3805.43512,0.0007479
3804.47074,0.0007016
3803.50636,0.0006245
3802.54198,0.0005027
3801.57760,0.0003804
3800.61323,0.0003432
3799.64885,0.0003690
3798.68447,0.0003637
3797.72009,0.0003496
3796.75571,0.0003597
3795.79134,0.0003351
3794.82696,0.0002794
3793.86258,0.0002457
3792.89820,0.0002213
3791.93382,0.0001634
3790.96945,0.0000704
3790.00507,0.0000209
3789.04069,0.0000334
3788.07631,0.0000397
3787.11194,0.0000558
3786.14756,0.0001439
3785.18318,0.0002536
3784.21880,0.0003196
3783.25442,0.0004009
3782.29005,0.0005146
3781.32567,0.0005888
3780.36129,0.0005817
3779.39691,0.0005128
3778.43253,0.0004620
3777.46816,0.0004582
3776.50378,0.0004564
3775.53940,0.0004136
3774.57502,0.0003837
3773.61065,0.0004384
3772.64627,0.0005155
3771.68189,0.0006023
3770.71751,0.0007202
3769.75313,0.0007967
3768.78876,0.0008193
3767.82438,0.0008415
3766.86000,0.0008569
3765.89562,0.0008248
3764.93124,0.0007429
3763.96687,0.0005805
3763.00249,0.0003960
3762.03811,0.0002869
3761.07373,0.0002209
3760.10935,0.0002356
3759.14498,0.0003319
3758.18060,0.0004183
3757.21622,0.0004974
3756.25184,0.0005902
3755.28747,0.0006679
3754.32309,0.0006841
3753.35871,0.0006403
3752.39433,0.0005074
3751.42995,0.0003434
3750.46558,0.0002520
3749.50120,0.0002329
3748.53682,0.0002975
3747.57244,0.0003433
3746.60806,0.0003165
3745.64369,0.0003170
3744.67931,0.0004257
3743.71493,0.0005616
3742.75055,0.0005242
3741.78618,0.0004019
3740.82180,0.0003181
3739.85742,0.0002352
3738.89304,0.0001625
3737.92866,0.0001290
3736.96429,0.0001254
3735.99991,0.0000638
3735.03553,-0.0000059
3734.07115,0.0000169
3733.10677,0.0001549
3732.14240,0.0003092
3731.17802,0.0003477
3730.21364,0.0004004
3729.24926,0.0004924
3728.28488,0.0004933
3727.32051,0.0004210
3726.35613,0.0003815
3725.39175,0.0003638
3724.42737,0.0002678
3723.46300,0.0001959
3722.49862,0.0002290
3721.53424,0.0003572
3720.56986,0.0005457
3719.60548,0.0007052
3718.64111,0.0008773
3717.67673,0.0010616
3716.71235,0.0011510
3715.74797,0.0011377
3714.78359,0.0011131
3713.81922,0.0010553
3712.85484,0.0009501
3711.89046,0.0009047
3710.92608,0.0008883
3709.96171,0.0008900
3708.99733,0.0009180
3708.03295,0.0009200
3707.06857,0.0009298
3706.10419,0.0009417
3705.13982,0.0008814
3704.17544,0.0007527
3703.21106,0.0006337
3702.24668,0.0005692
3701.28230,0.0006148
3700.31793,0.0007197
3699.35355,0.0007747
3698.38917,0.0008585
3697.42479,0.0009538
3696.46041,0.0009614
3695.49604,0.0009220
3694.53166,0.0008939
3693.56728,0.0008497
3692.60290,0.0007545
3691.63853,0.0006838
3690.67415,0.0006836
3689.70977,0.0007772
3688.74539,0.0009075
3687.78101,0.0009323
3686.81664,0.0008847
3685.85226,0.0008247
3684.88788,0.0007279
3683.92350,0.0006316
3682.95912,0.0006094
3681.99475,0.0006294
3681.03037,0.0006056
3680.06599,0.0005918
3679.10161,0.0006507
3678.13724,0.0007710
3677.17286,0.0008830
3676.20848,0.0008891
3675.24410,0.0008685
3674.27972,0.0009034
3673.31535,0.0009065
3672.35097,0.0008927
3671.38659,0.0009325
3670.42221,0.0009796
3669.45783,0.0009870
3668.49346,0.0009804
3667.52908,0.0009881
3666.56470,0.0010078
3665.60032,0.0010367
3664.63594,0.0010560
3663.67157,0.0010975
3662.70719,0.0011888
3661.74281,0.0012567
3660.77843,0.0013237
3659.81406,0.0014689
3658.84968,0.0016545
3657.88530,0.0017802
3656.92092,0.0018238
3655.95654,0.0018601
3654.99217,0.0018874
3654.02779,0.0018810
3653.06341,0.0018274
3652.09903,0.0017411
3651.13465,0.0017033
3650.17028,0.0016849
3649.20590,0.0016768
3648.24152,0.0017633
3647.27714,0.0019026
3646.31276,0.0019997
3645.34839,0.0020696
3644.38401,0.0021361
3643.41963,0.0021684
3642.45525,0.0021981
3641.49088,0.0022165
3640.52650,0.0022191
3639.56212,0.0022836
3638.59774,0.0023435
3637.63336,0.0023502
3636.66899,0.0023820
3635.70461,0.0024316
3634.74023,0.0024458
3633.77585,0.0024321
3632.81147,0.0024611
3631.84710,0.0025711
3630.88272,0.0027047
3629.91834,0.0028405
3628.95396,0.0030346
3627.98959,0.0032517
3627.02521,0.0033804
3626.06083,0.0034356
3625.09645,0.0034679
3624.13207,0.0034244
3623.16770,0.0032905
3622.20332,0.0031629
3621.23894,0.0031488
3620.27456,0.0032171
3619.31018,0.0032418
3618.34581,0.0032481
3617.38143,0.0032989
3616.41705,0.0033466
3615.45267,0.0033952
3614.48829,0.0034411
3613.52392,0.0034638
3612.55954,0.0034892
3611.59516,0.0035348
3610.63078,0.0036404
3609.66641,0.0037741
3608.70203,0.0038593
3607.73765,0.0038571
3606.77327,0.0037903
3605.80889,0.0037712
3604.84452,0.0038081
3603.88014,0.0038588
3602.91576,0.0038934
3601.95138,0.0038839
3600.98700,0.0038824
3600.02263,0.0038717
3599.05825,0.0038073
3598.09387,0.0036670
3597.12949,0.0034631
3596.16512,0.0032848
3595.20074,0.0032019
3594.23636,0.0032481
3593.27198,0.0033612
3592.30760,0.0034980
3591.34323,0.0036287
3590.37885,0.0036822
3589.41447,0.0037093
3588.45009,0.0037203
3587.48571,0.0037025
3586.52134,0.0037099
3585.55696,0.0037125
3584.59258,0.0037023
3583.62820,0.0037003
3582.66382,0.0036916
3581.69945,0.0037081
3580.73507,0.0037472
3579.77069,0.0037582
3578.80631,0.0037816
3577.84194,0.0038450
3576.87756,0.0039056
3575.91318,0.0039726
3574.94880,0.0040564
3573.98442,0.0041030
3573.02005,0.0040748
3572.05567,0.0040079
3571.09129,0.0039749
3570.12691,0.0039956
3569.16253,0.0039924
3568.19816,0.0039269
3567.23378,0.0038500
3566.26940,0.0038065
3565.30502,0.0038171
3564.34065,0.0038466
3563.37627,0.0038809
3562.41189,0.0039060
3561.44751,0.0039061
3560.48313,0.0039621
3559.51876,0.0040747
3558.55438,0.0041677
3557.59000,0.0042100
3556.62562,0.0041901
3555.66124,0.0041539
3554.69687,0.0041647
3553.73249,0.0042040
3552.76811,0.0042299
3551.80373,0.0042641
3550.83935,0.0042872
3549.87498,0.0043067
3548.91060,0.0043736
3547.94622,0.0044233
3546.98184,0.0044069
3546.01747,0.0043702
3545.05309,0.0043450
3544.08871,0.0042899
3543.12433,0.0041877
3542.15995,0.0040707
3541.19558,0.0039555
3540.23120,0.0038930
3539.26682,0.0039214
3538.30244,0.0040566
3537.33806,0.0042512
3536.37369,0.0044062
3535.40931,0.0045165
3534.44493,0.0046474
3533.48055,0.0048001
3532.51618,0.0048684
3531.55180,0.0048314
3530.58742,0.0047432
3529.62304,0.0046326
3528.65866,0.0045716
3527.69429,0.0046015
3526.72991,0.0047085
3525.76553,0.0048139
3524.80115,0.0048551
3523.83677,0.0048866
3522.87240,0.0049477
3521.90802,0.0049975
3520.94364,0.0050124
3519.97926,0.0050087
3519.01488,0.0049802
3518.05051,0.0049491
3517.08613,0.0049396
3516.12175,0.0049740
3515.15737,0.0050708
3514.19300,0.0051634
3513.22862,0.0052020
3512.26424,0.0052161
3511.29986,0.0052865
3510.33548,0.0053969
3509.37111,0.0054806
3508.40673,0.0055437
3507.44235,0.0055586
3506.47797,0.0055545
3505.51359,0.0055599
3504.54922,0.0055805
3503.58484,0.0056170
3502.62046,0.0055985
3501.65608,0.0055512
3500.69171,0.0055206
3499.72733,0.0055420
3498.76295,0.0056099
3497.79857,0.0056845
3496.83419,0.0058029
3495.86982,0.0058803
3494.90544,0.0058765
3493.94106,0.0058954
3492.97668,0.0059534
3492.01230,0.0059765
3491.04793,0.0059260
3490.08355,0.0058741
3489.11917,0.0058316
3488.15479,0.0058056
3487.19041,0.0058575
3486.22604,0.0059512
3485.26166,0.0060249
3484.29728,0.0060439
3483.33290,0.0060682
3482.36853,0.0061647
3481.40415,0.0062774
3480.43977,0.0063466
3479.47539,0.0063584
3478.51101,0.0063482
3477.54664,0.0063531
3476.58226,0.0063925
3475.61788,0.0064860
3474.65350,0.0066000
3473.68912,0.0066814
3472.72475,0.0067107
3471.76037,0.0066968
3470.79599,0.0066850
3469.83161,0.0067053
3468.86724,0.0066959
3467.90286,0.0066352
3466.93848,0.0066196
3465.97410,0.0066650
3465.00972,0.0067309
3464.04535,0.0068548
3463.08097,0.0069890
3462.11659,0.0070288
3461.15221,0.0070041
3460.18783,0.0069912
3459.22346,0.0070186
3458.25908,0.0070378
3457.29470,0.0070168
3456.33032,0.0070499
3455.36594,0.0071614
3454.40157,0.0072471
3453.43719,0.0072686
3452.47281,0.0072682
3451.50843,0.0072599
3450.54406,0.0072568
3449.57968,0.0072883
3448.61530,0.0073261
3447.65092,0.0073265
3446.68654,0.0072863
3445.72217,0.0072736
3444.75779,0.0073149
3443.79341,0.0073429
3442.82903,0.0073599
3441.86465,0.0073877
3440.90028,0.0074186
3439.93590,0.0074635
3438.97152,0.0075086
3438.00714,0.0075135
3437.04276,0.0074888
3436.07839,0.0074847
3435.11401,0.0074900
3434.14963,0.0074937
3433.18525,0.0075010
3432.22088,0.0075344
3431.25650,0.0076300
3430.29212,0.0077344
3429.32774,0.0077927
3428.36336,0.0078216
3427.39899,0.0078375
3426.43461,0.0078213
3425.47023,0.0078136
3424.50585,0.0078690
3423.54147,0.0079386
3422.57710,0.0079875
3421.61272,0.0080071
3420.64834,0.0080346
3419.68396,0.0080893
3418.71959,0.0080909
3417.75521,0.0080628
3416.79083,0.0080725
3415.82645,0.0080934
3414.86207,0.0081176
3413.89770,0.0081559
3412.93332,0.0081848
3411.96894,0.0082175
3411.00456,0.0082499
3410.04018,0.0082375
3409.07581,0.0082129
3408.11143,0.0081880
3407.14705,0.0081404
3406.18267,0.0081246
3405.21829,0.0081658
3404.25392,0.0081798
3403.28954,0.0081534
3402.32516,0.0081461
3401.36078,0.0081373
3400.39641,0.0081579
3399.43203,0.0082342
3398.46765,0.0083041
3397.50327,0.0083314
3396.53889,0.0083265
3395.57452,0.0083255
3394.61014,0.0083199
3393.64576,0.0082867
3392.68138,0.0081812
3391.71700,0.0080731
3390.75263,0.0081056
3389.78825,0.0081824
3388.82387,0.0082337
3387.85949,0.0083191
3386.89512,0.0084238
3385.93074,0.0085093
3384.96636,0.0085538
3384.00198,0.0085636
3383.03760,0.0085486
3382.07323,0.0085146
3381.10885,0.0084615
3380.14447,0.0084381
3379.18009,0.0084493
3378.21571,0.0084182
3377.25134,0.0083819
3376.28696,0.0083890
3375.32258,0.0084171
3374.35820,0.0084405
3373.39382,0.0084634
3372.42945,0.0084816
3371.46507,0.0084721
3370.50069,0.0084881
3369.53631,0.0085265
3368.57194,0.0085377
3367.60756,0.0085435
3366.64318,0.0085690
3365.67880,0.0085936
3364.71442,0.0085584
3363.75005,0.0085013
3362.78567,0.0084890
3361.82129,0.0084761
3360.85691,0.0084018
3359.89253,0.0082837
3358.92816,0.0082122
3357.96378,0.0081885
3356.99940,0.0081801
3356.03502,0.0082245
3355.07065,0.0082797
3354.10627,0.0083089
3353.14189,0.0083327
3352.17751,0.0083684
3351.21313,0.0084176
3350.24876,0.0084034
3349.28438,0.0083259
3348.32000,0.0082608
3347.35562,0.0082205
3346.39124,0.0082071
3345.42687,0.0082121
3344.46249,0.0082415
3343.49811,0.0082827
3342.53373,0.0083004
3341.56935,0.0083001
3340.60498,0.0082942
3339.64060,0.0082810
3338.67622,0.0082551
3337.71184,0.0082574
3336.74747,0.0082872
3335.78309,0.0082888
3334.81871,0.0082671
3333.85433,0.0082483
3332.88995,0.0082617
3331.92558,0.0082902
3330.96120,0.0082972
3329.99682,0.0082976
3329.03244,0.0083007
3328.06806,0.0083092
3327.10369,0.0083385
3326.13931,0.0083833
3325.17493,0.0083912
3324.21055,0.0083409
3323.24618,0.0082743
3322.28180,0.0082280
3321.31742,0.0081965
3320.35304,0.0081673
3319.38866,0.0081427
3318.42429,0.0080976
3317.45991,0.0080600
3316.49553,0.0080519
3315.53115,0.0080325
3314.56677,0.0080030
3313.60240,0.0079585
3312.63802,0.0079362
3311.67364,0.0079756
3310.70926,0.0080301
3309.74488,0.0080787
3308.78051,0.0081332
3307.81613,0.0081833
3306.85175,0.0082025
3305.88737,0.0082136
3304.92300,0.0082386
3303.95862,0.0082332
3302.99424,0.0081830
3302.02986,0.0081338
3301.06548,0.0081252
3300.10111,0.0081215
3299.13673,0.0080879
3298.17235,0.0080326
3297.20797,0.0079545
3296.24359,0.0078922
3295.27922,0.0078636
3294.31484,0.0078585
3293.35046,0.0078937
3292.38608,0.0079393
3291.42171,0.0079846
3290.45733,0.0080550
3289.49295,0.0081052
3288.52857,0.0081033
3287.56419,0.0080847
3286.59982,0.0080632
3285.63544,0.0080383
3284.67106,0.0080441
3283.70668,0.0080727
3282.74230,0.0080643
3281.77793,0.0080363
3280.81355,0.0080194
3279.84917,0.0079969
3278.88479,0.0079857
3277.92041,0.0079759
3276.95604,0.0079375
3275.99166,0.0079165
3275.02728,0.0079419
3274.06290,0.0079562
3273.09853,0.0079518
3272.13415,0.0079468
3271.16977,0.0078929
3270.20539,0.0078146
3269.24101,0.0077593
3268.27664,0.0077262
3267.31226,0.0077207
3266.34788,0.0077060
3265.38350,0.0076963
3264.41912,0.0077324
3263.45475,0.0077660
3262.49037,0.0077571
3261.52599,0.0077388
3260.56161,0.0077462
3259.59724,0.0077483
3258.63286,0.0077282
3257.66848,0.0077110
3256.70410,0.0077208
3255.73972,0.0077512
3254.77535,0.0077735
3253.81097,0.0078038
3252.84659,0.0078068
3251.88221,0.0077640
3250.91783,0.0077532
3249.95346,0.0077746
3248.98908,0.0078041
3248.02470,0.0078193
3247.06032,0.0077826
3246.09594,0.0077525
3245.13157,0.0077762
3244.16719,0.0077854
3243.20281,0.0077288
3242.23843,0.0076459
3241.27406,0.0075732
3240.30968,0.0075283
3239.34530,0.0075266
3238.38092,0.0075565
3237.41654,0.0075996
3236.45217,0.0076334
3235.48779,0.0076646
3234.52341,0.0077208
3233.55903,0.0077553
3232.59465,0.0077195
3231.63028,0.0076652
3230.66590,0.0076226
3229.70152,0.0075627
3228.73714,0.0074897
3227.77276,0.0074380
3226.80839,0.0074414
3225.84401,0.0074941
3224.87963,0.0075836
3223.91525,0.0076759
3222.95088,0.0076980
3221.98650,0.0076720
3221.02212,0.0076812
3220.05774,0.0077302
3219.09336,0.0077426
3218.12899,0.0076909
3217.16461,0.0076186
3216.20023,0.0075738
3215.23585,0.0076007
3214.27147,0.0076397
3213.30710,0.0076118
3212.34272,0.0075274
3211.37834,0.0074140
3210.41396,0.0073471
3209.44959,0.0073416
3208.48521,0.0073161
3207.52083,0.0072756
3206.55645,0.0072411
3205.59207,0.0071982
3204.62770,0.0072018
3203.66332,0.0072537
3202.69894,0.0072808
3201.73456,0.0072976
3200.77018,0.0073406
3199.80581,0.0073732
3198.84143,0.0073746
3197.87705,0.0073597
3196.91267,0.0073352
3195.94829,0.0073381
3194.98392,0.0073187
3194.01954,0.0072145
3193.05516,0.0071253
3192.09078,0.0070682
3191.12641,0.0070202
3190.16203,0.0070294
3189.19765,0.0070653
3188.23327,0.0070818
3187.26889,0.0070942
3186.30452,0.0071503
3185.34014,0.0072418
3184.37576,0.0073245
3183.41138,0.0073280
3182.44700,0.0072481
3181.48263,0.0072082
3180.51825,0.0072058
3179.55387,0.0072056
3178.58949,0.0072077
3177.62512,0.0071641
3176.66074,0.0070955
3175.69636,0.0070473
3174.73198,0.0070396
3173.76760,0.0070533
3172.80323,0.0070536
3171.83885,0.0070138
3170.87447,0.0069668
3169.91009,0.0069734
3168.94571,0.0070085
3167.98134,0.0070462
3167.01696,0.0070580
3166.05258,0.0070454
3165.08820,0.0070450
3164.12382,0.0070501
3163.15945,0.0070568
3162.19507,0.0070494
3161.23069,0.0070128
3160.26631,0.0069440
3159.30194,0.0068627
3158.33756,0.0067898
3157.37318,0.0067286
3156.40880,0.0066917
3155.44442,0.0066905
3154.48005,0.0067338
3153.51567,0.0067842
3152.55129,0.0068393
3151.58691,0.0069096
3150.62253,0.0069596
3149.65816,0.0069809
3148.69378,0.0069596
3147.72940,0.0068978
3146.76502,0.0068028
3145.80065,0.0066968
3144.83627,0.0066136
3143.87189,0.0065714
3142.90751,0.0065662
3141.94313,0.0065467
3140.97876,0.0065263
3140.01438,0.0065118
3139.05000,0.0065008
3138.08562,0.0065170
3137.12124,0.0065265
3136.15687,0.0065310
3135.19249,0.0065259
3134.22811,0.0065131
3133.26373,0.0065011
3132.29935,0.0064787
3131.33498,0.0064710
3130.37060,0.0064465
3129.40622,0.0063943
3128.44184,0.0063615
3127.47747,0.0063662
3126.51309,0.0063900
3125.54871,0.0064160
3124.58433,0.0064551
3123.61995,0.0064727
3122.65558,0.0064562
3121.69120,0.0064338
3120.72682,0.0064190
3119.76244,0.0064086
3118.79806,0.0063634
3117.83369,0.0063091
3116.86931,0.0062746
3115.90493,0.0062323
3114.94055,0.0062082
3113.97618,0.0062389
3113.01180,0.0062955
3112.04742,0.0063079
3111.08304,0.0062712
3110.11866,0.0062426
3109.15429,0.0062231
3108.18991,0.0061843
3107.22553,0.0061439
3106.26115,0.0061306
3105.29677,0.0061259
3104.33240,0.0061251
3103.36802,0.0061506
3102.40364,0.0061865
3101.43926,0.0062129
3100.47488,0.0061960
3099.51051,0.0061472
3098.54613,0.0061239
3097.58175,0.0060817
3096.61737,0.0060082
3095.65300,0.0059588
3094.68862,0.0059333
3093.72424,0.0059169
3092.75986,0.0058765
3091.79548,0.0058263
3090.83111,0.0058258
3089.86673,0.0058715
3088.90235,0.0058981
3087.93797,0.0058761
3086.97359,0.0058645
3086.00922,0.0058478
3085.04484,0.0058001
3084.08046,0.0057730
3083.11608,0.0057782
3082.15171,0.0058046
3081.18733,0.0058089
3080.22295,0.0058257
3079.25857,0.0059068
3078.29419,0.0059750
3077.32982,0.0059934
3076.36544,0.0059767
3075.40106,0.0059518
3074.43668,0.0059111
3073.47230,0.0058469
3072.50793,0.0058139
3071.54355,0.0057963
3070.57917,0.0057673
3069.61479,0.0057199
3068.65041,0.0056721
3067.68604,0.0056667
3066.72166,0.0056723
3065.75728,0.0056628
3064.79290,0.0056426
3063.82853,0.0056170
3062.86415,0.0055935
3061.89977,0.0055996
3060.93539,0.0056381
3059.97101,0.0056468
3059.00664,0.0056280
3058.04226,0.0055941
3057.07788,0.0055357
3056.11350,0.0055012
3055.14912,0.0054981
3054.18475,0.0054769
3053.22037,0.0054502
3052.25599,0.0054588
3051.29161,0.0054691
3050.32724,0.0054838
3049.36286,0.0055254
3048.39848,0.0055470
3047.43410,0.0055538
3046.46972,0.0055488
3045.50535,0.0055101
3044.54097,0.0054698
3043.57659,0.0054414
3042.61221,0.0053945
3041.64783,0.0053173
3040.68346,0.0052484
3039.71908,0.0052048
3038.75470,0.0051832
3037.79032,0.0051927
3036.82594,0.0052061
3035.86157,0.0052202
3034.89719,0.0052331
3033.93281,0.0052162
3032.96843,0.0051967
3032.00406,0.0051927
3031.03968,0.0051784
3030.07530,0.0051282
3029.11092,0.0050886
3028.14654,0.0051250
3027.18217,0.0051877
3026.21779,0.0052541
3025.25341,0.0053371
3024.28903,0.0054090
3023.32465,0.0054604
3022.36028,0.0054579
3021.39590,0.0054036
3020.43152,0.0053255
3019.46714,0.0052293
3018.50276,0.0051312
3017.53839,0.0050457
3016.57401,0.0050084
3015.60963,0.0050094
3014.64525,0.0050221
3013.68088,0.0050459
3012.71650,0.0050448
3011.75212,0.0050094
3010.78774,0.0049571
3009.82336,0.0049051
3008.85899,0.0048872
3007.89461,0.0049150
3006.93023,0.0049583
3005.96585,0.0049951
3005.00147,0.0050434
3004.03710,0.0050888
3003.07272,0.0050799
3002.10834,0.0050088
3001.14396,0.0049016
3000.17959,0.0047929
2999.21521,0.0047338
2998.25083,0.0047145
2997.28645,0.0046880
2996.32207,0.0046575
2995.35770,0.0046467
2994.39332,0.0046845
2993.42894,0.0047420
2992.46456,0.0047699
2991.50018,0.0047697
2990.53581,0.0047593
2989.57143,0.0047785
2988.60705,0.0048136
2987.64267,0.0048321
2986.67829,0.0048176
2985.71392,0.0047485
2984.74954,0.0046943
2983.78516,0.0047133
2982.82078,0.0047610
2981.85641,0.0047744
2980.89203,0.0047501
2979.92765,0.0047364
2978.96327,0.0047498
2977.99889,0.0047739
2977.03452,0.0047751
2976.07014,0.0047472
2975.10576,0.0047169
2974.14138,0.0046934
2973.17700,0.0046978
2972.21263,0.0047311
2971.24825,0.0047678
2970.28387,0.0048127
2969.31949,0.0048842
2968.35512,0.0049681
2967.39074,0.0050269
2966.42636,0.0050585
2965.46198,0.0050811
2964.49760,0.0050994
2963.53323,0.0051000
2962.56885,0.0050603
2961.60447,0.0050166
2960.64009,0.0050124
2959.67571,0.0050202
2958.71134,0.0050292
2957.74696,0.0050429
2956.78258,0.0050279
2955.81820,0.0049814
2954.85382,0.0049350
2953.88945,0.0048930
2952.92507,0.0048607
2951.96069,0.0048535
2950.99631,0.0048477
2950.03194,0.0048508
2949.06756,0.0048948
2948.10318,0.0049407
2947.13880,0.0049801
2946.17442,0.0050402
2945.21005,0.0050950
2944.24567,0.0051356
2943.28129,0.0051688
2942.31691,0.0051956
2941.35253,0.0052594
2940.38816,0.0053650
2939.42378,0.0054466
2938.45940,0.0055196
2937.49502,0.0056333
2936.53065,0.0057387
2935.56627,0.0058313
2934.60189,0.0059599
2933.63751,0.0060849
2932.67313,0.0061573
2931.70876,0.0061917
2930.74438,0.0062169
2929.78000,0.0062429
2928.81562,0.0062786
2927.85124,0.0063344
2926.88687,0.0063936
2925.92249,0.0064239
2924.95811,0.0064210
2923.99373,0.0064256
2923.02935,0.0064470
2922.06498,0.0064229
2921.10060,0.0063089
2920.13622,0.0061412
2919.17184,0.0059811
2918.20747,0.0058419
2917.24309,0.0057388
2916.27871,0.0056665
2915.31433,0.0055714
2914.34995,0.0054542
2913.38558,0.0053454
2912.42120,0.0052518
2911.45682,0.0051596
2910.49244,0.0050500
2909.52806,0.0049313
2908.56369,0.0048365
2907.59931,0.0047835
2906.63493,0.0047313
2905.67055,0.0046768
2904.70618,0.0046557
2903.74180,0.0046479
2902.77742,0.0046270
2901.81304,0.0045867
2900.84866,0.0045521
2899.88429,0.0045315
2898.91991,0.0045049
2897.95553,0.0044849
2896.99115,0.0044694
2896.02677,0.0044162
2895.06240,0.0043130
2894.09802,0.0042223
2893.13364,0.0041696
2892.16926,0.0041201
2891.20488,0.0040595
2890.24051,0.0039930
2889.27613,0.0039527
2888.31175,0.0039406
2887.34737,0.0039374
2886.38300,0.0039367
2885.41862,0.0039291
2884.45424,0.0039151
2883.48986,0.0038933
2882.52548,0.0038876
2881.56111,0.0039119
2880.59673,0.0039474
2879.63235,0.0039698
2878.66797,0.0039694
2877.70359,0.0039761
2876.73922,0.0039989
2875.77484,0.0040153
2874.81046,0.0040018
2873.84608,0.0039761
2872.88171,0.0039672
2871.91733,0.0039618
2870.95295,0.0039724
2869.98857,0.0040011
2869.02419,0.0040274
2868.05982,0.0040606
2867.09544,0.0041143
2866.13106,0.0041771
2865.16668,0.0042225
2864.20230,0.0042592
2863.23793,0.0042914
2862.27355,0.0043139
2861.30917,0.0043458
2860.34479,0.0043946
2859.38041,0.0044478
2858.41604,0.0044899
2857.45166,0.0045349
2856.48728,0.0046080
2855.52290,0.0046829
2854.55853,0.0047173
2853.59415,0.0047218
2852.62977,0.0047087
2851.66539,0.0046565
2850.70101,0.0045650
2849.73664,0.0044511
2848.77226,0.0043274
2847.80788,0.0041978
2846.84350,0.0040699
2845.87912,0.0039742
2844.91475,0.0039224
2843.95037,0.0038858
2842.98599,0.0038548
2842.02161,0.0038353
2841.05724,0.0037981
2840.09286,0.0037459
2839.12848,0.0036878
2838.16410,0.0036123
2837.19972,0.0035421
2836.23535,0.0034801
2835.27097,0.0034334
2834.30659,0.0034264
2833.34221,0.0034499
2832.37783,0.0034819
2831.41346,0.0035039
2830.44908,0.0035024
2829.48470,0.0034821
2828.52032,0.0034636
2827.55594,0.0034418
2826.59157,0.0034063
2825.62719,0.0033497
2824.66281,0.0032804
2823.69843,0.0032352
2822.73406,0.0032184
2821.76968,0.0032199
2820.80530,0.0032174
2819.84092,0.0032133
2818.87654,0.0032276
2817.91217,0.0032437
2816.94779,0.0032652
2815.98341,0.0032888
2815.01903,0.0032878
2814.05465,0.0032416
2813.09028,0.0031875
2812.12590,0.0031646
2811.16152,0.0031420
2810.19714,0.0031119
2809.23276,0.0030829
2808.26839,0.0030911
2807.30401,0.0031258
2806.33963,0.0031375
2805.37525,0.0031607
2804.41088,0.0031832
2803.44650,0.0031699
2802.48212,0.0031260
2801.51774,0.0030787
2800.55336,0.0030501
2799.58899,0.0030118
2798.62461,0.0029829
2797.66023,0.0029921
2796.69585,0.0030265
2795.73147,0.0030649
2794.76710,0.0031033
2793.80272,0.0031516
2792.83834,0.0031864
2791.87396,0.0032049
2790.90959,0.0032090
2789.94521,0.0031912
2788.98083,0.0031601
2788.01645,0.0031200
2787.05207,0.0030825
2786.08770,0.0030376
2785.12332,0.0029905
2784.15894,0.0029760
2783.19456,0.0029905
2782.23018,0.0029990
2781.26581,0.0029920
2780.30143,0.0029935
2779.33705,0.0030096
2778.37267,0.0030398
2777.40829,0.0030756
2776.44392,0.0030919
2775.47954,0.0030875
2774.51516,0.0030645
2773.55078,0.0030427
2772.58641,0.0030437
2771.62203,0.0030405
2770.65765,0.0030208
2769.69327,0.0029907
2768.72889,0.0029570
2767.76452,0.0029427
2766.80014,0.0029554
2765.83576,0.0029734
2764.87138,0.0029841
2763.90700,0.0030106
2762.94263,0.0030403
2761.97825,0.0030578
2761.01387,0.0030884
2760.04949,0.0031140
2759.08512,0.0031227
2758.12074,0.0031072
2757.15636,0.0030634
2756.19198,0.0030331
2755.22760,0.0030179
2754.26323,0.0029974
2753.29885,0.0029807
2752.33447,0.0029704
2751.37009,0.0029414
2750.40571,0.0029074
2749.44134,0.0028998
2748.47696,0.0028872
2747.51258,0.0028608
2746.54820,0.0028330
2745.58382,0.0028192
2744.61945,0.0028398
2743.65507,0.0028608
2742.69069,0.0028588
2741.72631,0.0028529
2740.76194,0.0028488
2739.79756,0.0028264
2738.83318,0.0028088
2737.86880,0.0028205
2736.90442,0.0028209
2735.94005,0.0028001
2734.97567,0.0027813
2734.01129,0.0027827
2733.04691,0.0027979
2732.08253,0.0028011
2731.11816,0.0027978
2730.15378,0.0027983
2729.18940,0.0027950
2728.22502,0.0027730
2727.26065,0.0027435
2726.29627,0.0027185
2725.33189,0.0026880
2724.36751,0.0026745
2723.40313,0.0026884
2722.43876,0.0027125
2721.47438,0.0027428
2720.51000,0.0027718
2719.54562,0.0027892
2718.58124,0.0027899
2717.61687,0.0027754
2716.65249,0.0027422
2715.68811,0.0026904
2714.72373,0.0026471
2713.75935,0.0026243
2712.79498,0.0026127
2711.83060,0.0026134
2710.86622,0.0026226
2709.90184,0.0026308
2708.93747,0.0026409
2707.97309,0.0026646
2707.00871,0.0026880
2706.04433,0.0026904
2705.07995,0.0026806
2704.11558,0.0026665
2703.15120,0.0026507
2702.18682,0.0026285
2701.22244,0.0026044
2700.25806,0.0025959
2699.29369,0.0026017
2698.32931,0.0026222
2697.36493,0.0026529
2696.40055,0.0026736
2695.43618,0.0026641
2694.47180,0.0026281
2693.50742,0.0025930
2692.54304,0.0025662
2691.57866,0.0025390
2690.61429,0.0025161
2689.64991,0.0025019
2688.68553,0.0024931
2687.72115,0.0025053
2686.75677,0.0025323
2685.79240,0.0025439
2684.82802,0.0025450
2683.86364,0.0025371
2682.89926,0.0025069
2681.93488,0.0024563
2680.97051,0.0024184
2680.00613,0.0023982
2679.04175,0.0023735
2678.07737,0.0023591
2677.11300,0.0023556
2676.14862,0.0023687
2675.18424,0.0024048
2674.21986,0.0024593
2673.25548,0.0025235
2672.29111,0.0025573
2671.32673,0.0025595
2670.36235,0.0025499
2669.39797,0.0025522
2668.43359,0.0025647
2667.46922,0.0025563
2666.50484,0.0025378
2665.54046,0.0025104
2664.57608,0.0024776
2663.61171,0.0024625
2662.64733,0.0024628
2661.68295,0.0024517
2660.71857,0.0024304
2659.75419,0.0024249
2658.78982,0.0024167
2657.82544,0.0023980
2656.86106,0.0023743
2655.89668,0.0023611
2654.93230,0.0023706
2653.96793,0.0023749
2653.00355,0.0023741
2652.03917,0.0023822
2651.07479,0.0023904
2650.11041,0.0023839
2649.14604,0.0023807
2648.18166,0.0023819
2647.21728,0.0023620
2646.25290,0.0023436
2645.28853,0.0023274
2644.32415,0.0023046
2643.35977,0.0022780
2642.39539,0.0022599
2641.43101,0.0022648
2640.46664,0.0022716
2639.50226,0.0022742
2638.53788,0.0022684
2637.57350,0.0022673
2636.60912,0.0022790
2635.64475,0.0022914
2634.68037,0.0022966
2633.71599,0.0022682
2632.75161,0.0022174
2631.78724,0.0021709
2630.82286,0.0021618
2629.85848,0.0021869
2628.89410,0.0022010
2627.92972,0.0022098
2626.96535,0.0022242
2626.00097,0.0022447
2625.03659,0.0022574
2624.07221,0.0022659
2623.10783,0.0022713
2622.14346,0.0022522
2621.17908,0.0022247
2620.21470,0.0022008
2619.25032,0.0021900
2618.28594,0.0021664
2617.32157,0.0021319
2616.35719,0.0021292
2615.39281,0.0021281
2614.42843,0.0021164
2613.46406,0.0021016
2612.49968,0.0020808
2611.53530,0.0020586
2610.57092,0.0020497
2609.60654,0.0020764
2608.64217,0.0021030
2607.67779,0.0020984
2606.71341,0.0020890
2605.74903,0.0020945
2604.78465,0.0020755
2603.82028,0.0020300
2602.85590,0.0020125
2601.89152,0.0019930
2600.92714,0.0019392
2599.96276,0.0019024
2598.99839,0.0019263
2598.03401,0.0019698
2597.06963,0.0019629
2596.10525,0.0019398
2595.14088,0.0019675
2594.17650,0.0020072
2593.21212,0.0020171
2592.24774,0.0020349
2591.28336,0.0020410
2590.31899,0.0020125
2589.35461,0.0020050
2588.39023,0.0020186
2587.42585,0.0020149
2586.46147,0.0020015
2585.49710,0.0019979
2584.53272,0.0019931
2583.56834,0.0020010
2582.60396,0.0020224
2581.63959,0.0020169
2580.67521,0.0020082
2579.71083,0.0020154
2578.74645,0.0020460
2577.78207,0.0021021
2576.81770,0.0021345
2575.85332,0.0021396
2574.88894,0.0021458
2573.92456,0.0021492
2572.96018,0.0021162
2571.99581,0.0020566
2571.03143,0.0019774
2570.06705,0.0018884
2569.10267,0.0018582
2568.13829,0.0018370
2567.17392,0.0018017
2566.20954,0.0018080
2565.24516,0.0018350
2564.28078,0.0018748
2563.31641,0.0018895
2562.35203,0.0018780
2561.38765,0.0018871
2560.42327,0.0019101
2559.45889,0.0019175
2558.49452,0.0018841
2557.53014,0.0018460
2556.56576,0.0018172
2555.60138,0.0018236
2554.63700,0.0018869
2553.67263,0.0019513
2552.70825,0.0020146
2551.74387,0.0020512
2550.77949,0.0020427
2549.81512,0.0020480
2548.85074,0.0020940
2547.88636,0.0021184
2546.92198,0.0020416
2545.95760,0.0019211
2544.99323,0.0018254
2544.02885,0.0017732
2543.06447,0.0017659
2542.10009,0.0017244
2541.13571,0.0016393
2540.17134,0.0015615
2539.20696,0.0014841
2538.24258,0.0014205
2537.27820,0.0014060
2536.31382,0.0014122
2535.34945,0.0014116
2534.38507,0.0014203
2533.42069,0.0014431
2532.45631,0.0015076
2531.49194,0.0015784
2530.52756,0.0015763
2529.56318,0.0015345
2528.59880,0.0015199
2527.63442,0.0015413
2526.67005,0.0015806
2525.70567,0.0016636
2524.74129,0.0017903
2523.77691,0.0018944
2522.81253,0.0019572
2521.84816,0.0019712
2520.88378,0.0019225
2519.91940,0.0018299
2518.95502,0.0017181
2517.99065,0.0016217
2517.02627,0.0015642
2516.06189,0.0015466
2515.09751,0.0015841
2514.13313,0.0016820
2513.16876,0.0017669
2512.20438,0.0017964
2511.24000,0.0018464
2510.27562,0.0018739
2509.31124,0.0017786
2508.34687,0.0016784
2507.38249,0.0016583
2506.41811,0.0016532
2505.45373,0.0016219
2504.48935,0.0015651
2503.52498,0.0015558
2502.56060,0.0016077
2501.59622,0.0016416
2500.63184,0.0016582
2499.66747,0.0017131
2498.70309,0.0017710
2497.73871,0.0017654
2496.77433,0.0017638
2495.80995,0.0017591
2494.84558,0.0016917
2493.88120,0.0016410
2492.91682,0.0016346
2491.95244,0.0016677
2490.98806,0.0017279
2490.02369,0.0017590
2489.05931,0.0017560
2488.09493,0.0017812
2487.13055,0.0018427
2486.16618,0.0018156
2485.20180,0.0017024
2484.23742,0.0015921
2483.27304,0.0014870
2482.30866,0.0014268
2481.34429,0.0014203
2480.37991,0.0014207
2479.41553,0.0014217
2478.45115,0.0014697
2477.48677,0.0015764
2476.52240,0.0017062
2475.55802,0.0018299
2474.59364,0.0018827
2473.62926,0.0018691
2472.66488,0.0018254
2471.70051,0.0017202
2470.73613,0.0015911
2469.77175,0.0014697
2468.80737,0.0013194
2467.84300,0.0011974
2466.87862,0.0011876
2465.91424,0.0012270
2464.94986,0.0012516
2463.98548,0.0012642
2463.02111,0.0012435
2462.05673,0.0012478
2461.09235,0.0013070
2460.12797,0.0013573
2459.16359,0.0014155
2458.19922,0.0014598
2457.23484,0.0014552
2456.27046,0.0014491
2455.30608,0.0014585
2454.34171,0.0014859
2453.37733,0.0015101
2452.41295,0.0015120
2451.44857,0.0015123
2450.48419,0.0015337
2449.51982,0.0015651
2448.55544,0.0015840
2447.59106,0.0016074
2446.62668,0.0015922
2445.66230,0.0015264
2444.69793,0.0014640
2443.73355,0.0014313
2442.76917,0.0014791
2441.80479,0.0015570
2440.84041,0.0015805
2439.87604,0.0015530
2438.91166,0.0015182
2437.94728,0.0015204
2436.98290,0.0015367
2436.01853,0.0015592
2435.05415,0.0015921
2434.08977,0.0016436
2433.12539,0.0017029
2432.16101,0.0017346
2431.19664,0.0017754
2430.23226,0.0018079
2429.26788,0.0017869
2428.30350,0.0017383
2427.33912,0.0016830
2426.37475,0.0016027
2425.41037,0.0015134
2424.44599,0.0014824
2423.48161,0.0014996
2422.51724,0.0015150
2421.55286,0.0015130
2420.58848,0.0015146
2419.62410,0.0015125
2418.65972,0.0014758
2417.69535,0.0014450
2416.73097,0.0014177
2415.76659,0.0013682
2414.80221,0.0013142
2413.83783,0.0012869
2412.87346,0.0013124
2411.90908,0.0013686
2410.94470,0.0014233
2409.98032,0.0014709
2409.01594,0.0015317
2408.05157,0.0015440
2407.08719,0.0014926
2406.12281,0.0014758
2405.15843,0.0014686
2404.19406,0.0014476
2403.22968,0.0014448
2402.26530,0.0014706
2401.30092,0.0015195
2400.33654,0.0015696
2399.37217,0.0016268
2398.40779,0.0016690
2397.44341,0.0016976
2396.47903,0.0016978
2395.51465,0.0016557
2394.55028,0.0016196
2393.58590,0.0015781
2392.62152,0.0015472
2391.65714,0.0015337
2390.69276,0.0015052
2389.72839,0.0014824
2388.76401,0.0014845
2387.79963,0.0015191
2386.83525,0.0015411
2385.87088,0.0015403
2384.90650,0.0015546
2383.94212,0.0015697
2382.97774,0.0015894
2382.01336,0.0016107
2381.04899,0.0016442
2380.08461,0.0017151
2379.12023,0.0018058
2378.15585,0.0019331
2377.19147,0.0021077
2376.22710,0.0022803
2375.26272,0.0024312
2374.29834,0.0026043
2373.33396,0.0028203
2372.36959,0.0030436
2371.40521,0.0032370
2370.44083,0.0034055
2369.47645,0.0035978
2368.51207,0.0038021
2367.54770,0.0039592
2366.58332,0.0040731
2365.61894,0.0041540
2364.65456,0.0042007
2363.69018,0.0042338
2362.72581,0.0042764
2361.76143,0.0043299
2360.79705,0.0043520
2359.83267,0.0043273
2358.86829,0.0042880
2357.90392,0.0042320
2356.93954,0.0041296
2355.97516,0.0039773
2355.01078,0.0037646
2354.04641,0.0034767
2353.08203,0.0031646
2352.11765,0.0028844
2351.15327,0.0026677
2350.18889,0.0025488
2349.22452,0.0025115
2348.26014,0.0025519
2347.29576,0.0026735
2346.33138,0.0028473
2345.36700,0.0030833
2344.40263,0.0033399
2343.43825,0.0035075
2342.47387,0.0035537
2341.50949,0.0035606
2340.54512,0.0035954
2339.58074,0.0036179
2338.61636,0.0036136
2337.65198,0.0036032
2336.68760,0.0035707
2335.72323,0.0035289
2334.75885,0.0035064
2333.79447,0.0035166
2332.83009,0.0035335
2331.86571,0.0035036
2330.90134,0.0034311
2329.93696,0.0033609
2328.97258,0.0032982
2328.00820,0.0032141
2327.04382,0.0031126
2326.07945,0.0030004
2325.11507,0.0028476
2324.15069,0.0026971
2323.18631,0.0026221
2322.22194,0.0025892
2321.25756,0.0025544
2320.29318,0.0025093
2319.32880,0.0024425
2318.36442,0.0023636
2317.40005,0.0022884
2316.43567,0.0022261
2315.47129,0.0021593
2314.50691,0.0020603
2313.54253,0.0019258
2312.57816,0.0018239
2311.61378,0.0017909
2310.64940,0.0017381
2309.68502,0.0016484
2308.72065,0.0015508
2307.75627,0.0014619
2306.79189,0.0014343
2305.82751,0.0014713
2304.86313,0.0015222
2303.89876,0.0015403
2302.93438,0.0015598
2301.97000,0.0015779
2301.00562,0.0015990
2300.04124,0.0016547
2299.07687,0.0016588
2298.11249,0.0016087
2297.14811,0.0015022
2296.18373,0.0013738
2295.21935,0.0013371
2294.25498,0.0013441
2293.29060,0.0013373
2292.32622,0.0013161
2291.36184,0.0013674
2290.39747,0.0014746
2289.43309,0.0015484
2288.46871,0.0016437
2287.50433,0.0016769
2286.53995,0.0015658
2285.57558,0.0013408
2284.61120,0.0011569
2283.64682,0.0011123
2282.68244,0.0010424
2281.71806,0.0009693
2280.75369,0.0009762
2279.78931,0.0010479
2278.82493,0.0011363
2277.86055,0.0011936
2276.89618,0.0012685
2275.93180,0.0012583
2274.96742,0.0011284
2274.00304,0.0009487
2273.03866,0.0007726
2272.07429,0.0006928
2271.10991,0.0006274
2270.14553,0.0005511
2269.18115,0.0005440
2268.21677,0.0006123
2267.25240,0.0007573
2266.28802,0.0009390
2265.32364,0.0010655
2264.35926,0.0011198
2263.39488,0.0011709
2262.43051,0.0011724
2261.46613,0.0011649
2260.50175,0.0012565
2259.53737,0.0013343
2258.57300,0.0013241
2257.60862,0.0012517
2256.64424,0.0012002
2255.67986,0.0012183
2254.71548,0.0012033
2253.75111,0.0011284
2252.78673,0.0010808
2251.82235,0.0010470
2250.85797,0.0009580
2249.89359,0.0009801
2248.92922,0.0010798
2247.96484,0.0009571
2247.00046,0.0007288
2246.03608,0.0006213
2245.07171,0.0006878
2244.10733,0.0007975
2243.14295,0.0008113
2242.17857,0.0008042
2241.21419,0.0007276
2240.24982,0.0005656
2239.28544,0.0003943
2238.32106,0.0003194
2237.35668,0.0001988
2236.39230,-0.0001036
2235.42793,-0.0002774
2234.46355,-0.0001994
2233.49917,-0.0000805
2232.53479,-0.0000362
2231.57041,-0.0000192
2230.60604,0.0000211
2229.64166,0.0000140
2228.67728,0.0000002
2227.71290,0.0000020
2226.74853,0.0000039
2225.78415,0.0000058
2224.81977,0.0000076
2223.85539,0.0000095
2222.89101,0.0000113
2221.92664,0.0000132
2220.96226,0.0000151
2219.99788,0.0000169
2219.03350,0.0000188
2218.06912,0.0000206
2217.10475,0.0000225
2216.14037,0.0000244
2215.17599,0.0000262
2214.21161,0.0000281
2213.24724,0.0000299
2212.28286,0.0000318
2211.31848,0.0000337
2210.35410,0.0000355
2209.38972,0.0000374
2208.42535,0.0000392
2207.46097,0.0000411
2206.49659,0.0000430
2205.53221,0.0000448
2204.56783,0.0000467
2203.60346,0.0000485
2202.63908,0.0000504
2201.67470,0.0000523
2200.71032,0.0000541
2199.74594,0.0000560
2198.78157,0.0000578
2197.81719,0.0000597
2196.85281,0.0000616
2195.88843,0.0000634
2194.92406,0.0000653
2193.95968,0.0000671
2192.99530,0.0000690
2192.03092,0.0000709
2191.06654,0.0000727
2190.10217,0.0000746
2189.13779,0.0000764
2188.17341,0.0000783
2187.20903,0.0000801
2186.24465,0.0000820
2185.28028,0.0000839
2184.31590,0.0000857
2183.35152,0.0000876
2182.38714,0.0000894
2181.42276,0.0000913
2180.45839,0.0000932
2179.49401,0.0000950
2178.52963,0.0000969
2177.56525,0.0000987
2176.60088,0.0001006
2175.63650,0.0001025
2174.67212,0.0001043
2173.70774,0.0001062
2172.74336,0.0001080
2171.77899,0.0001099
2170.81461,0.0001118
2169.85023,0.0001136
2168.88585,0.0001155
2167.92147,0.0001173
2166.95710,0.0001192
2165.99272,0.0001211
2165.02834,0.0001229
2164.06396,0.0001248
2163.09959,0.0001266
2162.13521,0.0001285
2161.17083,0.0001304
2160.20645,0.0001322
2159.24207,0.0001341
2158.27770,0.0001359
2157.31332,0.0001378
2156.34894,0.0001397
2155.38456,0.0001415
2154.42018,0.0001434
2153.45581,0.0001452
2152.49143,0.0001471
2151.52705,0.0001490
2150.56267,0.0001508
2149.59829,0.0001527
2148.63392,0.0001545
2147.66954,0.0001564
2146.70516,0.0001583
2145.74078,0.0001601
2144.77641,0.0001620
2143.81203,0.0001638
2142.84765,0.0001657
2141.88327,0.0001676
2140.91889,0.0001694
2139.95452,0.0001713
2138.99014,0.0001731
2138.02576,0.0001750
2137.06138,0.0001769
2136.09700,0.0001787
2135.13263,0.0001806
2134.16825,0.0001824
2133.20387,0.0001843
2132.23949,0.0001862
2131.27512,0.0001880
2130.31074,0.0001899
2129.34636,0.0001917
2128.38198,0.0001936
2127.41760,0.0001955
2126.45323,0.0001973
2125.48885,0.0001992
2124.52447,0.0002010
2123.56009,0.0002029
2122.59571,0.0002047
2121.63134,0.0002066
2120.66696,0.0002085
2119.70258,0.0002103
2118.73820,0.0002122
2117.77382,0.0002140
2116.80945,0.0002159
2115.84507,0.0002178
2114.88069,0.0002196
2113.91631,0.0002215
2112.95194,0.0002233
2111.98756,0.0002252
2111.02318,0.0002271
2110.05880,0.0002289
2109.09442,0.0002308
2108.13005,0.0002326
2107.16567,0.0002345
2106.20129,0.0002364
2105.23691,0.0002382
2104.27253,0.0002401
2103.30816,0.0002419
2102.34378,0.0002438
2101.37940,0.0002457
2100.41502,0.0002475
2099.45065,0.0002494
2098.48627,0.0002512
2097.52189,0.0002531
2096.55751,0.0002550
2095.59313,0.0002568
2094.62876,0.0002587
2093.66438,0.0002605
2092.70000,0.0002624
2091.73562,0.0002643
2090.77124,0.0002661
2089.80687,0.0002680
2088.84249,0.0002698
2087.87811,0.0002717
2086.91373,0.0002736
2085.94935,0.0002754
2084.98498,0.0002773
2084.02060,0.0002791
2083.05622,0.0002810
2082.09184,0.0002829
2081.12747,0.0002847
2080.16309,0.0002866
2079.19871,0.0002884
2078.23433,0.0002903
2077.26995,0.0002922
2076.30558,0.0002940
2075.34120,0.0002959
2074.37682,0.0002977
2073.41244,0.0002996
2072.44806,0.0003015
2071.48369,0.0003033
2070.51931,0.0003052
2069.55493,0.0003070
2068.59055,0.0003089
2067.62618,0.0003108
2066.66180,0.0003126
2065.69742,0.0003145
2064.73304,0.0003163
2063.76866,0.0003182
2062.80429,0.0003201
2061.83991,0.0003219
2060.87553,0.0003238
2059.91115,0.0003256
2058.94677,0.0003275
2057.98240,0.0003293
2057.01802,0.0003312
2056.05364,0.0003331
2055.08926,0.0003349
2054.12488,0.0003368
2053.16051,0.0003386
2052.19613,0.0003405
2051.23175,0.0003424
2050.26737,0.0003442
2049.30300,0.0003461
2048.33862,0.0003479
2047.37424,0.0003498
2046.40986,0.0003517
2045.44548,0.0003535
2044.48111,0.0003554
2043.51673,0.0003572
2042.55235,0.0003591
2041.58797,0.0003610
2040.62359,0.0003628
2039.65922,0.0003647
2038.69484,0.0003665
2037.73046,0.0003684
2036.76608,0.0003703
2035.80171,0.0003721
2034.83733,0.0003740
2033.87295,0.0003758
2032.90857,0.0003777
2031.94419,0.0003796
2030.97982,0.0003814
2030.01544,0.0003833
2029.05106,0.0003851
2028.08668,0.0003870
2027.12230,0.0003889
2026.15793,0.0003907
2025.19355,0.0003926
2024.22917,0.0003944
2023.26479,0.0003963
2022.30041,0.0003982
2021.33604,0.0004000
2020.37166,0.0004019
2019.40728,0.0004037
2018.44290,0.0004056
2017.47853,0.0004075
2016.51415,0.0004093
2015.54977,0.0004112
2014.58539,0.0004130
2013.62101,0.0004149
2012.65664,0.0004168
2011.69226,0.0004186
2010.72788,0.0004205
2009.76350,0.0004223
2008.79912,0.0004242
2007.83475,0.0004261
2006.87037,0.0004279
2005.90599,0.0004298
2004.94161,0.0004316
2003.97724,0.0004335
2003.01286,0.0004354
2002.04848,0.0004372
2001.08410,0.0004391
2000.11972,0.0004409
1999.15535,0.0004428
1998.19097,0.0004446
1997.22659,0.0004465
1996.26221,0.0004484
1995.29783,0.0004502
1994.33346,0.0004521
1993.36908,0.0004539
1992.40470,0.0004558
1991.44032,0.0004577
1990.47594,0.0004595
1989.51157,0.0004614
1988.54719,0.0004632
1987.58281,0.0004651
1986.61843,0.0004670
1985.65406,0.0004688
1984.68968,0.0004707
1983.72530,0.0004725
1982.76092,0.0004744
1981.79654,0.0004763
1980.83217,0.0004781
1979.86779,0.0004800
1978.90341,0.0004818
1977.93903,0.0004837
1976.97465,0.0004856
1976.01028,0.0004874
1975.04590,0.0004893
1974.08152,0.0004911
1973.11714,0.0004930
1972.15276,0.0004949
1971.18839,0.0004967
1970.22401,0.0004986
1969.25963,0.0005004
1968.29525,0.0005023
1967.33088,0.0005042
1966.36650,0.0005060
1965.40212,0.0005079
1964.43774,0.0005097
1963.47336,0.0005116
1962.50899,0.0005135
1961.54461,0.0005153
1960.58023,0.0005172
1959.61585,0.0005190
1958.65147,0.0005209
1957.68710,0.0005228
1956.72272,0.0005246
1955.75834,0.0005265
1954.79396,0.0005283
1953.82959,0.0005302
1952.86521,0.0005321
1951.90083,0.0005339
1950.93645,0.0005358
1949.97207,0.0005376
1949.00770,0.0005395
1948.04332,0.0005414
1947.07894,0.0005432
1946.11456,0.0005451
1945.15018,0.0005469
1944.18581,0.0005488
1943.22143,0.0005507
1942.25705,0.0005525
1941.29267,0.0005544
1940.32829,0.0005562
1939.36392,0.0005581
1938.39954,0.0005600
1937.43516,0.0005670
1936.47078,0.0005715
1935.50641,0.0005644
1934.54203,0.0005995
1933.57765,0.0006020
1932.61327,0.0005083
1931.64889,0.0003952
1930.68452,0.0003477
1929.72014,0.0003458
1928.75576,0.0003458
1927.79138,0.0003735
1926.82700,0.0004030
1925.86263,0.0004963
1924.89825,0.0006760
1923.93387,0.0008461
1922.96949,0.0009883
1922.00512,0.0010358
1921.04074,0.0010517
1920.07636,0.0010914
1919.11198,0.0011221
1918.14760,0.0011127
1917.18323,0.0010877
1916.21885,0.0011196
1915.25447,0.0011454
1914.29009,0.0011834
1913.32571,0.0012130
1912.36134,0.0011612
1911.39696,0.0010603
1910.43258,0.0009718
1909.46820,0.0009420
1908.50382,0.0008955
1907.53945,0.0008462
1906.57507,0.0008122
1905.61069,0.0007992
1904.64631,0.0008714
1903.68194,0.0009376
1902.71756,0.0009637
1901.75318,0.0009812
1900.78880,0.0009788
1899.82442,0.0009781
1898.86005,0.0010387
1897.89567,0.0011642
1896.93129,0.0013032
1895.96691,0.0014513
1895.00253,0.0015292
1894.03816,0.0015301
1893.07378,0.0015092
1892.10940,0.0014188
1891.14502,0.0012910
1890.18065,0.0011752
1889.21627,0.0010783
1888.25189,0.0010001
1887.28751,0.0009461
1886.32313,0.0009406
1885.35876,0.0009916
1884.39438,0.0010838
1883.43000,0.0011470
1882.46562,0.0011768
1881.50124,0.0012016
1880.53687,0.0011955
1879.57249,0.0011847
1878.60811,0.0011921
1877.64373,0.0011976
1876.67935,0.0011433
1875.71498,0.0010381
1874.75060,0.0009888
1873.78622,0.0010005
1872.82184,0.0010318
1871.85747,0.0010884
1870.89309,0.0011734
1869.92871,0.0012445
1868.96433,0.0012791
1867.99995,0.0013154
1867.03558,0.0013187
1866.07120,0.0012799
1865.10682,0.0012241
1864.14244,0.0011452
1863.17806,0.0010942
1862.21369,0.0010897
1861.24931,0.0011305
1860.28493,0.0012041
1859.32055,0.0012596
1858.35618,0.0012729
1857.39180,0.0012932
1856.42742,0.0013442
1855.46304,0.0013421
1854.49866,0.0013209
1853.53429,0.0013081
1852.56991,0.0012506
1851.60553,0.0012172
1850.64115,0.0012341
1849.67677,0.0012703
1848.71240,0.0013108
1847.74802,0.0013385
1846.78364,0.0013547
1845.81926,0.0013830
1844.85488,0.0014267
1843.89051,0.0014633
1842.92613,0.0015301
1841.96175,0.0015865
1840.99737,0.0015965
1840.03300,0.0016071
1839.06862,0.0015871
1838.10424,0.0015559
1837.13986,0.0015605
1836.17548,0.0015905
1835.21111,0.0016401
1834.24673,0.0016897
1833.28235,0.0017320
1832.31797,0.0017998
1831.35359,0.0018890
1830.38922,0.0019360
1829.42484,0.0019194
1828.46046,0.0018398
1827.49608,0.0017472
1826.53171,0.0017051
1825.56733,0.0016976
1824.60295,0.0017111
1823.63857,0.0017435
1822.67419,0.0018080
1821.70982,0.0018950
1820.74544,0.0019772
1819.78106,0.0020559
1818.81668,0.0021210
1817.85230,0.0021539
1816.88793,0.0021507
1815.92355,0.0021607
1814.95917,0.0021940
1813.99479,0.0022123
1813.03041,0.0022132
1812.06604,0.0022118
1811.10166,0.0022303
1810.13728,0.0022397
1809.17290,0.0022303
1808.20853,0.0022221
1807.24415,0.0022020
1806.27977,0.0021723
1805.31539,0.0021420
1804.35101,0.0021310
1803.38664,0.0021479
1802.42226,0.0021858
1801.45788,0.0022294
1800.49350,0.0022682
1799.52912,0.0023149
1798.56475,0.0023664
1797.60037,0.0024128
1796.63599,0.0024257
1795.67161,0.0024057
1794.70724,0.0023940
1793.74286,0.0023894
1792.77848,0.0023738
1791.81410,0.0023604
1790.84972,0.0023697
1789.88535,0.0023822
1788.92097,0.0023957
1787.95659,0.0024325
1786.99221,0.0024886
1786.02783,0.0025456
1785.06346,0.0025667
1784.09908,0.0025597
1783.13470,0.0025609
1782.17032,0.0025651
1781.20594,0.0025606
1780.24157,0.0025602
1779.27719,0.0025733
1778.31281,0.0025864
1777.34843,0.0026122
1776.38406,0.0026647
1775.41968,0.0027260
1774.45530,0.0027781
1773.49092,0.0028095
1772.52654,0.0028357
1771.56217,0.0028779
1770.59779,0.0029335
1769.63341,0.0029941
1768.66903,0.0030601
1767.70465,0.0031263
1766.74028,0.0031751
1765.77590,0.0032114
1764.81152,0.0032486
1763.84714,0.0032836
1762.88276,0.0033248
1761.91839,0.0033821
1760.95401,0.0034481
1759.98963,0.0035301
1759.02525,0.0036295
1758.06088,0.0037323
1757.09650,0.0038353
1756.13212,0.0039250
1755.16774,0.0040034
1754.20336,0.0040866
1753.23899,0.0041790
1752.27461,0.0042880
1751.31023,0.0044076
1750.34585,0.0045271
1749.38147,0.0046321
1748.41710,0.0047077
1747.45272,0.0047593
1746.48834,0.0047975
1745.52396,0.0048242
1744.55959,0.0048412
1743.59521,0.0048641
1742.63083,0.0048951
1741.66645,0.0049331
1740.70207,0.0049905
1739.73770,0.0050479
1738.77332,0.0050736
1737.80894,0.0050603
1736.84456,0.0050223
1735.88018,0.0049774
1734.91581,0.0049308
1733.95143,0.0048918
1732.98705,0.0048712
1732.02267,0.0048740
1731.05829,0.0048878
1730.09392,0.0049042
1729.12954,0.0049267
1728.16516,0.0049330
1727.20078,0.0049191
1726.23641,0.0049123
1725.27203,0.0049062
1724.30765,0.0048788
1723.34327,0.0048311
1722.37889,0.0047786
1721.41452,0.0047420
1720.45014,0.0047181
1719.48576,0.0046791
1718.52138,0.0046399
1717.55700,0.0046246
1716.59263,0.0046202
1715.62825,0.0046302
1714.66387,0.0046477
1713.69949,0.0046568
1712.73512,0.0046638
1711.77074,0.0046492
1710.80636,0.0046092
1709.84198,0.0045882
1708.87760,0.0045783
1707.91323,0.0045448
1706.94885,0.0045195
1705.98447,0.0045073
1705.02009,0.0044669
1704.05571,0.0044097
1703.09134,0.0043640
1702.12696,0.0043429
1701.16258,0.0043223
1700.19820,0.0042828
1699.23382,0.0042543
1698.26945,0.0042621
1697.30507,0.0042970
1696.34069,0.0043469
1695.37631,0.0044116
1694.41194,0.0044764
1693.44756,0.0045294
1692.48318,0.0045900
1691.51880,0.0046780
1690.55442,0.0047698
1689.59005,0.0048174
1688.62567,0.0048379
1687.66129,0.0048625
1686.69691,0.0049019
1685.73253,0.0049624
1684.76816,0.0050426
1683.80378,0.0051391
1682.83940,0.0052516
1681.87502,0.0053918
1680.91065,0.0055397
1679.94627,0.0056683
1678.98189,0.0057872
1678.01751,0.0058987
1677.05313,0.0060069
1676.08876,0.0061232
1675.12438,0.0062485
1674.16000,0.0063718
1673.19562,0.0065102
1672.23124,0.0066711
1671.26687,0.0068388
1670.30249,0.0070126
1669.33811,0.0071667
1668.37373,0.0072891
1667.40935,0.0074189
1666.44498,0.0075608
1665.48060,0.0076955
1664.51622,0.0078293
1663.55184,0.0079526
1662.58747,0.0080599
1661.62309,0.0081789
1660.65871,0.0083121
1659.69433,0.0084550
1658.72995,0.0085872
1657.76558,0.0086703
1656.80120,0.0087235
1655.83682,0.0087811
1654.87244,0.0088530
1653.90806,0.0089402
1652.94369,0.0090438
1651.97931,0.0091511
1651.01493,0.0092494
1650.05055,0.0093466
1649.08618,0.0094543
1648.12180,0.0095664
1647.15742,0.0096482
1646.19304,0.0096886
1645.22866,0.0097277
1644.26429,0.0097842
1643.29991,0.0098454
1642.33553,0.0099062
1641.37115,0.0099657
1640.40677,0.0100028
1639.44240,0.0100147
1638.47802,0.0100284
1637.51364,0.0100651
1636.54926,0.0101166
1635.58488,0.0101677
1634.62051,0.0102261
1633.65613,0.0102813
1632.69175,0.0103151
1631.72737,0.0103378
1630.76300,0.0103474
1629.79862,0.0103339
1628.83424,0.0102956
1627.86986,0.0102409
1626.90548,0.0101872
1625.94111,0.0101410
1624.97673,0.0100896
1624.01235,0.0100296
1623.04797,0.0099756
1622.08359,0.0098987
1621.11922,0.0097747
1620.15484,0.0096478
1619.19046,0.0095286
1618.22608,0.0094029
1617.26171,0.0092786
1616.29733,0.0091591
1615.33295,0.0090488
1614.36857,0.0089429
1613.40419,0.0088363
1612.43982,0.0087374
1611.47544,0.0086430
1610.51106,0.0085289
1609.54668,0.0083959
1608.58230,0.0082745
1607.61793,0.0081520
1606.65355,0.0080157
1605.68917,0.0079000
1604.72479,0.0078135
1603.76041,0.0077264
1602.79604,0.0076287
1601.83166,0.0075313
1600.86728,0.0074365
1599.90290,0.0073377
1598.93853,0.0072357
1597.97415,0.0071291
1597.00977,0.0070120
1596.04539,0.0068914
1595.08101,0.0067807
1594.11664,0.0066925
1593.15226,0.0066171
1592.18788,0.0065355
1591.22350,0.0064539
1590.25912,0.0063817
1589.29475,0.0063116
1588.33037,0.0062313
1587.36599,0.0061430
1586.40161,0.0060469
1585.43724,0.0059457
1584.47286,0.0058520
1583.50848,0.0057599
1582.54410,0.0056671
1581.57972,0.0055669
1580.61535,0.0054472
1579.65097,0.0053210
1578.68659,0.0052039
1577.72221,0.0051012
1576.75783,0.0050136
1575.79346,0.0049457
1574.82908,0.0048821
1573.86470,0.0048123
1572.90032,0.0047535
1571.93594,0.0047155
1570.97157,0.0046964
1570.00719,0.0046711
1569.04281,0.0046244
1568.07843,0.0045757
1567.11406,0.0045406
1566.14968,0.0045148
1565.18530,0.0044814
1564.22092,0.0044268
1563.25654,0.0043290
1562.29217,0.0041981
1561.32779,0.0040833
1560.36341,0.0040109
1559.39903,0.0039690
1558.43465,0.0039410
1557.47028,0.0039331
1556.50590,0.0039547
1555.54152,0.0040016
1554.57714,0.0040599
1553.61276,0.0041142
1552.64839,0.0041524
1551.68401,0.0041624
1550.71963,0.0041506
1549.75525,0.0041367
1548.79088,0.0041275
1547.82650,0.0041035
1546.86212,0.0040656
1545.89774,0.0040366
1544.93336,0.0039953
1543.96899,0.0039265
1543.00461,0.0038622
1542.04023,0.0038264
1541.07585,0.0038215
1540.11147,0.0038358
1539.14710,0.0038485
1538.18272,0.0038559
1537.21834,0.0038754
1536.25396,0.0039022
1535.28959,0.0039287
1534.32521,0.0039535
1533.36083,0.0039456
1532.39645,0.0039053
1531.43207,0.0038676
1530.46770,0.0038392
1529.50332,0.0038163
1528.53894,0.0037942
1527.57456,0.0037684
1526.61018,0.0037369
1525.64581,0.0037005
1524.68143,0.0036707
1523.71705,0.0036628
1522.75267,0.0036738
1521.78829,0.0036841
1520.82392,0.0036967
1519.85954,0.0037186
1518.89516,0.0037389
1517.93078,0.0037513
1516.96641,0.0037572
1516.00203,0.0037611
1515.03765,0.0037590
1514.07327,0.0037498
1513.10889,0.0037447
1512.14452,0.0037369
1511.18014,0.0036974
1510.21576,0.0036277
1509.25138,0.0035732
1508.28700,0.0035497
1507.32263,0.0035360
1506.35825,0.0035208
1505.39387,0.0035187
1504.42949,0.0035453
1503.46512,0.0035957
1502.50074,0.0036623
1501.53636,0.0037192
1500.57198,0.0037422
1499.60760,0.0037380
1498.64323,0.0037292
1497.67885,0.0037334
1496.71447,0.0037403
1495.75009,0.0037439
1494.78571,0.0037469
1493.82134,0.0037485
1492.85696,0.0037507
1491.89258,0.0037498
1490.92820,0.0037493
1489.96382,0.0037478
1488.99945,0.0037510
1488.03507,0.0037718
1487.07069,0.0038051
1486.10631,0.0038422
1485.14194,0.0038810
1484.17756,0.0039243
1483.21318,0.0039679
1482.24880,0.0040039
1481.28442,0.0040298
1480.32005,0.0040535
1479.35567,0.0040897
1478.39129,0.0041402
1477.42691,0.0041909
1476.46253,0.0042321
1475.49816,0.0042792
1474.53378,0.0043415
1473.56940,0.0044155
1472.60502,0.0044984
1471.64065,0.0045929
1470.67627,0.0046945
1469.71189,0.0047822
1468.74751,0.0048685
1467.78313,0.0049600
1466.81876,0.0050377
1465.85438,0.0050940
1464.89000,0.0051422
1463.92562,0.0052116
1462.96124,0.0052881
1461.99687,0.0053501
1461.03249,0.0054070
1460.06811,0.0054625
1459.10373,0.0055065
1458.13935,0.0055258
1457.17498,0.0055458
1456.21060,0.0055756
1455.24622,0.0056062
1454.28184,0.0056518
1453.31747,0.0057175
1452.35309,0.0057907
1451.38871,0.0058480
1450.42433,0.0058940
1449.45995,0.0059418
1448.49558,0.0059877
1447.53120,0.0060322
1446.56682,0.0060779
1445.60244,0.0061346
1444.63806,0.0061912
1443.67369,0.0062422
1442.70931,0.0062948
1441.74493,0.0063371
1440.78055,0.0063635
1439.81618,0.0063910
1438.85180,0.0064326
1437.88742,0.0064794
1436.92304,0.0065305
1435.95866,0.0065855
1434.99429,0.0066413
1434.02991,0.0066913
1433.06553,0.0067337
1432.10115,0.0067811
1431.13677,0.0068270
1430.17240,0.0068662
1429.20802,0.0069028
1428.24364,0.0069488
1427.27926,0.0070108
1426.31488,0.0070831
1425.35051,0.0071636
1424.38613,0.0072271
1423.42175,0.0072791
1422.45737,0.0073412
1421.49300,0.0074118
1420.52862,0.0074863
1419.56424,0.0075569
1418.59986,0.0076353
1417.63548,0.0077228
1416.67111,0.0078173
1415.70673,0.0079190
1414.74235,0.0080168
1413.77797,0.0081048
1412.81359,0.0081634
1411.84922,0.0082140
1410.88484,0.0082807
1409.92046,0.0083436
1408.95608,0.0083944
1407.99171,0.0084335
1407.02733,0.0084752
1406.06295,0.0085312
1405.09857,0.0085827
1404.13419,0.0086098
1403.16982,0.0086233
1402.20544,0.0086396
1401.24106,0.0086566
1400.27668,0.0086759
1399.31230,0.0086916
1398.34793,0.0086967
1397.38355,0.0086953
1396.41917,0.0086891
1395.45479,0.0086902
1394.49041,0.0087097
1393.52604,0.0087297
1392.56166,0.0087329
1391.59728,0.0087346
1390.63290,0.0087507
1389.66853,0.0087754
1388.70415,0.0087918
1387.73977,0.0087964
1386.77539,0.0087947
1385.81101,0.0087823
1384.84664,0.0087608
1383.88226,0.0087398
1382.91788,0.0087298
1381.95350,0.0087264
1380.98912,0.0087152
1380.02475,0.0086960
1379.06037,0.0086720
1378.09599,0.0086454
1377.13161,0.0086144
1376.16724,0.0085860
1375.20286,0.0085661
1374.23848,0.0085454
1373.27410,0.0085342
1372.30972,0.0085376
1371.34535,0.0085438
1370.38097,0.0085554
1369.41659,0.0085663
1368.45221,0.0085495
1367.48783,0.0085034
1366.52346,0.0084510
1365.55908,0.0083961
1364.59470,0.0083433
1363.63032,0.0083030
1362.66594,0.0082687
1361.70157,0.0082398
1360.73719,0.0082154
1359.77281,0.0081907
1358.80843,0.0081734
1357.84406,0.0081627
1356.87968,0.0081366
1355.91530,0.0080949
1354.95092,0.0080643
1353.98654,0.0080460
1353.02217,0.0080209
1352.05779,0.0079866
1351.09341,0.0079503
1350.12903,0.0079095
1349.16465,0.0078633
1348.20028,0.0078155
1347.23590,0.0077665
1346.27152,0.0077254
1345.30714,0.0076863
1344.34276,0.0076367
1343.37839,0.0075947
1342.41401,0.0075624
1341.44963,0.0075291
1340.48525,0.0074982
1339.52088,0.0074724
1338.55650,0.0074543
1337.59212,0.0074385
1336.62774,0.0074270
1335.66336,0.0074243
1334.69899,0.0074228
1333.73461,0.0074115
1332.77023,0.0073815
1331.80585,0.0073470
1330.84147,0.0073207
1329.87710,0.0072963
1328.91272,0.0072624
1327.94834,0.0072163
1326.98396,0.0071749
1326.01959,0.0071408
1325.05521,0.0071137
1324.09083,0.0070953
1323.12645,0.0070769
1322.16207,0.0070587
1321.19770,0.0070353
1320.23332,0.0070130
1319.26894,0.0069961
1318.30456,0.0069722
1317.34018,0.0069358
1316.37581,0.0068911
1315.41143,0.0068577
1314.44705,0.0068351
1313.48267,0.0068136
1312.51829,0.0068005
1311.55392,0.0067967
1310.58954,0.0068006
1309.62516,0.0068089
1308.66078,0.0068221
1307.69641,0.0068302
1306.73203,0.0068245
1305.76765,0.0068112
1304.80327,0.0067954
1303.83889,0.0067892
1302.87452,0.0067807
1301.91014,0.0067570
1300.94576,0.0067359
1299.98138,0.0067287
1299.01700,0.0067379
1298.05263,0.0067536
1297.08825,0.0067649
1296.12387,0.0067760
1295.15949,0.0067859
1294.19512,0.0067966
1293.23074,0.0068255
1292.26636,0.0068746
1291.30198,0.0069179
1290.33760,0.0069422
1289.37323,0.0069611
1288.40885,0.0069838
1287.44447,0.0069964
1286.48009,0.0069912
1285.51571,0.0069772
1284.55134,0.0069588
1283.58696,0.0069421
1282.62258,0.0069360
1281.65820,0.0069456
1280.69382,0.0069640
1279.72945,0.0069773
1278.76507,0.0069783
1277.80069,0.0069705
1276.83631,0.0069600
1275.87194,0.0069387
1274.90756,0.0069107
1273.94318,0.0068876
1272.97880,0.0068720
1272.01442,0.0068666
1271.05005,0.0068654
1270.08567,0.0068781
1269.12129,0.0069130
1268.15691,0.0069501
1267.19253,0.0069747
1266.22816,0.0069926
1265.26378,0.0070081
1264.29940,0.0070152
1263.33502,0.0070165
1262.37065,0.0070147
1261.40627,0.0070080
1260.44189,0.0069951
1259.47751,0.0069854
1258.51313,0.0069930
1257.54876,0.0070018
1256.58438,0.0070051
1255.62000,0.0070132
1254.65562,0.0070264
1253.69124,0.0070386
1252.72687,0.0070411
1251.76249,0.0070379
1250.79811,0.0070247
1249.83373,0.0070032
1248.86935,0.0069853
1247.90498,0.0069707
1246.94060,0.0069588
1245.97622,0.0069433
1245.01184,0.0069295
1244.04747,0.0069227
1243.08309,0.0069186
1242.11871,0.0069160
1241.15433,0.0069172
1240.18995,0.0069251
1239.22558,0.0069191
1238.26120,0.0069007
1237.29682,0.0068939
1236.33244,0.0068858
1235.36806,0.0068701
1234.40369,0.0068597
1233.43931,0.0068494
1232.47493,0.0068313
1231.51055,0.0068141
1230.54618,0.0068061
1229.58180,0.0068082
1228.61742,0.0068092
1227.65304,0.0067927
1226.68866,0.0067653
1225.72429,0.0067366
1224.75991,0.0067075
1223.79553,0.0066884
1222.83115,0.0066820
1221.86677,0.0066699
1220.90240,0.0066500
1219.93802,0.0066401
1218.97364,0.0066419
1218.00926,0.0066479
1217.04488,0.0066450
1216.08051,0.0066280
1215.11613,0.0066012
1214.15175,0.0065641
1213.18737,0.0065260
1212.22300,0.0064866
1211.25862,0.0064498
1210.29424,0.0064219
1209.32986,0.0063961
1208.36548,0.0063798
1207.40111,0.0063673
1206.43673,0.0063536
1205.47235,0.0063475
1204.50797,0.0063442
1203.54359,0.0063383
1202.57922,0.0063295
1201.61484,0.0063277
1200.65046,0.0063344
1199.68608,0.0063479
1198.72171,0.0063635
1197.75733,0.0063700
1196.79295,0.0063739
1195.82857,0.0063620
1194.86419,0.0063345
1193.89982,0.0063214
1192.93544,0.0063125
1191.97106,0.0062999
1191.00668,0.0063009
1190.04230,0.0063217
1189.07793,0.0063523
1188.11355,0.0063793
1187.14917,0.0063994
1186.18479,0.0064224
1185.22041,0.0064501
1184.25604,0.0064610
1183.29166,0.0064692
1182.32728,0.0064978
1181.36290,0.0065250
1180.39853,0.0065501
1179.43415,0.0065851
1178.46977,0.0066230
1177.50539,0.0066447
1176.54101,0.0066387
1175.57664,0.0066205
1174.61226,0.0066090
1173.64788,0.0066114
1172.68350,0.0066186
1171.71912,0.0066324
1170.75475,0.0066601
1169.79037,0.0066973
1168.82599,0.0067497
1167.86161,0.0068073
1166.89724,0.0068567
1165.93286,0.0068903
1164.96848,0.0069033
1164.00410,0.0069086
1163.03972,0.0069208
1162.07535,0.0069470
1161.11097,0.0069774
1160.14659,0.0070039
1159.18221,0.0070274
1158.21783,0.0070494
1157.25346,0.0070750
1156.28908,0.0070979
1155.32470,0.0071152
1154.36032,0.0071232
1153.39594,0.0071129
1152.43157,0.0071004
1151.46719,0.0071080
1150.50281,0.0071217
1149.53843,0.0071295
1148.57406,0.0071416
1147.60968,0.0071524
1146.64530,0.0071697
1145.68092,0.0072023
1144.71654,0.0072423
1143.75217,0.0072843
1142.78779,0.0073210
1141.82341,0.0073596
1140.85903,0.0074015
1139.89465,0.0074384
1138.93028,0.0074545
1137.96590,0.0074497
1137.00152,0.0074558
1136.03714,0.0074707
1135.07276,0.0074828
1134.10839,0.0075020
1133.14401,0.0075335
1132.17963,0.0075711
1131.21525,0.0076005
1130.25088,0.0076266
1129.28650,0.0076521
1128.32212,0.0076642
1127.35774,0.0076639
1126.39336,0.0076677
1125.42899,0.0076849
1124.46461,0.0077053
1123.50023,0.0077329
1122.53585,0.0077848
1121.57147,0.0078495
1120.60710,0.0079063
1119.64272,0.0079528
1118.67834,0.0079916
1117.71396,0.0080263
1116.74959,0.0080461
1115.78521,0.0080459
1114.82083,0.0080365
1113.85645,0.0080123
1112.89207,0.0079852
1111.92770,0.0079763
1110.96332,0.0079752
1109.99894,0.0079737
1109.03456,0.0079863
1108.07018,0.0080110
1107.10581,0.0080276
1106.14143,0.0080481
1105.17705,0.0080746
1104.21267,0.0080862
1103.24829,0.0080851
1102.28392,0.0080691
1101.31954,0.0080402
1100.35516,0.0080190
1099.39078,0.0080104
1098.42641,0.0080123
1097.46203,0.0080282
1096.49765,0.0080417
1095.53327,0.0080465
1094.56889,0.0080615
1093.60452,0.0080788
1092.64014,0.0080833
1091.67576,0.0080731
1090.71138,0.0080408
1089.74700,0.0079922
1088.78263,0.0079561
1087.81825,0.0079406
1086.85387,0.0079224
1085.88949,0.0079056
1084.92512,0.0079070
1083.96074,0.0079216
1082.99636,0.0079386
1082.03198,0.0079497
1081.06760,0.0079495
1080.10323,0.0079477
1079.13885,0.0079633
1078.17447,0.0079737
1077.21009,0.0079607
1076.24571,0.0079396
1075.28134,0.0079104
1074.31696,0.0078793
1073.35258,0.0078597
1072.38820,0.0078483
1071.42382,0.0078288
1070.45945,0.0077875
1069.49507,0.0077333
1068.53069,0.0077055
1067.56631,0.0077097
1066.60194,0.0076918
1065.63756,0.0076549
1064.67318,0.0076322
1063.70880,0.0076084
1062.74442,0.0075741
1061.78005,0.0075383
1060.81567,0.0075104
1059.85129,0.0074802
1058.88691,0.0074287
1057.92253,0.0073669
1056.95816,0.0073202
1055.99378,0.0072779
1055.02940,0.0072246
1054.06502,0.0071761
1053.10065,0.0071284
1052.13627,0.0070752
1051.17189,0.0070233
1050.20751,0.0069753
1049.24313,0.0069518
1048.27876,0.0069500
1047.31438,0.0069378
1046.35000,0.0069313
1045.38562,0.0069510
1044.42124,0.0069666
1043.45687,0.0069740
1042.49249,0.0069782
1041.52811,0.0069649
1040.56373,0.0069465
1039.59935,0.0069203
1038.63498,0.0068724
1037.67060,0.0068202
1036.70622,0.0067669
1035.74184,0.0066998
1034.77747,0.0066493
1033.81309,0.0066241
1032.84871,0.0065840
1031.88433,0.0065468
1030.91995,0.0065361
1029.95558,0.0065384
1028.99120,0.0065503
1028.02682,0.0065625
1027.06244,0.0065713
1026.09806,0.0065732
1025.13369,0.0065647
1024.16931,0.0065441
1023.20493,0.0065162
1022.24055,0.0064787
1021.27618,0.0064198
1020.31180,0.0063745
1019.34742,0.0063557
1018.38304,0.0063307
1017.41866,0.0062973
1016.45429,0.0062732
1015.48991,0.0062666
1014.52553,0.0062650
1013.56115,0.0062628
1012.59677,0.0062640
1011.63240,0.0062608
1010.66802,0.0062457
1009.70364,0.0062337
1008.73926,0.0062393
1007.77488,0.0062341
1006.81051,0.0062072
1005.84613,0.0061848
1004.88175,0.0061654
1003.91737,0.0061418
1002.95300,0.0061256
1001.98862,0.0061171
1001.02424,0.0061038
1000.05986,0.0060796
999.09548,0.0060523
998.13111,0.0060434
997.16673,0.0060559
996.20235,0.0060658
995.23797,0.0060685
994.27359,0.0060617
993.30922,0.0060322
992.34484,0.0059923
991.38046,0.0059530
990.41608,0.0059166
989.45171,0.0058912
988.48733,0.0058785
987.52295,0.0058844
986.55857,0.0058964
985.59419,0.0059106
984.62982,0.0059369
983.66544,0.0059455
982.70106,0.0059413
981.73668,0.0059472
980.77230,0.0059431
979.80793,0.0059105
978.84355,0.0058689
977.87917,0.0058474
976.91479,0.0058220
975.95041,0.0057845
974.98604,0.0057458
974.02166,0.0057047
973.05728,0.0056676
972.09290,0.0056230
971.12853,0.0055889
970.16415,0.0055654
969.19977,0.0055276
968.23539,0.0054721
967.27101,0.0054228
966.30664,0.0054143
965.34226,0.0053987
964.37788,0.0053667
963.41350,0.0053540
962.44912,0.0053314
961.48475,0.0052896
960.52037,0.0052537
959.55599,0.0052418
958.59161,0.0052359
957.62724,0.0052241
956.66286,0.0051961
955.69848,0.0051516
954.73410,0.0051313
953.76972,0.0051239
952.80535,0.0051180
951.84097,0.0051349
950.87659,0.0051660
949.91221,0.0051878
948.94783,0.0052043
947.98346,0.0052279
947.01908,0.0052314
946.05470,0.0052029
945.09032,0.0051334
944.12594,0.0050274
943.16157,0.0049452
942.19719,0.0049031
941.23281,0.0048588
940.26843,0.0048167
939.30406,0.0048058
938.33968,0.0048013
937.37530,0.0048035
936.41092,0.0048318
935.44654,0.0048567
934.48217,0.0048440
933.51779,0.0048046
932.55341,0.0047809
931.58903,0.0047746
930.62465,0.0047819
929.66028,0.0047821
928.69590,0.0047657
927.73152,0.0047652
926.76714,0.0047618
925.80276,0.0047611
924.83839,0.0047614
923.87401,0.0047265
922.90963,0.0046671
921.94525,0.0046366
920.98088,0.0046638
920.01650,0.0046794
919.05212,0.0046808
918.08774,0.0046978
917.12336,0.0047129
916.15899,0.0047398
915.19461,0.0047577
914.23023,0.0047580
913.26585,0.0047378
912.30147,0.0047014
911.33710,0.0046618
910.37272,0.0046268
909.40834,0.0046109
908.44396,0.0045615
907.47959,0.0045046
906.51521,0.0044956
905.55083,0.0045148
904.58645,0.0045558
903.62207,0.0045890
902.65770,0.0046128
901.69332,0.0046290
900.72894,0.0046230
899.76456,0.0045924
898.80018,0.0045399
897.83581,0.0044954
896.87143,0.0044520
895.90705,0.0044203
894.94267,0.0044341
893.97829,0.0044746
893.01392,0.0045084
892.04954,0.0045295
891.08516,0.0045567
890.12078,0.0045708
889.15641,0.0045760
888.19203,0.0046077
887.22765,0.0046449
886.26327,0.0046886
885.29889,0.0047446
884.33452,0.0047897
883.37014,0.0048016
882.40576,0.0047487
881.44138,0.0046580
880.47700,0.0045942
879.51263,0.0045714
878.54825,0.0045466
877.58387,0.0045104
876.61949,0.0045144
875.65512,0.0045592
874.69074,0.0046398
873.72636,0.0047543
872.76198,0.0048560
871.79760,0.0049187
870.83323,0.0049359
869.86885,0.0049464
868.90447,0.0049833
867.94009,0.0050136
866.97571,0.0050020
866.01134,0.0049500
865.04696,0.0048891
864.08258,0.0048399
863.11820,0.0048394
862.15382,0.0048849
861.18945,0.0049255
860.22507,0.0049638
859.26069,0.0050058
858.29631,0.0050539
857.33194,0.0050986
856.36756,0.0051300
855.40318,0.0051650
854.43880,0.0051685
853.47442,0.0051249
852.51005,0.0050858
851.54567,0.0050875
850.58129,0.0051091
849.61691,0.0051253
848.65253,0.0051686
847.68816,0.0052526
846.72378,0.0053397
845.75940,0.0053878
844.79502,0.0053854
843.83065,0.0053548
842.86627,0.0052953
841.90189,0.0052082
840.93751,0.0051255
839.97313,0.0050727
839.00876,0.0050572
838.04438,0.0050647
837.08000,0.0051000
836.11562,0.0051714
835.15124,0.0052379
834.18687,0.0052654
833.22249,0.0052669
832.25811,0.0052649
831.29373,0.0052484
830.32935,0.0052133
829.36498,0.0051840
828.40060,0.0051730
827.43622,0.0051930
826.47184,0.0052159
825.50747,0.0052185
824.54309,0.0052174
823.57871,0.0051831
822.61433,0.0051303
821.64995,0.0050975
820.68558,0.0050583
819.72120,0.0050273
818.75682,0.0050314
817.79244,0.0050389
816.82806,0.0050470
815.86369,0.0050851
814.89931,0.0051226
813.93493,0.0051368
812.97055,0.0051482
812.00618,0.0051489
811.04180,0.0051403
810.07742,0.0051260
809.11304,0.0051098
808.14866,0.0051222
807.18429,0.0051504
806.21991,0.0051564
805.25553,0.0051387
804.29115,0.0051199
803.32677,0.0051246
802.36240,0.0051338
801.39802,0.0051112
800.43364,0.0050857
799.46926,0.0050823
798.50488,0.0050832
797.54051,0.0050938
796.57613,0.0051162
795.61175,0.0051414
794.64737,0.0051605
793.68300,0.0051628
792.71862,0.0051719
791.75424,0.0052048
790.78986,0.0052142
789.82548,0.0051811
788.86111,0.0051625
787.89673,0.0051397
786.93235,0.0050927
785.96797,0.0050821
785.00359,0.0050754
784.03922,0.0050599
783.07484,0.0050797
782.11046,0.0051210
781.14608,0.0051928
780.18171,0.0052816
779.21733,0.0053618
778.25295,0.0054199
777.28857,0.0054190
776.32419,0.0053643
775.35982,0.0053018
774.39544,0.0052311
773.43106,0.0050893
772.46668,0.0049326
771.50230,0.0048565
770.53793,0.0048349
769.57355,0.0048602
768.60917,0.0049405
767.64479,0.0050622
766.68041,0.0051649
765.71604,0.0052134
764.75166,0.0052448
763.78728,0.0052357
762.82290,0.0051653
761.85853,0.0050529
760.89415,0.0049520
759.92977,0.0049104
758.96539,0.0049088
758.00101,0.0049296
757.03664,0.0049871
756.07226,0.0050861
755.10788,0.0051509
754.14350,0.0051759
753.17912,0.0052109
752.21475,0.0052398
751.25037,0.0052723
750.28599,0.0052658
749.32161,0.0052086
748.35724,0.0051659
747.39286,0.0051545
746.42848,0.0051627
745.46410,0.0051943
744.49972,0.0052545
743.53535,0.0052654
742.57097,0.0052321
741.60659,0.0052369
740.64221,0.0052955
739.67783,0.0053874
738.71346,0.0054469
737.74908,0.0054997
736.78470,0.0055917
735.82032,0.0057048
734.85594,0.0058176
733.89157,0.0058892
732.92719,0.0058846
731.96281,0.0057698
730.99843,0.0056012
730.03406,0.0054622
729.06968,0.0053659
728.10530,0.0053095
727.14092,0.0052963
726.17654,0.0053369
725.21217,0.0054084
724.24779,0.0055133
723.28341,0.0056251
722.31903,0.0056845
721.35465,0.0057062
720.39028,0.0057042
719.42590,0.0056912
718.46152,0.0056837
717.49714,0.0056779
716.53276,0.0056725
715.56839,0.0056736
714.60401,0.0056829
713.63963,0.0056842
712.67525,0.0056881
711.71088,0.0057021
710.74650,0.0057071
709.78212,0.0057069
708.81774,0.0057155
707.85336,0.0057343
706.88899,0.0057644
705.92461,0.0057998
704.96023,0.0058220
703.99585,0.0058438
703.03147,0.0058748
702.06710,0.0059111
701.10272,0.0059742
700.13834,0.0060398
699.17396,0.0060589
698.20959,0.0060419
697.24521,0.0060319
696.28083,0.0060350
695.31645,0.0060348
694.35207,0.0060489
693.38770,0.0060580
692.42332,0.0060436
691.45894,0.0060576
690.49456,0.0061127
689.53018,0.0061640
688.56581,0.0061791
687.60143,0.0061809
686.63705,0.0061980
685.67267,0.0062191
684.70829,0.0062409
683.74392,0.0062559
682.77954,0.0062660
681.81516,0.0062579
680.85078,0.0062327
679.88641,0.0062322
678.92203,0.0062253
677.95765,0.0062041
676.99327,0.0062042
676.02889,0.0062131
675.06452,0.0061775
674.10014,0.0060828
673.13576,0.0061775
672.17138,0.0065096
671.20700,0.0068232
670.24263,0.0070386
669.27825,0.0071771
668.31387,0.0072449
667.34949,0.0072258
666.38512,0.0071247
665.42074,0.0069683
664.45636,0.0067377
663.49198,0.0064419
662.52760,0.0062050
661.56323,0.0062495
660.59885,0.0064383
659.63447,0.0064948
658.67009,0.0064863
657.70571,0.0065003
656.74134,0.0065263
655.77696,0.0065305
654.81258,0.0064970
653.84820,0.0064713
652.88382,0.0064548
651.91945,0.0064596
650.95507,0.0064994
649.99069,0.0065469
649.02631,0.0065729
648.06194,0.0065508
647.09756,0.0065251
646.13318,0.0065299
645.16880,0.0065513
644.20442,0.0065574
643.24005,0.0065167
642.27567,0.0064935
641.31129,0.0065344
640.34691,0.0066102
639.38253,0.0067064
638.41816,0.0067962
637.45378,0.0068508
636.48940,0.0068591
635.52502,0.0068536
634.56065,0.0068827
633.59627,0.0069076
632.63189,0.0068783
631.66751,0.0068776
630.70313,0.0070042
629.73876,0.0071265
628.77438,0.0070988
627.81000,0.0071203
626.84562,0.0069402
625.88124,0.0065778
624.91687,0.0066359
623.95249,0.0066297
622.98811,0.0063374
622.02373,0.0065131
621.05935,0.0070368
620.09498,0.0073327
619.13060,0.0075571
618.16622,0.0076043
617.20184,0.0070556
616.23747,0.0061257
615.27309,0.0044416
614.30871,0.0022900
613.34433,0.0011365
612.37995,0.0008259
611.41558,0.0011364
610.45120,0.0023225
609.48682,0.0036062
608.52244,0.0045480
607.55806,0.0053682
606.59369,0.0059581
605.62931,0.0063058
604.66493,0.0064722
603.70055,0.0060917
602.73618,0.0054927
601.77180,0.0057075
600.80742,0.0065849
599.84304,0.0073345
598.87866,0.0077245
597.91429,0.0079002
596.94991,0.0078736
595.98553,0.0074924
595.02115,0.0070747
594.05677,0.0069697
593.09240,0.0069681
592.12802,0.0068770
591.16364,0.0066703
590.19926,0.0065089
589.23488,0.0065373
588.27051,0.0066019
587.30613,0.0066859
586.34175,0.0068637
585.37737,0.0070156
584.41300,0.0070034
583.44862,0.0069116
582.48424,0.0069600
581.51986,0.0071486
580.55548,0.0072805
579.59111,0.0072817
578.62673,0.0072899
577.66235,0.0073133
576.69797,0.0072828
575.73359,0.0072755
574.76922,0.0072793
573.80484,0.0072510
572.84046,0.0071832
571.87608,0.0071826
570.91171,0.0073760
569.94733,0.0075978
568.98295,0.0076594
568.01857,0.0075809
567.05419,0.0074501
566.08982,0.0072526
565.12544,0.0070247
564.16106,0.0069009
563.19668,0.0068674
562.23230,0.0068519
561.26793,0.0068539
560.30355,0.0069333
559.33917,0.0070839
558.37479,0.0072097
557.41041,0.0072453
556.44604,0.0072163
555.48166,0.0071766
554.51728,0.0070707
553.55290,0.0069071
552.58853,0.0067827
551.62415,0.0067199
550.65977,0.0066592
549.69539,0.0065821
548.73101,0.0065320
547.76664,0.0064943
546.80226,0.0065027
545.83788,0.0065457
544.87350,0.0065972
543.90912,0.0066784
542.94475,0.0067472
541.98037,0.0068760
541.01599,0.0070898
540.05161,0.0072760
539.08724,0.0073973
538.12286,0.0074861
537.15848,0.0075359
536.19410,0.0075296
535.22972,0.0075194
534.26535,0.0074521
533.30097,0.0073093
532.33659,0.0072120
531.37221,0.0071924
530.40783,0.0071998
529.44346,0.0071180
528.47908,0.0069521
527.51470,0.0068710
526.55032,0.0068655
525.58594,0.0068062
524.62157,0.0067767
523.65719,0.0068818
522.69281,0.0069898
521.72843,0.0070706
520.76406,0.0071873
519.79968,0.0072345
518.83530,0.0071540
517.87092,0.0070301
516.90654,0.0070055
515.94217,0.0070870
514.97779,0.0070832
514.01341,0.0069906
513.04903,0.0069629
512.08465,0.0069649
511.12028,0.0068986
510.15590,0.0067911
509.19152,0.0066943
508.22714,0.0066213
507.26276,0.0066117
506.29839,0.0066484
505.33401,0.0066711
504.36963,0.0066561
503.40525,0.0066176
502.44088,0.0066518
501.47650,0.0067170
500.51212,0.0067181
499.54774,0.0067234
498.58336,0.0067546
497.61899,0.0067858
496.65461,0.0068031
495.69023,0.0068244
494.72585,0.0068331
493.76147,0.0067844
492.79710,0.0067182
491.83272,0.0066201
490.86834,0.0065045
489.90396,0.0063921
488.93959,0.0062703
487.97521,0.0062333
487.01083,0.0062907
486.04645,0.0063224
485.08207,0.0062869
484.11770,0.0063036
483.15332,0.0064281
482.18894,0.0065526
481.22456,0.0065676
480.26018,0.0064802
479.29581,0.0064378
478.33143,0.0064309
477.36705,0.0064053
476.40267,0.0064407
475.43829,0.0064800
474.47392,0.0064826
473.50954,0.0064833
472.54516,0.0065196
471.58078,0.0066133
470.61641,0.0066262
469.65203,0.0065296
468.68765,0.0064723
467.72327,0.0064605
466.75889,0.0064151
465.79452,0.0063814
464.83014,0.0063911
463.86576,0.0063806
462.90138,0.0064256
461.93700,0.0065258
460.97263,0.0065441
460.00825,0.0065629
459.04387,0.0066129
458.07949,0.0066309
457.11512,0.0066650
456.15074,0.0066821
455.18636,0.0066767
454.22198,0.0066995
453.25760,0.0067190
452.29323,0.0066830
451.32885,0.0065960
450.36447,0.0065006
449.40009,0.0064034
448.43571,0.0064041
447.47134,0.0065061
446.50696,0.0065467
445.54258,0.0065536
444.57820,0.0065363
443.61382,0.0064538
442.64945,0.0063800
441.68507,0.0063177
440.72069,0.0062222
439.75631,0.0061051
438.79194,0.0060424
437.82756,0.0060211
436.86318,0.0060071
435.89880,0.0060678
434.93442,0.0061791
433.97005,0.0062716
433.00567,0.0062799
432.04129,0.0062213
431.07691,0.0061868
430.11253,0.0061786
429.14816,0.0062007
428.18378,0.0062194
427.21940,0.0062026
426.25502,0.0061781
425.29065,0.0061652
424.32627,0.0062034
423.36189,0.0062681
422.39751,0.0062860
421.43313,0.0062113
420.46876,0.0060947
419.50438,0.0060076
418.54000,0.0059462
417.57562,0.0059309
416.61124,0.0059134
415.64687,0.0058450
414.68249,0.0057806
413.71811,0.0057461
412.75373,0.0057252
411.78935,0.0057192
410.82498,0.0057759
409.86060,0.0058797
408.89622,0.0059460
407.93184,0.0059510
406.96747,0.0059595
406.00309,0.0060052
405.03871,0.0060029
404.07433,0.0060029
403.10995,0.0060029
402.14558,0.0060029
401.18120,0.0060029
400.21682,0.0060029
399.25244,0.0060029
