3998.31069,0.0000931
3997.34631,0.0000931
3996.38194,0.0000931
3995.41756,0.0000931
3994.45318,0.0000931
3993.48880,0.0000931
3992.52442,0.0000931
3991.56005,0.0001384
3990.59567,0.0002099
3989.63129,0.0002627
3988.66691,0.0002451
3987.70253,0.0002000
3986.73816,0.0001476
3985.77378,0.0000502
3984.80940,-0.0000968
3983.84502,-0.0001879
3982.88065,-0.0001697
3981.91627,-0.0001482
3980.95189,-0.0001916
3979.98751,-0.0002275
3979.02313,-0.0001954
3978.05876,-0.0001513
3977.09438,-0.0001145
3976.13000,-0.0000564
3975.16562,-0.0000291
3974.20124,-0.0000779
3973.23687,-0.0001613
3972.27249,-0.0002050
3971.30811,-0.0002020
3970.34373,-0.0001908
3969.37935,-0.0001867
3968.41498,-0.0001786
3967.45060,-0.0001269
3966.48622,-0.0000262
3965.52184,0.0000664
3964.55747,0.0001113
3963.59309,0.0001227
3962.62871,0.0000795
3961.66433,-0.0000099
3960.69995,-0.0000667
3959.73558,-0.0000789
3958.77120,-0.0000560
3957.80682,-0.0000353
3956.84244,-0.0000413
3955.87806,-0.0000127
3954.91369,0.0000471
3953.94931,0.0000918
3952.98493,0.0000939
3952.02055,0.0000424
3951.05618,-0.0000356
3950.09180,-0.0001014
3949.12742,-0.0001204
3948.16304,-0.0001206
3947.19866,-0.0001266
3946.23429,-0.0001241
3945.26991,-0.0001324
3944.30553,-0.0001102
3943.34115,-0.0000471
3942.37677,-0.0000287
3941.41240,-0.0000606
3940.44802,-0.0000868
3939.48364,-0.0000618
3938.51926,-0.0000242
3937.55488,0.0000060
3936.59051,0.0000635
3935.62613,0.0000891
3934.66175,0.0001101
3933.69737,0.0001646
3932.73300,0.0002261
3931.76862,0.0002939
3930.80424,0.0003124
3929.83986,0.0003206
3928.87548,0.0003587
3927.91111,0.0003903
3926.94673,0.0003988
3925.98235,0.0003712
3925.01797,0.0003237
3924.05359,0.0002577
3923.08922,0.0002180
3922.12484,0.0001948
3921.16046,0.0001665
3920.19608,0.0002088
3919.23171,0.0003231
3918.26733,0.0004779
3917.30295,0.0006038
3916.33857,0.0006463
3915.37419,0.0006254
3914.40982,0.0005595
3913.44544,0.0004847
3912.48106,0.0003977
3911.51668,0.0002700
3910.55230,0.0001384
3909.58793,0.0000943
3908.62355,0.0001407
3907.65917,0.0002111
3906.69479,0.0002579
3905.73041,0.0002484
3904.76604,0.0002063
3903.80166,0.0001631
3902.83728,0.0001276
3901.87290,0.0000832
3900.90853,0.0000355
3899.94415,-0.0000054
3898.97977,-0.0000034
3898.01539,0.0000624
3897.05101,0.0000629
3896.08664,0.0000076
3895.12226,-0.0000006
3894.15788,0.0000215
3893.19350,0.0000115
3892.22912,-0.0000618
3891.26475,-0.0001436
3890.30037,-0.0001944
3889.33599,-0.0001682
3888.37161,-0.0001004
3887.40724,-0.0000275
3886.44286,0.0000437
3885.47848,0.0000390
3884.51410,0.0000737
3883.54972,0.0001619
3882.58535,0.0001928
3881.62097,0.0001612
3880.65659,0.0000714
3879.69221,0.0000174
3878.72783,0.0000189
3877.76346,0.0000262
3876.79908,0.0000223
3875.83470,-0.0000134
3874.87032,-0.0001099
3873.90594,-0.0002567
3872.94157,-0.0003526
3871.97719,-0.0003820
3871.01281,-0.0003612
3870.04843,-0.0003106
3869.08406,-0.0002365
3868.11968,-0.0000831
3867.15530,0.0000898
3866.19092,0.0002116
3865.22654,0.0003174
3864.26217,0.0004129
3863.29779,0.0004197
3862.33341,0.0003410
3861.36903,0.0002894
3860.40465,0.0003135
3859.44028,0.0003355
3858.47590,0.0003147
3857.51152,0.0003373
3856.54714,0.0003565
3855.58276,0.0003048
3854.61839,0.0002551
3853.65401,0.0002394
3852.68963,0.0002064
3851.72525,0.0001016
3850.76088,-0.0000224
3849.79650,-0.0000954
3848.83212,-0.0000855
3847.86774,-0.0000287
3846.90336,0.0000414
3845.93899,0.0001670
3844.97461,0.0002598
3844.01023,0.0002832
3843.04585,0.0002891
3842.08147,0.0002733
3841.11710,0.0002391
3840.15272,0.0001669
3839.18834,0.0000835
3838.22396,0.0000344
3837.25959,0.0000055
3836.29521,-0.0000444
3835.33083,-0.0000781
3834.36645,-0.0000223
3833.40207,0.0000481
3832.43770,0.0000598
3831.47332,0.0000313
3830.50894,0.0000137
3829.54456,0.0000228
3828.58018,0.0000310
3827.61581,0.0000677
3826.65143,0.0001071
3825.68705,0.0000707
3824.72267,-0.0000006
3823.75829,-0.0000097
3822.79392,0.0000377
3821.82954,0.0000911
3820.86516,0.0001122
3819.90078,0.0000513
3818.93641,-0.0000571
3817.97203,-0.0001448
3817.00765,-0.0001837
3816.04327,-0.0001848
3815.07889,-0.0001973
3814.11452,-0.0002023
3813.15014,-0.0001690
3812.18576,-0.0000700
3811.22138,0.0001357
3810.25700,0.0003644
3809.29263,0.0004849
3808.32825,0.0004918
3807.36387,0.0004781
3806.39949,0.0004945
3805.43512,0.0005086
3804.47074,0.0004900
3803.50636,0.0004243
3802.54198,0.0003276
3801.57760,0.0002508
3800.61323,0.0002381
3799.64885,0.0002870
3798.68447,0.0003093
3797.72009,0.0002773
3796.75571,0.0002549
3795.79134,0.0002480
3794.82696,0.0002527
3793.86258,0.0002347
3792.89820,0.0001704
3791.93382,0.0000972
3790.96945,0.0000098
3790.00507,-0.0000322
3789.04069,-0.0000170
3788.07631,-0.0000465
3787.11194,-0.0001056
3786.14756,-0.0001361
3785.18318,-0.0001296
3784.21880,-0.0001275
3783.25442,-0.0001354
3782.29005,-0.0001092
3781.32567,-0.0000398
3780.36129,0.0000532
3779.39691,0.0001039
3778.43253,0.0001524
3777.46816,0.0002094
3776.50378,0.0001818
3775.53940,0.0001321
3774.57502,0.0001363
3773.61065,0.0001899
3772.64627,0.0002252
3771.68189,0.0002583
3770.71751,0.0003705
3769.75313,0.0004712
3768.78876,0.0005057
3767.82438,0.0004878
3766.86000,0.0004353
3765.89562,0.0003608
3764.93124,0.0002713
3763.96687,0.0002318
3763.00249,0.0002175
3762.03811,0.0001685
3761.07373,0.0001143
3760.10935,0.0001517
3759.14498,0.0002737
3758.18060,0.0003824
3757.21622,0.0004818
3756.25184,0.0005637
3755.28747,0.0006140
3754.32309,0.0006041
3753.35871,0.0005347
3752.39433,0.0004462
3751.42995,0.0003205
3750.46558,0.0001818
3749.50120,0.0001169
3748.53682,0.0001838
3747.57244,0.0002880
3746.60806,0.0003557
3745.64369,0.0004169
3744.67931,0.0005022
3743.71493,0.0006093
3742.75055,0.0005846
3741.78618,0.0004496
3740.82180,0.0003602
3739.85742,0.0003351
3738.89304,0.0003575
3737.92866,0.0004234
3736.96429,0.0005465
3735.99991,0.0006001
3735.03553,0.0005441
3734.07115,0.0005067
3733.10677,0.0005256
3732.14240,0.0005435
3731.17802,0.0004646
3730.21364,0.0003717
3729.24926,0.0003592
3728.28488,0.0003376
3727.32051,0.0002529
3726.35613,0.0001627
3725.39175,0.0001157
3724.42737,0.0000762
3723.46300,0.0000628
3722.49862,0.0001093
3721.53424,0.0002141
3720.56986,0.0003678
3719.60548,0.0005408
3718.64111,0.0007298
3717.67673,0.0008800
3716.71235,0.0009201
3715.74797,0.0008559
3714.78359,0.0007522
3713.81922,0.0006824
3712.85484,0.0007016
3711.89046,0.0007624
3710.92608,0.0007706
3709.96171,0.0007770
3708.99733,0.0008194
3708.03295,0.0008498
3707.06857,0.0008535
3706.10419,0.0008254
3705.13982,0.0007436
3704.17544,0.0006164
3703.21106,0.0005084
3702.24668,0.0004772
3701.28230,0.0005520
3700.31793,0.0006519
3699.35355,0.0007067
3698.38917,0.0007604
3697.42479,0.0007940
3696.46041,0.0007817
3695.49604,0.0007520
3694.53166,0.0007519
3693.56728,0.0007518
3692.60290,0.0007054
3691.63853,0.0006911
3690.67415,0.0007399
3689.70977,0.0008471
3688.74539,0.0010090
3687.78101,0.0011599
3686.81664,0.0012360
3685.85226,0.0012589
3684.88788,0.0012604
3683.92350,0.0012050
3682.95912,0.0011553
3681.99475,0.0011137
3681.03037,0.0010164
3680.06599,0.0009899
3679.10161,0.0010530
3678.13724,0.0011544
3677.17286,0.0013178
3676.20848,0.0014318
3675.24410,0.0014811
3674.27972,0.0015984
3673.31535,0.0017502
3672.35097,0.0018624
3671.38659,0.0019666
3670.42221,0.0020746
3669.45783,0.0021857
3668.49346,0.0023043
3667.52908,0.0023738
3666.56470,0.0024140
3665.60032,0.0024662
3664.63594,0.0024677
3663.67157,0.0024806
3662.70719,0.0025741
3661.74281,0.0026711
3660.77843,0.0027661
3659.81406,0.0029174
3658.84968,0.0031448
3657.88530,0.0033792
3656.92092,0.0035664
3655.95654,0.0037124
3654.99217,0.0038372
3654.02779,0.0039712
3653.06341,0.0040739
3652.09903,0.0041819
3651.13465,0.0043275
3650.17028,0.0044507
3649.20590,0.0046149
3648.24152,0.0048449
3647.27714,0.0050546
3646.31276,0.0051903
3645.34839,0.0052774
3644.38401,0.0053512
3643.41963,0.0053848
3642.45525,0.0054542
3641.49088,0.0056146
3640.52650,0.0058077
3639.56212,0.0060122
3638.59774,0.0061879
3637.63336,0.0063264
3636.66899,0.0064137
3635.70461,0.0064264
3634.74023,0.0064406
3633.77585,0.0064731
3632.81147,0.0065338
3631.84710,0.0066516
3630.88272,0.0068287
3629.91834,0.0070098
3628.95396,0.0071378
3627.98959,0.0072834
3627.02521,0.0073928
3626.06083,0.0074593
3625.09645,0.0075669
3624.13207,0.0076680
3623.16770,0.0077903
3622.20332,0.0078898
3621.23894,0.0080083
3620.27456,0.0081850
3619.31018,0.0082290
3618.34581,0.0081464
3617.38143,0.0080817
3616.41705,0.0080922
3615.45267,0.0080790
3614.48829,0.0080042
3613.52392,0.0079666
3612.55954,0.0079762
3611.59516,0.0080707
3610.63078,0.0081977
3609.66641,0.0083088
3608.70203,0.0083778
3607.73765,0.0083490
3606.77327,0.0083277
3605.80889,0.0083541
3604.84452,0.0083955
3603.88014,0.0084153
3602.91576,0.0083690
3601.95138,0.0083399
3600.98700,0.0083832
3600.02263,0.0084229
3599.05825,0.0084035
3598.09387,0.0083174
3597.12949,0.0081676
3596.16512,0.0080774
3595.20074,0.0080849
3594.23636,0.0081063
3593.27198,0.0081396
3592.30760,0.0082096
3591.34323,0.0083050
3590.37885,0.0083550
3589.41447,0.0083745
3588.45009,0.0083630
3587.48571,0.0083261
3586.52134,0.0083324
3585.55696,0.0083441
3584.59258,0.0083821
3583.62820,0.0084173
3582.66382,0.0084431
3581.69945,0.0085086
3580.73507,0.0085703
3579.77069,0.0086140
3578.80631,0.0085860
3577.84194,0.0085718
3576.87756,0.0086171
3575.91318,0.0086675
3574.94880,0.0087618
3573.98442,0.0088447
3573.02005,0.0089040
3572.05567,0.0088808
3571.09129,0.0087735
3570.12691,0.0086952
3569.16253,0.0086064
3568.19816,0.0084663
3567.23378,0.0083065
3566.26940,0.0082444
3565.30502,0.0082805
3564.34065,0.0083200
3563.37627,0.0083846
3562.41189,0.0085059
3561.44751,0.0086591
3560.48313,0.0087185
3559.51876,0.0087175
3558.55438,0.0087742
3557.59000,0.0088203
3556.62562,0.0087934
3555.66124,0.0087405
3554.69687,0.0087289
3553.73249,0.0087185
3552.76811,0.0087011
3551.80373,0.0087383
3550.83935,0.0088218
3549.87498,0.0089009
3548.91060,0.0089676
3547.94622,0.0090582
3546.98184,0.0091256
3546.01747,0.0091451
3545.05309,0.0091356
3544.08871,0.0091257
3543.12433,0.0091294
3542.15995,0.0090916
3541.19558,0.0090683
3540.23120,0.0091196
3539.26682,0.0092189
3538.30244,0.0093308
3537.33806,0.0094627
3536.37369,0.0095992
3535.40931,0.0096752
3534.44493,0.0097775
3533.48055,0.0099190
3532.51618,0.0100346
3531.55180,0.0101021
3530.58742,0.0100618
3529.62304,0.0100028
3528.65866,0.0099953
3527.69429,0.0100094
3526.72991,0.0100428
3525.76553,0.0100884
3524.80115,0.0101151
3523.83677,0.0101480
3522.87240,0.0102697
3521.90802,0.0104181
3520.94364,0.0105501
3519.97926,0.0106405
3519.01488,0.0106478
3518.05051,0.0106602
3517.08613,0.0106679
3516.12175,0.0106505
3515.15737,0.0106750
3514.19300,0.0107622
3513.22862,0.0108741
3512.26424,0.0109786
3511.29986,0.0111062
3510.33548,0.0112296
3509.37111,0.0113129
3508.40673,0.0113621
3507.44235,0.0114065
3506.47797,0.0114713
3505.51359,0.0115254
3504.54922,0.0115562
3503.58484,0.0115853
3502.62046,0.0116788
3501.65608,0.0117936
3500.69171,0.0118542
3499.72733,0.0119196
3498.76295,0.0119581
3497.79857,0.0119529
3496.83419,0.0119736
3495.86982,0.0120016
3494.90544,0.0120040
3493.94106,0.0120243
3492.97668,0.0120845
3492.01230,0.0121303
3491.04793,0.0121579
3490.08355,0.0121584
3489.11917,0.0121473
3488.15479,0.0121962
3487.19041,0.0122640
3486.22604,0.0123190
3485.26166,0.0123800
3484.29728,0.0124419
3483.33290,0.0125201
3482.36853,0.0126392
3481.40415,0.0128033
3480.43977,0.0129427
3479.47539,0.0130091
3478.51101,0.0130581
3477.54664,0.0131298
3476.58226,0.0132144
3475.61788,0.0132833
3474.65350,0.0133121
3473.68912,0.0133378
3472.72475,0.0133677
3471.76037,0.0133517
3470.79599,0.0133321
3469.83161,0.0133476
3468.86724,0.0133562
3467.90286,0.0133663
3466.93848,0.0134051
3465.97410,0.0134532
3465.00972,0.0135204
3464.04535,0.0136341
3463.08097,0.0137424
3462.11659,0.0138196
3461.15221,0.0138965
3460.18783,0.0139845
3459.22346,0.0140961
3458.25908,0.0141687
3457.29470,0.0141621
3456.33032,0.0141547
3455.36594,0.0141688
3454.40157,0.0141829
3453.43719,0.0142155
3452.47281,0.0142402
3451.50843,0.0142230
3450.54406,0.0142121
3449.57968,0.0142438
3448.61530,0.0142985
3447.65092,0.0143289
3446.68654,0.0143179
3445.72217,0.0143099
3444.75779,0.0143130
3443.79341,0.0143203
3442.82903,0.0143507
3441.86465,0.0144213
3440.90028,0.0145098
3439.93590,0.0145988
3438.97152,0.0146943
3438.00714,0.0147571
3437.04276,0.0148157
3436.07839,0.0148991
3435.11401,0.0149678
3434.14963,0.0149997
3433.18525,0.0149795
3432.22088,0.0149756
3431.25650,0.0150254
3430.29212,0.0150788
3429.32774,0.0151215
3428.36336,0.0151557
3427.39899,0.0151707
3426.43461,0.0151656
3425.47023,0.0151784
3424.50585,0.0152116
3423.54147,0.0152378
3422.57710,0.0152417
3421.61272,0.0152426
3420.64834,0.0152688
3419.68396,0.0152696
3418.71959,0.0152426
3417.75521,0.0152447
3416.79083,0.0152523
3415.82645,0.0152282
3414.86207,0.0152266
3413.89770,0.0152543
3412.93332,0.0152776
3411.96894,0.0153502
3411.00456,0.0154508
3410.04018,0.0155331
3409.07581,0.0155551
3408.11143,0.0155160
3407.14705,0.0155136
3406.18267,0.0155241
3405.21829,0.0155068
3404.25392,0.0154617
3403.28954,0.0154262
3402.32516,0.0154385
3401.36078,0.0154509
3400.39641,0.0154863
3399.43203,0.0155480
3398.46765,0.0155996
3397.50327,0.0156322
3396.53889,0.0156884
3395.57452,0.0157695
3394.61014,0.0157639
3393.64576,0.0157162
3392.68138,0.0156906
3391.71700,0.0156910
3390.75263,0.0157271
3389.78825,0.0157211
3388.82387,0.0156925
3387.85949,0.0157169
3386.89512,0.0158061
3385.93074,0.0159254
3384.96636,0.0160070
3384.00198,0.0160233
3383.03760,0.0159956
3382.07323,0.0159631
3381.10885,0.0159263
3380.14447,0.0158717
3379.18009,0.0157933
3378.21571,0.0157140
3377.25134,0.0156835
3376.28696,0.0156889
3375.32258,0.0157011
3374.35820,0.0157101
3373.39382,0.0157241
3372.42945,0.0157555
3371.46507,0.0157703
3370.50069,0.0157672
3369.53631,0.0157777
3368.57194,0.0157907
3367.60756,0.0158112
3366.64318,0.0158602
3365.67880,0.0158995
3364.71442,0.0158674
3363.75005,0.0157895
3362.78567,0.0157342
3361.82129,0.0156844
3360.85691,0.0155947
3359.89253,0.0154876
3358.92816,0.0154372
3357.96378,0.0154329
3356.99940,0.0154224
3356.03502,0.0154136
3355.07065,0.0153743
3354.10627,0.0153063
3353.14189,0.0152217
3352.17751,0.0151513
3351.21313,0.0151600
3350.24876,0.0151597
3349.28438,0.0151137
3348.32000,0.0150839
3347.35562,0.0150973
3346.39124,0.0151812
3345.42687,0.0152739
3344.46249,0.0152845
3343.49811,0.0152437
3342.53373,0.0152363
3341.56935,0.0152434
3340.60498,0.0152723
3339.64060,0.0153184
3338.67622,0.0153084
3337.71184,0.0152687
3336.74747,0.0151783
3335.78309,0.0150780
3334.81871,0.0150588
3333.85433,0.0150411
3332.88995,0.0150074
3331.92558,0.0150304
3330.96120,0.0151044
3329.99682,0.0151875
3329.03244,0.0152774
3328.06806,0.0153350
3327.10369,0.0153603
3326.13931,0.0153671
3325.17493,0.0152788
3324.21055,0.0151474
3323.24618,0.0150385
3322.28180,0.0149633
3321.31742,0.0149318
3320.35304,0.0148745
3319.38866,0.0148013
3318.42429,0.0147630
3317.45991,0.0147682
3316.49553,0.0147862
3315.53115,0.0147990
3314.56677,0.0148198
3313.60240,0.0148002
3312.63802,0.0147659
3311.67364,0.0147848
3310.70926,0.0148492
3309.74488,0.0149081
3308.78051,0.0149051
3307.81613,0.0148830
3306.85175,0.0148930
3305.88737,0.0149203
3304.92300,0.0149562
3303.95862,0.0149601
3302.99424,0.0149053
3302.02986,0.0148326
3301.06548,0.0147805
3300.10111,0.0147422
3299.13673,0.0147002
3298.17235,0.0146484
3297.20797,0.0145572
3296.24359,0.0144821
3295.27922,0.0144792
3294.31484,0.0144856
3293.35046,0.0145056
3292.38608,0.0145076
3291.42171,0.0144727
3290.45733,0.0144737
3289.49295,0.0144645
3288.52857,0.0144344
3287.56419,0.0144173
3286.59982,0.0143884
3285.63544,0.0143677
3284.67106,0.0144046
3283.70668,0.0144496
3282.74230,0.0144274
3281.77793,0.0143961
3280.81355,0.0143512
3279.84917,0.0142910
3278.88479,0.0142762
3277.92041,0.0142665
3276.95604,0.0142543
3275.99166,0.0142396
3275.02728,0.0142340
3274.06290,0.0142557
3273.09853,0.0142662
3272.13415,0.0142225
3271.16977,0.0141280
3270.20539,0.0140744
3269.24101,0.0140586
3268.27664,0.0140517
3267.31226,0.0140770
3266.34788,0.0140807
3265.38350,0.0140689
3264.41912,0.0140793
3263.45475,0.0141010
3262.49037,0.0141019
3261.52599,0.0140713
3260.56161,0.0140577
3259.59724,0.0140744
3258.63286,0.0141100
3257.66848,0.0141524
3256.70410,0.0141922
3255.73972,0.0142267
3254.77535,0.0142233
3253.81097,0.0142023
3252.84659,0.0142055
3251.88221,0.0141892
3250.91783,0.0141256
3249.95346,0.0140651
3248.98908,0.0140449
3248.02470,0.0140015
3247.06032,0.0138846
3246.09594,0.0137922
3245.13157,0.0137768
3244.16719,0.0137738
3243.20281,0.0137426
3242.23843,0.0137072
3241.27406,0.0137217
3240.30968,0.0137530
3239.34530,0.0137677
3238.38092,0.0138145
3237.41654,0.0138675
3236.45217,0.0138578
3235.48779,0.0138115
3234.52341,0.0137940
3233.55903,0.0137902
3232.59465,0.0137575
3231.63028,0.0137014
3230.66590,0.0136526
3229.70152,0.0136367
3228.73714,0.0136493
3227.77276,0.0136873
3226.80839,0.0137490
3225.84401,0.0138085
3224.87963,0.0138520
3223.91525,0.0138860
3222.95088,0.0138884
3221.98650,0.0138578
3221.02212,0.0138439
3220.05774,0.0138349
3219.09336,0.0137983
3218.12899,0.0137478
3217.16461,0.0137090
3216.20023,0.0136834
3215.23585,0.0136500
3214.27147,0.0136198
3213.30710,0.0135895
3212.34272,0.0135685
3211.37834,0.0135605
3210.41396,0.0135403
3209.44959,0.0135136
3208.48521,0.0134638
3207.52083,0.0134284
3206.55645,0.0134266
3205.59207,0.0134025
3204.62770,0.0133557
3203.66332,0.0133121
3202.69894,0.0133248
3201.73456,0.0133710
3200.77018,0.0134087
3199.80581,0.0134431
3198.84143,0.0134342
3197.87705,0.0134227
3196.91267,0.0134436
3195.94829,0.0134882
3194.98392,0.0135189
3194.01954,0.0134838
3193.05516,0.0134539
3192.09078,0.0134463
3191.12641,0.0134245
3190.16203,0.0133729
3189.19765,0.0133143
3188.23327,0.0133046
3187.26889,0.0132979
3186.30452,0.0132930
3185.34014,0.0132924
3184.37576,0.0132583
3183.41138,0.0131960
3182.44700,0.0131150
3181.48263,0.0130657
3180.51825,0.0130194
3179.55387,0.0129539
3178.58949,0.0128866
3177.62512,0.0128076
3176.66074,0.0127603
3175.69636,0.0127210
3174.73198,0.0126814
3173.76760,0.0126607
3172.80323,0.0126206
3171.83885,0.0125801
3170.87447,0.0125844
3169.91009,0.0126373
3168.94571,0.0126823
3167.98134,0.0126997
3167.01696,0.0126950
3166.05258,0.0126682
3165.08820,0.0126584
3164.12382,0.0126349
3163.15945,0.0125756
3162.19507,0.0125250
3161.23069,0.0125087
3160.26631,0.0125279
3159.30194,0.0125498
3158.33756,0.0125462
3157.37318,0.0125209
3156.40880,0.0125020
3155.44442,0.0125096
3154.48005,0.0125122
3153.51567,0.0124781
3152.55129,0.0124281
3151.58691,0.0123871
3150.62253,0.0123721
3149.65816,0.0123779
3148.69378,0.0123456
3147.72940,0.0122519
3146.76502,0.0121361
3145.80065,0.0120390
3144.83627,0.0119711
3143.87189,0.0119216
3142.90751,0.0118820
3141.94313,0.0118615
3140.97876,0.0118807
3140.01438,0.0119101
3139.05000,0.0119422
3138.08562,0.0119727
3137.12124,0.0119541
3136.15687,0.0119285
3135.19249,0.0119381
3134.22811,0.0119613
3133.26373,0.0119715
3132.29935,0.0119484
3131.33498,0.0119057
3130.37060,0.0118674
3129.40622,0.0118311
3128.44184,0.0117648
3127.47747,0.0116869
3126.51309,0.0116131
3125.54871,0.0115395
3124.58433,0.0115076
3123.61995,0.0114988
3122.65558,0.0114818
3121.69120,0.0114631
3120.72682,0.0114459
3119.76244,0.0114226
3118.79806,0.0113885
3117.83369,0.0113506
3116.86931,0.0112837
3115.90493,0.0112163
3114.94055,0.0111945
3113.97618,0.0112184
3113.01180,0.0112549
3112.04742,0.0112489
3111.08304,0.0112241
3110.11866,0.0111841
3109.15429,0.0111245
3108.18991,0.0110793
3107.22553,0.0110392
3106.26115,0.0110013
3105.29677,0.0109676
3104.33240,0.0109700
3103.36802,0.0110203
3102.40364,0.0110729
3101.43926,0.0110900
3100.47488,0.0110523
3099.51051,0.0109816
3098.54613,0.0108905
3097.58175,0.0108108
3096.61737,0.0107749
3095.65300,0.0107641
3094.68862,0.0107697
3093.72424,0.0107788
3092.75986,0.0107747
3091.79548,0.0107681
3090.83111,0.0107967
3089.86673,0.0108566
3088.90235,0.0108822
3087.93797,0.0108448
3086.97359,0.0107892
3086.00922,0.0107287
3085.04484,0.0106413
3084.08046,0.0105738
3083.11608,0.0105362
3082.15171,0.0104882
3081.18733,0.0104283
3080.22295,0.0104068
3079.25857,0.0104590
3078.29419,0.0105136
3077.32982,0.0105522
3076.36544,0.0105898
3075.40106,0.0106037
3074.43668,0.0105897
3073.47230,0.0105581
3072.50793,0.0105542
3071.54355,0.0105515
3070.57917,0.0105181
3069.61479,0.0104522
3068.65041,0.0103567
3067.68604,0.0102904
3066.72166,0.0102617
3065.75728,0.0102471
3064.79290,0.0102070
3063.82853,0.0101541
3062.86415,0.0101246
3061.89977,0.0101029
3060.93539,0.0101048
3059.97101,0.0100828
3059.00664,0.0100124
3058.04226,0.0099263
3057.07788,0.0098493
3056.11350,0.0098284
3055.14912,0.0098366
3054.18475,0.0098121
3053.22037,0.0097446
3052.25599,0.0096934
3051.29161,0.0096622
3050.32724,0.0096467
3049.36286,0.0096916
3048.39848,0.0097175
3047.43410,0.0097073
3046.46972,0.0097148
3045.50535,0.0097104
3044.54097,0.0096855
3043.57659,0.0096632
3042.61221,0.0096259
3041.64783,0.0095215
3040.68346,0.0093998
3039.71908,0.0093309
3038.75470,0.0093176
3037.79032,0.0093508
3036.82594,0.0093793
3035.86157,0.0094091
3034.89719,0.0094457
3033.93281,0.0094394
3032.96843,0.0094048
3032.00406,0.0093986
3031.03968,0.0094082
3030.07530,0.0093577
3029.11092,0.0092992
3028.14654,0.0092935
3027.18217,0.0092735
3026.21779,0.0092405
3025.25341,0.0092182
3024.28903,0.0091964
3023.32465,0.0091685
3022.36028,0.0091063
3021.39590,0.0090156
3020.43152,0.0089332
3019.46714,0.0088737
3018.50276,0.0088115
3017.53839,0.0087468
3016.57401,0.0086918
3015.60963,0.0086452
3014.64525,0.0086359
3013.68088,0.0086428
3012.71650,0.0086472
3011.75212,0.0086450
3010.78774,0.0085994
3009.82336,0.0085365
3008.85899,0.0085053
3007.89461,0.0085267
3006.93023,0.0085534
3005.96585,0.0085395
3005.00147,0.0085169
3004.03710,0.0085009
3003.07272,0.0084737
3002.10834,0.0084043
3001.14396,0.0083151
3000.17959,0.0082188
2999.21521,0.0081082
2998.25083,0.0080350
2997.28645,0.0080031
2996.32207,0.0080036
2995.35770,0.0080235
2994.39332,0.0080526
2993.42894,0.0080871
2992.46456,0.0080964
2991.50018,0.0080876
2990.53581,0.0080592
2989.57143,0.0080436
2988.60705,0.0080412
2987.64267,0.0080165
2986.67829,0.0079887
2985.71392,0.0079434
2984.74954,0.0079135
2983.78516,0.0079084
2982.82078,0.0078908
2981.85641,0.0078641
2980.89203,0.0078154
2979.92765,0.0077625
2978.96327,0.0077257
2977.99889,0.0077102
2977.03452,0.0076855
2976.07014,0.0076317
2975.10576,0.0075813
2974.14138,0.0075396
2973.17700,0.0075226
2972.21263,0.0075174
2971.24825,0.0075164
2970.28387,0.0075391
2969.31949,0.0075667
2968.35512,0.0075903
2967.39074,0.0076060
2966.42636,0.0076143
2965.46198,0.0076051
2964.49760,0.0075849
2963.53323,0.0075645
2962.56885,0.0075173
2961.60447,0.0074642
2960.64009,0.0074265
2959.67571,0.0073769
2958.71134,0.0073142
2957.74696,0.0072696
2956.78258,0.0072400
2955.81820,0.0072071
2954.85382,0.0071799
2953.88945,0.0071508
2952.92507,0.0071174
2951.96069,0.0070870
2950.99631,0.0070526
2950.03194,0.0070273
2949.06756,0.0070304
2948.10318,0.0070408
2947.13880,0.0070570
2946.17442,0.0071108
2945.21005,0.0071673
2944.24567,0.0072035
2943.28129,0.0072396
2942.31691,0.0072654
2941.35253,0.0072935
2940.38816,0.0073324
2939.42378,0.0073523
2938.45940,0.0073612
2937.49502,0.0073970
2936.53065,0.0074300
2935.56627,0.0074357
2934.60189,0.0074470
2933.63751,0.0074597
2932.67313,0.0074709
2931.70876,0.0074810
2930.74438,0.0074763
2929.78000,0.0074688
2928.81562,0.0074752
2927.85124,0.0075018
2926.88687,0.0075327
2925.92249,0.0075381
2924.95811,0.0075042
2923.99373,0.0074541
2923.02935,0.0073985
2922.06498,0.0073296
2921.10060,0.0072579
2920.13622,0.0071719
2919.17184,0.0070733
2918.20747,0.0069940
2917.24309,0.0069649
2916.27871,0.0069649
2915.31433,0.0069372
2914.34995,0.0068811
2913.38558,0.0068092
2912.42120,0.0067237
2911.45682,0.0066193
2910.49244,0.0065196
2909.52806,0.0064535
2908.56369,0.0064040
2907.59931,0.0063905
2906.63493,0.0063974
2905.67055,0.0063928
2904.70618,0.0063906
2903.74180,0.0063940
2902.77742,0.0064061
2901.81304,0.0063864
2900.84866,0.0063302
2899.88429,0.0062730
2898.91991,0.0062146
2897.95553,0.0061812
2896.99115,0.0061691
2896.02677,0.0061415
2895.06240,0.0060807
2894.09802,0.0060107
2893.13364,0.0059656
2892.16926,0.0059416
2891.20488,0.0059296
2890.24051,0.0058970
2889.27613,0.0058538
2888.31175,0.0058447
2887.34737,0.0058575
2886.38300,0.0058660
2885.41862,0.0058436
2884.45424,0.0058044
2883.48986,0.0057889
2882.52548,0.0057936
2881.56111,0.0058033
2880.59673,0.0058110
2879.63235,0.0058065
2878.66797,0.0057771
2877.70359,0.0057492
2876.73922,0.0057654
2875.77484,0.0057993
2874.81046,0.0057799
2873.84608,0.0057190
2872.88171,0.0056875
2871.91733,0.0056881
2870.95295,0.0057078
2869.98857,0.0057219
2869.02419,0.0057107
2868.05982,0.0057108
2867.09544,0.0057323
2866.13106,0.0057808
2865.16668,0.0058572
2864.20230,0.0059331
2863.23793,0.0059797
2862.27355,0.0059984
2861.30917,0.0060258
2860.34479,0.0060518
2859.38041,0.0060631
2858.41604,0.0060506
2857.45166,0.0060217
2856.48728,0.0060260
2855.52290,0.0060395
2854.55853,0.0060514
2853.59415,0.0060803
2852.62977,0.0060998
2851.66539,0.0060997
2850.70101,0.0060793
2849.73664,0.0060381
2848.77226,0.0059694
2847.80788,0.0058789
2846.84350,0.0057868
2845.87912,0.0057135
2844.91475,0.0056659
2843.95037,0.0056227
2842.98599,0.0055933
2842.02161,0.0055751
2841.05724,0.0055548
2840.09286,0.0055534
2839.12848,0.0055644
2838.16410,0.0055676
2837.19972,0.0055549
2836.23535,0.0055269
2835.27097,0.0054969
2834.30659,0.0054790
2833.34221,0.0054662
2832.37783,0.0054546
2831.41346,0.0054406
2830.44908,0.0054112
2829.48470,0.0053989
2828.52032,0.0054171
2827.55594,0.0054379
2826.59157,0.0054507
2825.62719,0.0054450
2824.66281,0.0054122
2823.69843,0.0053632
2822.73406,0.0053220
2821.76968,0.0052842
2820.80530,0.0052456
2819.84092,0.0052150
2818.87654,0.0051947
2817.91217,0.0051982
2816.94779,0.0052186
2815.98341,0.0052451
2815.01903,0.0052546
2814.05465,0.0052294
2813.09028,0.0052023
2812.12590,0.0052007
2811.16152,0.0052147
2810.19714,0.0052096
2809.23276,0.0051926
2808.26839,0.0051906
2807.30401,0.0051873
2806.33963,0.0051673
2805.37525,0.0051464
2804.41088,0.0051312
2803.44650,0.0050978
2802.48212,0.0050717
2801.51774,0.0050833
2800.55336,0.0051106
2799.58899,0.0051334
2798.62461,0.0051443
2797.66023,0.0051592
2796.69585,0.0051708
2795.73147,0.0051689
2794.76710,0.0051636
2793.80272,0.0051638
2792.83834,0.0051805
2791.87396,0.0052006
2790.90959,0.0052212
2789.94521,0.0052308
2788.98083,0.0052187
2788.01645,0.0052074
2787.05207,0.0052004
2786.08770,0.0051815
2785.12332,0.0051509
2784.15894,0.0051418
2783.19456,0.0051411
2782.23018,0.0051279
2781.26581,0.0051258
2780.30143,0.0051220
2779.33705,0.0051127
2778.37267,0.0051119
2777.40829,0.0051093
2776.44392,0.0050875
2775.47954,0.0050478
2774.51516,0.0050072
2773.55078,0.0049851
2772.58641,0.0049760
2771.62203,0.0049478
2770.65765,0.0049263
2769.69327,0.0049170
2768.72889,0.0048899
2767.76452,0.0048742
2766.80014,0.0048833
2765.83576,0.0048940
2764.87138,0.0048843
2763.90700,0.0048851
2762.94263,0.0049161
2761.97825,0.0049419
2761.01387,0.0049586
2760.04949,0.0049695
2759.08512,0.0049730
2758.12074,0.0049495
2757.15636,0.0049030
2756.19198,0.0048742
2755.22760,0.0048549
2754.26323,0.0048252
2753.29885,0.0047922
2752.33447,0.0047756
2751.37009,0.0047635
2750.40571,0.0047503
2749.44134,0.0047570
2748.47696,0.0047664
2747.51258,0.0047669
2746.54820,0.0047628
2745.58382,0.0047596
2744.61945,0.0047567
2743.65507,0.0047407
2742.69069,0.0047003
2741.72631,0.0046508
2740.76194,0.0046238
2739.79756,0.0046059
2738.83318,0.0045987
2737.86880,0.0046125
2736.90442,0.0046221
2735.94005,0.0046228
2734.97567,0.0046184
2734.01129,0.0046083
2733.04691,0.0045869
2732.08253,0.0045575
2731.11816,0.0045208
2730.15378,0.0044870
2729.18940,0.0044730
2728.22502,0.0044459
2727.26065,0.0044024
2726.29627,0.0043657
2725.33189,0.0043317
2724.36751,0.0043165
2723.40313,0.0043265
2722.43876,0.0043443
2721.47438,0.0043732
2720.51000,0.0044093
2719.54562,0.0044300
2718.58124,0.0044332
2717.61687,0.0044126
2716.65249,0.0043706
2715.68811,0.0043253
2714.72373,0.0042771
2713.75935,0.0042310
2712.79498,0.0041919
2711.83060,0.0041741
2710.86622,0.0041922
2709.90184,0.0042327
2708.93747,0.0042770
2707.97309,0.0043248
2707.00871,0.0043705
2706.04433,0.0043905
2705.07995,0.0044037
2704.11558,0.0044140
2703.15120,0.0043863
2702.18682,0.0043294
2701.22244,0.0042716
2700.25806,0.0042379
2699.29369,0.0042286
2698.32931,0.0042309
2697.36493,0.0042417
2696.40055,0.0042507
2695.43618,0.0042499
2694.47180,0.0042373
2693.50742,0.0042248
2692.54304,0.0042124
2691.57866,0.0041788
2690.61429,0.0041227
2689.64991,0.0040689
2688.68553,0.0040239
2687.72115,0.0039843
2686.75677,0.0039676
2685.79240,0.0039636
2684.82802,0.0039567
2683.86364,0.0039472
2682.89926,0.0039234
2681.93488,0.0038905
2680.97051,0.0038734
2680.00613,0.0038729
2679.04175,0.0038652
2678.07737,0.0038523
2677.11300,0.0038406
2676.14862,0.0038465
2675.18424,0.0038890
2674.21986,0.0039451
2673.25548,0.0040006
2672.29111,0.0040235
2671.32673,0.0040041
2670.36235,0.0039878
2669.39797,0.0039896
2668.43359,0.0040020
2667.46922,0.0040035
2666.50484,0.0039742
2665.54046,0.0039296
2664.57608,0.0038987
2663.61171,0.0038699
2662.64733,0.0038339
2661.68295,0.0038027
2660.71857,0.0037606
2659.75419,0.0037316
2658.78982,0.0037290
2657.82544,0.0037314
2656.86106,0.0037487
2655.89668,0.0037720
2654.93230,0.0037921
2653.96793,0.0038060
2653.00355,0.0038058
2652.03917,0.0037847
2651.07479,0.0037346
2650.11041,0.0036694
2649.14604,0.0036160
2648.18166,0.0035832
2647.21728,0.0035515
2646.25290,0.0035293
2645.28853,0.0035197
2644.32415,0.0035253
2643.35977,0.0035705
2642.39539,0.0036147
2641.43101,0.0036303
2640.46664,0.0036307
2639.50226,0.0036163
2638.53788,0.0036017
2637.57350,0.0035947
2636.60912,0.0035752
2635.64475,0.0035365
2634.68037,0.0034957
2633.71599,0.0034472
2632.75161,0.0034042
2631.78724,0.0033757
2630.82286,0.0033437
2629.85848,0.0033327
2628.89410,0.0033420
2627.92972,0.0033444
2626.96535,0.0033402
2626.00097,0.0033286
2625.03659,0.0033103
2624.07221,0.0033103
2623.10783,0.0033317
2622.14346,0.0033374
2621.17908,0.0033274
2620.21470,0.0033152
2619.25032,0.0032981
2618.28594,0.0032814
2617.32157,0.0032678
2616.35719,0.0032499
2615.39281,0.0032221
2614.42843,0.0031866
2613.46406,0.0031489
2612.49968,0.0031467
2611.53530,0.0031725
2610.57092,0.0032011
2609.60654,0.0032671
2608.64217,0.0033387
2607.67779,0.0033716
2606.71341,0.0033997
2605.74903,0.0034299
2604.78465,0.0034129
2603.82028,0.0033623
2602.85590,0.0033157
2601.89152,0.0032632
2600.92714,0.0032281
2599.96276,0.0031996
2598.99839,0.0031775
2598.03401,0.0031774
2597.06963,0.0031496
2596.10525,0.0031243
2595.14088,0.0031349
2594.17650,0.0031188
2593.21212,0.0030720
2592.24774,0.0030417
2591.28336,0.0030056
2590.31899,0.0029782
2589.35461,0.0030013
2588.39023,0.0030055
2587.42585,0.0029632
2586.46147,0.0029153
2585.49710,0.0028841
2584.53272,0.0028902
2583.56834,0.0029312
2582.60396,0.0029735
2581.63959,0.0029826
2580.67521,0.0029783
2579.71083,0.0029884
2578.74645,0.0030244
2577.78207,0.0030560
2576.81770,0.0030295
2575.85332,0.0029543
2574.88894,0.0028694
2573.92456,0.0028010
2572.96018,0.0027185
2571.99581,0.0026314
2571.03143,0.0025751
2570.06705,0.0025558
2569.10267,0.0026149
2568.13829,0.0027024
2567.17392,0.0027855
2566.20954,0.0028862
2565.24516,0.0029707
2564.28078,0.0030314
2563.31641,0.0030482
2562.35203,0.0029963
2561.38765,0.0028831
2560.42327,0.0027612
2559.45889,0.0026787
2558.49452,0.0026126
2557.53014,0.0025434
2556.56576,0.0024956
2555.60138,0.0025192
2554.63700,0.0025775
2553.67263,0.0026261
2552.70825,0.0026935
2551.74387,0.0027392
2550.77949,0.0027382
2549.81512,0.0027406
2548.85074,0.0027894
2547.88636,0.0028674
2546.92198,0.0028800
2545.95760,0.0028200
2544.99323,0.0027801
2544.02885,0.0027693
2543.06447,0.0027496
2542.10009,0.0027139
2541.13571,0.0026659
2540.17134,0.0026122
2539.20696,0.0025232
2538.24258,0.0024251
2537.27820,0.0024155
2536.31382,0.0024606
2535.34945,0.0024701
2534.38507,0.0024937
2533.42069,0.0025952
2532.45631,0.0027208
2531.49194,0.0027957
2530.52756,0.0027793
2529.56318,0.0026767
2528.59880,0.0025361
2527.63442,0.0024068
2526.67005,0.0023484
2525.70567,0.0023589
2524.74129,0.0023860
2523.77691,0.0024235
2522.81253,0.0024637
2521.84816,0.0024781
2520.88378,0.0024535
2519.91940,0.0024048
2518.95502,0.0023211
2517.99065,0.0022136
2517.02627,0.0021976
2516.06189,0.0023327
2515.09751,0.0025382
2514.13313,0.0027192
2513.16876,0.0028365
2512.20438,0.0028679
2511.24000,0.0028271
2510.27562,0.0027649
2509.31124,0.0027004
2508.34687,0.0026550
2507.38249,0.0026013
2506.41811,0.0025203
2505.45373,0.0024965
2504.48935,0.0025115
2503.52498,0.0025114
2502.56060,0.0025102
2501.59622,0.0024586
2500.63184,0.0023604
2499.66747,0.0022962
2498.70309,0.0022745
2497.73871,0.0022797
2496.77433,0.0023457
2495.80995,0.0024255
2494.84558,0.0024528
2493.88120,0.0024982
2492.91682,0.0025684
2491.95244,0.0026390
2490.98806,0.0027117
2490.02369,0.0027039
2489.05931,0.0026316
2488.09493,0.0025711
2487.13055,0.0025205
2486.16618,0.0024715
2485.20180,0.0024445
2484.23742,0.0024182
2483.27304,0.0023644
2482.30866,0.0023583
2481.34429,0.0023830
2480.37991,0.0023630
2479.41553,0.0023284
2478.45115,0.0022878
2477.48677,0.0022354
2476.52240,0.0021780
2475.55802,0.0021450
2474.59364,0.0021382
2473.62926,0.0021460
2472.66488,0.0021873
2471.70051,0.0022168
2470.73613,0.0022250
2469.77175,0.0022022
2468.80737,0.0021080
2467.84300,0.0020030
2466.87862,0.0019293
2465.91424,0.0018506
2464.94986,0.0017815
2463.98548,0.0017823
2463.02111,0.0018431
2462.05673,0.0019697
2461.09235,0.0021363
2460.12797,0.0022377
2459.16359,0.0022946
2458.19922,0.0023081
2457.23484,0.0022441
2456.27046,0.0021702
2455.30608,0.0021110
2454.34171,0.0020601
2453.37733,0.0020330
2452.41295,0.0020471
2451.44857,0.0021181
2450.48419,0.0022226
2449.51982,0.0022756
2448.55544,0.0022578
2447.59106,0.0022264
2446.62668,0.0021522
2445.66230,0.0020631
2444.69793,0.0020308
2443.73355,0.0020144
2442.76917,0.0019918
2441.80479,0.0019895
2440.84041,0.0020296
2439.87604,0.0021066
2438.91166,0.0021794
2437.94728,0.0022098
2436.98290,0.0022010
2436.01853,0.0021682
2435.05415,0.0021217
2434.08977,0.0021122
2433.12539,0.0021296
2432.16101,0.0020899
2431.19664,0.0020067
2430.23226,0.0019734
2429.26788,0.0019956
2428.30350,0.0020365
2427.33912,0.0020936
2426.37475,0.0021046
2425.41037,0.0020592
2424.44599,0.0020382
2423.48161,0.0020602
2422.51724,0.0020862
2421.55286,0.0020986
2420.58848,0.0021346
2419.62410,0.0021814
2418.65972,0.0022031
2417.69535,0.0022083
2416.73097,0.0022017
2415.76659,0.0021788
2414.80221,0.0020999
2413.83783,0.0020058
2412.87346,0.0019691
2411.90908,0.0019557
2410.94470,0.0019396
2409.98032,0.0019511
2409.01594,0.0020137
2408.05157,0.0020428
2407.08719,0.0019909
2406.12281,0.0019428
2405.15843,0.0019247
2404.19406,0.0019169
2403.22968,0.0019198
2402.26530,0.0019526
2401.30092,0.0019923
2400.33654,0.0019994
2399.37217,0.0020002
2398.40779,0.0020172
2397.44341,0.0020803
2396.47903,0.0021382
2395.51465,0.0021132
2394.55028,0.0020542
2393.58590,0.0019939
2392.62152,0.0019392
2391.65714,0.0019042
2390.69276,0.0018864
2389.72839,0.0018562
2388.76401,0.0018096
2387.79963,0.0018109
2386.83525,0.0018539
2385.87088,0.0019193
2384.90650,0.0019841
2383.94212,0.0019970
2382.97774,0.0019941
2382.01336,0.0020132
2381.04899,0.0020953
2380.08461,0.0022552
2379.12023,0.0024456
2378.15585,0.0026542
2377.19147,0.0028709
2376.22710,0.0030703
2375.26272,0.0032314
2374.29834,0.0033971
2373.33396,0.0035968
2372.36959,0.0037786
2371.40521,0.0039412
2370.44083,0.0041055
2369.47645,0.0042872
2368.51207,0.0044846
2367.54770,0.0046645
2366.58332,0.0048156
2365.61894,0.0049260
2364.65456,0.0049989
2363.69018,0.0050557
2362.72581,0.0051316
2361.76143,0.0052214
2360.79705,0.0052667
2359.83267,0.0052714
2358.86829,0.0052450
2357.90392,0.0051575
2356.93954,0.0050087
2355.97516,0.0048021
2355.01078,0.0045028
2354.04641,0.0041083
2353.08203,0.0036917
2352.11765,0.0033198
2351.15327,0.0030404
2350.18889,0.0028893
2349.22452,0.0028754
2348.26014,0.0030051
2347.29576,0.0032192
2346.33138,0.0034526
2345.36700,0.0037137
2344.40263,0.0039477
2343.43825,0.0040714
2342.47387,0.0040849
2341.50949,0.0040589
2340.54512,0.0040712
2339.58074,0.0040926
2338.61636,0.0041116
2337.65198,0.0041583
2336.68760,0.0041874
2335.72323,0.0041897
2334.75885,0.0041908
2333.79447,0.0041924
2332.83009,0.0041790
2331.86571,0.0041385
2330.90134,0.0040796
2329.93696,0.0040178
2328.97258,0.0039761
2328.00820,0.0039211
2327.04382,0.0038439
2326.07945,0.0037356
2325.11507,0.0035569
2324.15069,0.0033980
2323.18631,0.0032904
2322.22194,0.0031937
2321.25756,0.0031192
2320.29318,0.0030467
2319.32880,0.0029733
2318.36442,0.0029022
2317.40005,0.0028422
2316.43567,0.0027962
2315.47129,0.0027538
2314.50691,0.0026868
2313.54253,0.0025711
2312.57816,0.0024937
2311.61378,0.0024684
2310.64940,0.0024405
2309.68502,0.0024003
2308.72065,0.0023197
2307.75627,0.0022261
2306.79189,0.0021649
2305.82751,0.0021403
2304.86313,0.0020854
2303.89876,0.0019710
2302.93438,0.0018479
2301.97000,0.0017229
2301.00562,0.0016607
2300.04124,0.0016784
2299.07687,0.0017008
2298.11249,0.0016898
2297.14811,0.0016319
2296.18373,0.0016140
2295.21935,0.0016893
2294.25498,0.0017628
2293.29060,0.0017261
2292.32622,0.0016189
2291.36184,0.0015749
2290.39747,0.0015861
2289.43309,0.0016360
2288.46871,0.0017182
2287.50433,0.0017202
2286.53995,0.0016079
2285.57558,0.0014318
2284.61120,0.0012844
2283.64682,0.0012178
2282.68244,0.0011584
2281.71806,0.0010788
2280.75369,0.0010421
2279.78931,0.0010507
2278.82493,0.0010251
2277.86055,0.0010369
2276.89618,0.0011263
2275.93180,0.0010931
2274.96742,0.0009598
2274.00304,0.0008226
2273.03866,0.0006505
2272.07429,0.0005960
2271.10991,0.0006779
2270.14553,0.0007753
2269.18115,0.0009191
2268.21677,0.0010640
2267.25240,0.0011964
2266.28802,0.0014492
2265.32364,0.0016880
2264.35926,0.0016997
2263.39488,0.0016553
2262.43051,0.0015857
2261.46613,0.0013505
2260.50175,0.0011234
2259.53737,0.0010143
2258.57300,0.0009952
2257.60862,0.0009959
2256.64424,0.0009179
2255.67986,0.0008951
2254.71548,0.0009915
2253.75111,0.0010438
2252.78673,0.0010044
2251.82235,0.0009424
2250.85797,0.0008438
2249.89359,0.0007366
2248.92922,0.0007333
2247.96484,0.0007989
2247.00046,0.0008668
2246.03608,0.0009595
2245.07171,0.0010847
2244.10733,0.0012319
2243.14295,0.0013852
2242.17857,0.0014469
2241.21419,0.0013289
2240.24982,0.0010923
2239.28544,0.0008634
2238.32106,0.0007017
2237.35668,0.0005464
2236.39230,0.0003242
2235.42793,0.0001641
2234.46355,0.0001979
2233.49917,0.0002810
2232.53479,0.0003095
2231.57041,0.0003634
2230.60604,0.0003989
2229.64166,0.0003784
2228.67728,0.0003637
2227.71290,0.0003621
2226.74853,0.0003605
2225.78415,0.0003589
2224.81977,0.0003573
2223.85539,0.0003557
2222.89101,0.0003541
2221.92664,0.0003525
2220.96226,0.0003509
2219.99788,0.0003493
2219.03350,0.0003477
2218.06912,0.0003461
2217.10475,0.0003445
2216.14037,0.0003429
2215.17599,0.0003413
2214.21161,0.0003397
2213.24724,0.0003381
2212.28286,0.0003365
2211.31848,0.0003349
2210.35410,0.0003333
2209.38972,0.0003317
2208.42535,0.0003301
2207.46097,0.0003285
2206.49659,0.0003269
2205.53221,0.0003253
2204.56783,0.0003237
2203.60346,0.0003221
2202.63908,0.0003205
2201.67470,0.0003189
2200.71032,0.0003173
2199.74594,0.0003157
2198.78157,0.0003141
2197.81719,0.0003125
2196.85281,0.0003109
2195.88843,0.0003093
2194.92406,0.0003076
2193.95968,0.0003060
2192.99530,0.0003044
2192.03092,0.0003028
2191.06654,0.0003012
2190.10217,0.0002996
2189.13779,0.0002980
2188.17341,0.0002964
2187.20903,0.0002948
2186.24465,0.0002932
2185.28028,0.0002916
2184.31590,0.0002900
2183.35152,0.0002884
2182.38714,0.0002868
2181.42276,0.0002852
2180.45839,0.0002836
2179.49401,0.0002820
2178.52963,0.0002804
2177.56525,0.0002788
2176.60088,0.0002772
2175.63650,0.0002756
2174.67212,0.0002740
2173.70774,0.0002724
2172.74336,0.0002708
2171.77899,0.0002692
2170.81461,0.0002676
2169.85023,0.0002660
2168.88585,0.0002644
2167.92147,0.0002628
2166.95710,0.0002612
2165.99272,0.0002596
2165.02834,0.0002580
2164.06396,0.0002564
2163.09959,0.0002548
2162.13521,0.0002532
2161.17083,0.0002516
2160.20645,0.0002500
2159.24207,0.0002484
2158.27770,0.0002467
2157.31332,0.0002451
2156.34894,0.0002435
2155.38456,0.0002419
2154.42018,0.0002403
2153.45581,0.0002387
2152.49143,0.0002371
2151.52705,0.0002355
2150.56267,0.0002339
2149.59829,0.0002323
2148.63392,0.0002307
2147.66954,0.0002291
2146.70516,0.0002275
2145.74078,0.0002259
2144.77641,0.0002243
2143.81203,0.0002227
2142.84765,0.0002211
2141.88327,0.0002195
2140.91889,0.0002179
2139.95452,0.0002163
2138.99014,0.0002147
2138.02576,0.0002131
2137.06138,0.0002115
2136.09700,0.0002099
2135.13263,0.0002083
2134.16825,0.0002067
2133.20387,0.0002051
2132.23949,0.0002035
2131.27512,0.0002019
2130.31074,0.0002003
2129.34636,0.0001987
2128.38198,0.0001971
2127.41760,0.0001955
2126.45323,0.0001939
2125.48885,0.0001923
2124.52447,0.0001907
2123.56009,0.0001891
2122.59571,0.0001875
2121.63134,0.0001858
2120.66696,0.0001842
2119.70258,0.0001826
2118.73820,0.0001810
2117.77382,0.0001794
2116.80945,0.0001778
2115.84507,0.0001762
2114.88069,0.0001746
2113.91631,0.0001730
2112.95194,0.0001714
2111.98756,0.0001698
2111.02318,0.0001682
2110.05880,0.0001666
2109.09442,0.0001650
2108.13005,0.0001634
2107.16567,0.0001618
2106.20129,0.0001602
2105.23691,0.0001586
2104.27253,0.0001570
2103.30816,0.0001554
2102.34378,0.0001538
2101.37940,0.0001522
2100.41502,0.0001506
2099.45065,0.0001490
2098.48627,0.0001474
2097.52189,0.0001458
2096.55751,0.0001442
2095.59313,0.0001426
2094.62876,0.0001410
2093.66438,0.0001394
2092.70000,0.0001378
2091.73562,0.0001362
2090.77124,0.0001346
2089.80687,0.0001330
2088.84249,0.0001314
2087.87811,0.0001298
2086.91373,0.0001282
2085.94935,0.0001265
2084.98498,0.0001249
2084.02060,0.0001233
2083.05622,0.0001217
2082.09184,0.0001201
2081.12747,0.0001185
2080.16309,0.0001169
2079.19871,0.0001153
2078.23433,0.0001137
2077.26995,0.0001121
2076.30558,0.0001105
2075.34120,0.0001089
2074.37682,0.0001073
2073.41244,0.0001057
2072.44806,0.0001041
2071.48369,0.0001025
2070.51931,0.0001009
2069.55493,0.0000993
2068.59055,0.0000977
2067.62618,0.0000961
2066.66180,0.0000945
2065.69742,0.0000929
2064.73304,0.0000913
2063.76866,0.0000897
2062.80429,0.0000881
2061.83991,0.0000865
2060.87553,0.0000849
2059.91115,0.0000833
2058.94677,0.0000817
2057.98240,0.0000801
2057.01802,0.0000785
2056.05364,0.0000769
2055.08926,0.0000753
2054.12488,0.0000737
2053.16051,0.0000721
2052.19613,0.0000705
2051.23175,0.0000689
2050.26737,0.0000673
2049.30300,0.0000656
2048.33862,0.0000640
2047.37424,0.0000624
2046.40986,0.0000608
2045.44548,0.0000592
2044.48111,0.0000576
2043.51673,0.0000560
2042.55235,0.0000544
2041.58797,0.0000528
2040.62359,0.0000512
2039.65922,0.0000496
2038.69484,0.0000480
2037.73046,0.0000464
2036.76608,0.0000448
2035.80171,0.0000432
2034.83733,0.0000416
2033.87295,0.0000400
2032.90857,0.0000384
2031.94419,0.0000368
2030.97982,0.0000352
2030.01544,0.0000336
2029.05106,0.0000320
2028.08668,0.0000304
2027.12230,0.0000288
2026.15793,0.0000272
2025.19355,0.0000256
2024.22917,0.0000240
2023.26479,0.0000224
2022.30041,0.0000208
2021.33604,0.0000192
2020.37166,0.0000176
2019.40728,0.0000160
2018.44290,0.0000144
2017.47853,0.0000128
2016.51415,0.0000112
2015.54977,0.0000096
2014.58539,0.0000080
2013.62101,0.0000064
2012.65664,0.0000047
2011.69226,0.0000031
2010.72788,0.0000015
2009.76350,-0.0000001
2008.79912,-0.0000017
2007.83475,-0.0000033
2006.87037,-0.0000049
2005.90599,-0.0000065
2004.94161,-0.0000081
2003.97724,-0.0000097
2003.01286,-0.0000113
2002.04848,-0.0000129
2001.08410,-0.0000145
2000.11972,-0.0000161
1999.15535,-0.0000177
1998.19097,-0.0000193
1997.22659,-0.0000209
1996.26221,-0.0000225
1995.29783,-0.0000241
1994.33346,-0.0000257
1993.36908,-0.0000273
1992.40470,-0.0000289
1991.44032,-0.0000305
1990.47594,-0.0000321
1989.51157,-0.0000337
1988.54719,-0.0000353
1987.58281,-0.0000369
1986.61843,-0.0000385
1985.65406,-0.0000401
1984.68968,-0.0000417
1983.72530,-0.0000433
1982.76092,-0.0000449
1981.79654,-0.0000465
1980.83217,-0.0000481
1979.86779,-0.0000497
1978.90341,-0.0000513
1977.93903,-0.0000529
1976.97465,-0.0000545
1976.01028,-0.0000562
1975.04590,-0.0000578
1974.08152,-0.0000594
1973.11714,-0.0000610
1972.15276,-0.0000626
1971.18839,-0.0000642
1970.22401,-0.0000658
1969.25963,-0.0000674
1968.29525,-0.0000690
1967.33088,-0.0000706
1966.36650,-0.0000722
1965.40212,-0.0000738
1964.43774,-0.0000754
1963.47336,-0.0000770
1962.50899,-0.0000786
1961.54461,-0.0000802
1960.58023,-0.0000818
1959.61585,-0.0000834
1958.65147,-0.0000850
1957.68710,-0.0000866
1956.72272,-0.0000882
1955.75834,-0.0000898
1954.79396,-0.0000914
1953.82959,-0.0000930
1952.86521,-0.0000946
1951.90083,-0.0000962
1950.93645,-0.0000978
1949.97207,-0.0000994
1949.00770,-0.0001010
1948.04332,-0.0001026
1947.07894,-0.0001042
1946.11456,-0.0001058
1945.15018,-0.0001074
1944.18581,-0.0001090
1943.22143,-0.0001106
1942.25705,-0.0001122
1941.29267,-0.0001138
1940.32829,-0.0001155
1939.36392,-0.0001171
1938.39954,-0.0001187
1937.43516,-0.0001595
1936.47078,-0.0002295
1935.50641,-0.0002248
1934.54203,-0.0000913
1933.57765,0.0001251
1932.61327,0.0003764
1931.64889,0.0006404
1930.68452,0.0008457
1929.72014,0.0009681
1928.75576,0.0010469
1927.79138,0.0010764
1926.82700,0.0009648
1925.86263,0.0007381
1924.89825,0.0005389
1923.93387,0.0004721
1922.96949,0.0005621
1922.00512,0.0007065
1921.04074,0.0008842
1920.07636,0.0010691
1919.11198,0.0012307
1918.14760,0.0014560
1917.18323,0.0016954
1916.21885,0.0018716
1915.25447,0.0018922
1914.29009,0.0018026
1913.32571,0.0017222
1912.36134,0.0016485
1911.39696,0.0015861
1910.43258,0.0015001
1909.46820,0.0014083
1908.50382,0.0013143
1907.53945,0.0012818
1906.57507,0.0013256
1905.61069,0.0013273
1904.64631,0.0013468
1903.68194,0.0013411
1902.71756,0.0012746
1901.75318,0.0012652
1900.78880,0.0013004
1899.82442,0.0013362
1898.86005,0.0013358
1897.89567,0.0012767
1896.93129,0.0011934
1895.96691,0.0011605
1895.00253,0.0011734
1894.03816,0.0011626
1893.07378,0.0011122
1892.10940,0.0010289
1891.14502,0.0009826
1890.18065,0.0010095
1889.21627,0.0010790
1888.25189,0.0011401
1887.28751,0.0011357
1886.32313,0.0011123
1885.35876,0.0011258
1884.39438,0.0011748
1883.43000,0.0012395
1882.46562,0.0012688
1881.50124,0.0012666
1880.53687,0.0013053
1879.57249,0.0013836
1878.60811,0.0014500
1877.64373,0.0015128
1876.67935,0.0015475
1875.71498,0.0015264
1874.75060,0.0015042
1873.78622,0.0015058
1872.82184,0.0015403
1871.85747,0.0016326
1870.89309,0.0017285
1869.92871,0.0017766
1868.96433,0.0017821
1867.99995,0.0017326
1867.03558,0.0016503
1866.07120,0.0015663
1865.10682,0.0014787
1864.14244,0.0013860
1863.17806,0.0013155
1862.21369,0.0013400
1861.24931,0.0014623
1860.28493,0.0016059
1859.32055,0.0017118
1858.35618,0.0017891
1857.39180,0.0018894
1856.42742,0.0019971
1855.46304,0.0020822
1854.49866,0.0021638
1853.53429,0.0022270
1852.56991,0.0022309
1851.60553,0.0022034
1850.64115,0.0021742
1849.67677,0.0021216
1848.71240,0.0020860
1847.74802,0.0020786
1846.78364,0.0020687
1845.81926,0.0020838
1844.85488,0.0021274
1843.89051,0.0021851
1842.92613,0.0022648
1841.96175,0.0023550
1840.99737,0.0024312
1840.03300,0.0024824
1839.06862,0.0024953
1838.10424,0.0025019
1837.13986,0.0025687
1836.17548,0.0026401
1835.21111,0.0026634
1834.24673,0.0026790
1833.28235,0.0026984
1832.31797,0.0027206
1831.35359,0.0027520
1830.38922,0.0028130
1829.42484,0.0028790
1828.46046,0.0029066
1827.49608,0.0029221
1826.53171,0.0029551
1825.56733,0.0030132
1824.60295,0.0030619
1823.63857,0.0030856
1822.67419,0.0031153
1821.70982,0.0031454
1820.74544,0.0031760
1819.78106,0.0032281
1818.81668,0.0032999
1817.85230,0.0033348
1816.88793,0.0033281
1815.92355,0.0033452
1814.95917,0.0033937
1813.99479,0.0034503
1813.03041,0.0034858
1812.06604,0.0035046
1811.10166,0.0035250
1810.13728,0.0035497
1809.17290,0.0035972
1808.20853,0.0036456
1807.24415,0.0036652
1806.27977,0.0036499
1805.31539,0.0036387
1804.35101,0.0036644
1803.38664,0.0036951
1802.42226,0.0037114
1801.45788,0.0037025
1800.49350,0.0036949
1799.52912,0.0037164
1798.56475,0.0037664
1797.60037,0.0038480
1796.63599,0.0039236
1795.67161,0.0039852
1794.70724,0.0040493
1793.74286,0.0041075
1792.77848,0.0041409
1791.81410,0.0041576
1790.84972,0.0041893
1789.88535,0.0042170
1788.92097,0.0042456
1787.95659,0.0042937
1786.99221,0.0043542
1786.02783,0.0044357
1785.06346,0.0045082
1784.09908,0.0045449
1783.13470,0.0045612
1782.17032,0.0045630
1781.20594,0.0045547
1780.24157,0.0045700
1779.27719,0.0046145
1778.31281,0.0046604
1777.34843,0.0047201
1776.38406,0.0048068
1775.41968,0.0049022
1774.45530,0.0049848
1773.49092,0.0050570
1772.52654,0.0051365
1771.56217,0.0052302
1770.59779,0.0053384
1769.63341,0.0054548
1768.66903,0.0055670
1767.70465,0.0056687
1766.74028,0.0057823
1765.77590,0.0059125
1764.81152,0.0060382
1763.84714,0.0061387
1762.88276,0.0062172
1761.91839,0.0063257
1760.95401,0.0064622
1759.98963,0.0065911
1759.02525,0.0067099
1758.06088,0.0068143
1757.09650,0.0069093
1756.13212,0.0070016
1755.16774,0.0071177
1754.20336,0.0072597
1753.23899,0.0073897
1752.27461,0.0075025
1751.31023,0.0076240
1750.34585,0.0077692
1749.38147,0.0079045
1748.41710,0.0079975
1747.45272,0.0080544
1746.48834,0.0081073
1745.52396,0.0081737
1744.55959,0.0082413
1743.59521,0.0083158
1742.63083,0.0083845
1741.66645,0.0084220
1740.70207,0.0084497
1739.73770,0.0085023
1738.77332,0.0085644
1737.80894,0.0085960
1736.84456,0.0085888
1735.88018,0.0085654
1734.91581,0.0085621
1733.95143,0.0085688
1732.98705,0.0085632
1732.02267,0.0085508
1731.05829,0.0085200
1730.09392,0.0084693
1729.12954,0.0084124
1728.16516,0.0083639
1727.20078,0.0083186
1726.23641,0.0082674
1725.27203,0.0082178
1724.30765,0.0081612
1723.34327,0.0080967
1722.37889,0.0080355
1721.41452,0.0079795
1720.45014,0.0079208
1719.48576,0.0078541
1718.52138,0.0077899
1717.55700,0.0077362
1716.59263,0.0076945
1715.62825,0.0076612
1714.66387,0.0076279
1713.69949,0.0075872
1712.73512,0.0075364
1711.77074,0.0074712
1710.80636,0.0074015
1709.84198,0.0073404
1708.87760,0.0072799
1707.91323,0.0072132
1706.94885,0.0071395
1705.98447,0.0070796
1705.02009,0.0070475
1704.05571,0.0070149
1703.09134,0.0069631
1702.12696,0.0069033
1701.16258,0.0068684
1700.19820,0.0068501
1699.23382,0.0068306
1698.26945,0.0068215
1697.30507,0.0068092
1696.34069,0.0067800
1695.37631,0.0067355
1694.41194,0.0067076
1693.44756,0.0067213
1692.48318,0.0067391
1691.51880,0.0067408
1690.55442,0.0067507
1689.59005,0.0068061
1688.62567,0.0068976
1687.66129,0.0069943
1686.69691,0.0070916
1685.73253,0.0071924
1684.76816,0.0072948
1683.80378,0.0073884
1682.83940,0.0074936
1681.87502,0.0076243
1680.91065,0.0077500
1679.94627,0.0078631
1678.98189,0.0079805
1678.01751,0.0081113
1677.05313,0.0082513
1676.08876,0.0083952
1675.12438,0.0085431
1674.16000,0.0087084
1673.19562,0.0088918
1672.23124,0.0090848
1671.26687,0.0092954
1670.30249,0.0095123
1669.33811,0.0097168
1668.37373,0.0099068
1667.40935,0.0101027
1666.44498,0.0103072
1665.48060,0.0105125
1664.51622,0.0107296
1663.55184,0.0109454
1662.58747,0.0111610
1661.62309,0.0113788
1660.65871,0.0115954
1659.69433,0.0118100
1658.72995,0.0120176
1657.76558,0.0122424
1656.80120,0.0124787
1655.83682,0.0127217
1654.87244,0.0129563
1653.90806,0.0131735
1652.94369,0.0133855
1651.97931,0.0135793
1651.01493,0.0137672
1650.05055,0.0139406
1649.08618,0.0140975
1648.12180,0.0142516
1647.15742,0.0144105
1646.19304,0.0145916
1645.22866,0.0147593
1644.26429,0.0149088
1643.29991,0.0150569
1642.33553,0.0151978
1641.37115,0.0153340
1640.40677,0.0154833
1639.44240,0.0156464
1638.47802,0.0157921
1637.51364,0.0159211
1636.54926,0.0160322
1635.58488,0.0161221
1634.62051,0.0161957
1633.65613,0.0162447
1632.69175,0.0162776
1631.72737,0.0162947
1630.76300,0.0162842
1629.79862,0.0162546
1628.83424,0.0162383
1627.86986,0.0162236
1626.90548,0.0161854
1625.94111,0.0161302
1624.97673,0.0160544
1624.01235,0.0159544
1623.04797,0.0158351
1622.08359,0.0157044
1621.11922,0.0155460
1620.15484,0.0153608
1619.19046,0.0151642
1618.22608,0.0149499
1617.26171,0.0147220
1616.29733,0.0144681
1615.33295,0.0141918
1614.36857,0.0139140
1613.40419,0.0136318
1612.43982,0.0133454
1611.47544,0.0130745
1610.51106,0.0128244
1609.54668,0.0125682
1608.58230,0.0123135
1607.61793,0.0120649
1606.65355,0.0118084
1605.68917,0.0115557
1604.72479,0.0113090
1603.76041,0.0110614
1602.79604,0.0108177
1601.83166,0.0105826
1600.86728,0.0103588
1599.90290,0.0101481
1598.93853,0.0099399
1597.97415,0.0097249
1597.00977,0.0095070
1596.04539,0.0092946
1595.08101,0.0090966
1594.11664,0.0089130
1593.15226,0.0087390
1592.18788,0.0085702
1591.22350,0.0084091
1590.25912,0.0082571
1589.29475,0.0081178
1588.33037,0.0079892
1587.36599,0.0078581
1586.40161,0.0077271
1585.43724,0.0075988
1584.47286,0.0074757
1583.50848,0.0073491
1582.54410,0.0072115
1581.57972,0.0070965
1580.61535,0.0070039
1579.65097,0.0069000
1578.68659,0.0067861
1577.72221,0.0066838
1576.75783,0.0065908
1575.79346,0.0064947
1574.82908,0.0064020
1573.86470,0.0063128
1572.90032,0.0062259
1571.93594,0.0061337
1570.97157,0.0060434
1570.00719,0.0059790
1569.04281,0.0059225
1568.07843,0.0058558
1567.11406,0.0057766
1566.14968,0.0056898
1565.18530,0.0056195
1564.22092,0.0055689
1563.25654,0.0055316
1562.29217,0.0054968
1561.32779,0.0054475
1560.36341,0.0053898
1559.39903,0.0053478
1558.43465,0.0053242
1557.47028,0.0052956
1556.50590,0.0052437
1555.54152,0.0051655
1554.57714,0.0050908
1553.61276,0.0050519
1552.64839,0.0050237
1551.68401,0.0049812
1550.71963,0.0049305
1549.75525,0.0048748
1548.79088,0.0048239
1547.82650,0.0047885
1546.86212,0.0047585
1545.89774,0.0047197
1544.93336,0.0046797
1543.96899,0.0046541
1543.00461,0.0046444
1542.04023,0.0046367
1541.07585,0.0046121
1540.11147,0.0045740
1539.14710,0.0045428
1538.18272,0.0045103
1537.21834,0.0044666
1536.25396,0.0044321
1535.28959,0.0044059
1534.32521,0.0043845
1533.36083,0.0043839
1532.39645,0.0043880
1531.43207,0.0043874
1530.46770,0.0043913
1529.50332,0.0043932
1528.53894,0.0043893
1527.57456,0.0043840
1526.61018,0.0043843
1525.64581,0.0043934
1524.68143,0.0044016
1523.71705,0.0043948
1522.75267,0.0043906
1521.78829,0.0044053
1520.82392,0.0044210
1519.85954,0.0044401
1518.89516,0.0044612
1517.93078,0.0044665
1516.96641,0.0044582
1516.00203,0.0044549
1515.03765,0.0044640
1514.07327,0.0044620
1513.10889,0.0044467
1512.14452,0.0044414
1511.18014,0.0044545
1510.21576,0.0044801
1509.25138,0.0045127
1508.28700,0.0045521
1507.32263,0.0045811
1506.35825,0.0045939
1505.39387,0.0046058
1504.42949,0.0046253
1503.46512,0.0046435
1502.50074,0.0046559
1501.53636,0.0046903
1500.57198,0.0047524
1499.60760,0.0048226
1498.64323,0.0048898
1497.67885,0.0049478
1496.71447,0.0050026
1495.75009,0.0050543
1494.78571,0.0051007
1493.82134,0.0051435
1492.85696,0.0051813
1491.89258,0.0052090
1490.92820,0.0052345
1489.96382,0.0052771
1488.99945,0.0053319
1488.03507,0.0053846
1487.07069,0.0054243
1486.10631,0.0054568
1485.14194,0.0055032
1484.17756,0.0055669
1483.21318,0.0056373
1482.24880,0.0057121
1481.28442,0.0057997
1480.32005,0.0058862
1479.35567,0.0059648
1478.39129,0.0060584
1477.42691,0.0061644
1476.46253,0.0062659
1475.49816,0.0063589
1474.53378,0.0064504
1473.56940,0.0065403
1472.60502,0.0066192
1471.64065,0.0066914
1470.67627,0.0067736
1469.71189,0.0068744
1468.74751,0.0069721
1467.78313,0.0070575
1466.81876,0.0071498
1465.85438,0.0072515
1464.89000,0.0073589
1463.92562,0.0074687
1462.96124,0.0075757
1461.99687,0.0076934
1461.03249,0.0078232
1460.06811,0.0079550
1459.10373,0.0080871
1458.13935,0.0082099
1457.17498,0.0083171
1456.21060,0.0084056
1455.24622,0.0084648
1454.28184,0.0085097
1453.31747,0.0085632
1452.35309,0.0086224
1451.38871,0.0086858
1450.42433,0.0087728
1449.45995,0.0088869
1448.49558,0.0090067
1447.53120,0.0091197
1446.56682,0.0092277
1445.60244,0.0093392
1444.63806,0.0094459
1443.67369,0.0095268
1442.70931,0.0095982
1441.74493,0.0096873
1440.78055,0.0097821
1439.81618,0.0098765
1438.85180,0.0099820
1437.88742,0.0100947
1436.92304,0.0102016
1435.95866,0.0102964
1434.99429,0.0103922
1434.02991,0.0104950
1433.06553,0.0105909
1432.10115,0.0106811
1431.13677,0.0107742
1430.17240,0.0108731
1429.20802,0.0109730
1428.24364,0.0110751
1427.27926,0.0111787
1426.31488,0.0112686
1425.35051,0.0113539
1424.38613,0.0114507
1423.42175,0.0115641
1422.45737,0.0116909
1421.49300,0.0118141
1420.52862,0.0119381
1419.56424,0.0120682
1418.59986,0.0121985
1417.63548,0.0123280
1416.67111,0.0124557
1415.70673,0.0125803
1414.74235,0.0126960
1413.77797,0.0128115
1412.81359,0.0129315
1411.84922,0.0130493
1410.88484,0.0131621
1409.92046,0.0132634
1408.95608,0.0133624
1407.99171,0.0134606
1407.02733,0.0135495
1406.06295,0.0136399
1405.09857,0.0137331
1404.13419,0.0138232
1403.16982,0.0139097
1402.20544,0.0139881
1401.24106,0.0140464
1400.27668,0.0140863
1399.31230,0.0141233
1398.34793,0.0141514
1397.38355,0.0141678
1396.41917,0.0141767
1395.45479,0.0141838
1394.49041,0.0141972
1393.52604,0.0142118
1392.56166,0.0142346
1391.59728,0.0142622
1390.63290,0.0142775
1389.66853,0.0142793
1388.70415,0.0142744
1387.73977,0.0142720
1386.77539,0.0142613
1385.81101,0.0142375
1384.84664,0.0142127
1383.88226,0.0141859
1382.91788,0.0141560
1381.95350,0.0141328
1380.98912,0.0141302
1380.02475,0.0141311
1379.06037,0.0141150
1378.09599,0.0140977
1377.13161,0.0140811
1376.16724,0.0140644
1375.20286,0.0140521
1374.23848,0.0140341
1373.27410,0.0140156
1372.30972,0.0140024
1371.34535,0.0139856
1370.38097,0.0139682
1369.41659,0.0139558
1368.45221,0.0139266
1367.48783,0.0138744
1366.52346,0.0138312
1365.55908,0.0137991
1364.59470,0.0137635
1363.63032,0.0137272
1362.66594,0.0136908
1361.70157,0.0136602
1360.73719,0.0136351
1359.77281,0.0136036
1358.80843,0.0135619
1357.84406,0.0135168
1356.87968,0.0134612
1355.91530,0.0133938
1354.95092,0.0133446
1353.98654,0.0133109
1353.02217,0.0132647
1352.05779,0.0132092
1351.09341,0.0131504
1350.12903,0.0130858
1349.16465,0.0130135
1348.20028,0.0129345
1347.23590,0.0128493
1346.27152,0.0127658
1345.30714,0.0126868
1344.34276,0.0126047
1343.37839,0.0125360
1342.41401,0.0124849
1341.44963,0.0124384
1340.48525,0.0123908
1339.52088,0.0123370
1338.55650,0.0122790
1337.59212,0.0122164
1336.62774,0.0121616
1335.66336,0.0121176
1334.69899,0.0120743
1333.73461,0.0120321
1332.77023,0.0119866
1331.80585,0.0119477
1330.84147,0.0119196
1329.87710,0.0118946
1328.91272,0.0118653
1327.94834,0.0118230
1326.98396,0.0117787
1326.01959,0.0117442
1325.05521,0.0117247
1324.09083,0.0117074
1323.12645,0.0116763
1322.16207,0.0116353
1321.19770,0.0115897
1320.23332,0.0115443
1319.26894,0.0114931
1318.30456,0.0114378
1317.34018,0.0113812
1316.37581,0.0113213
1315.41143,0.0112796
1314.44705,0.0112599
1313.48267,0.0112498
1312.51829,0.0112408
1311.55392,0.0112276
1310.58954,0.0112176
1309.62516,0.0112116
1308.66078,0.0112060
1307.69641,0.0111947
1306.73203,0.0111782
1305.76765,0.0111725
1304.80327,0.0111855
1303.83889,0.0112144
1302.87452,0.0112390
1301.91014,0.0112485
1300.94576,0.0112625
1299.98138,0.0112895
1299.01700,0.0113200
1298.05263,0.0113381
1297.08825,0.0113391
1296.12387,0.0113399
1295.15949,0.0113483
1294.19512,0.0113673
1293.23074,0.0113968
1292.26636,0.0114233
1291.30198,0.0114410
1290.33760,0.0114562
1289.37323,0.0114759
1288.40885,0.0114957
1287.44447,0.0115047
1286.48009,0.0115005
1285.51571,0.0114875
1284.55134,0.0114815
1283.58696,0.0114843
1282.62258,0.0114832
1281.65820,0.0114799
1280.69382,0.0114779
1279.72945,0.0114785
1278.76507,0.0114729
1277.80069,0.0114556
1276.83631,0.0114400
1275.87194,0.0114231
1274.90756,0.0113945
1273.94318,0.0113602
1272.97880,0.0113379
1272.01442,0.0113241
1271.05005,0.0113072
1270.08567,0.0113076
1269.12129,0.0113314
1268.15691,0.0113561
1267.19253,0.0113702
1266.22816,0.0113858
1265.26378,0.0114040
1264.29940,0.0114125
1263.33502,0.0114235
1262.37065,0.0114395
1261.40627,0.0114551
1260.44189,0.0114626
1259.47751,0.0114667
1258.51313,0.0114916
1257.54876,0.0115185
1256.58438,0.0115233
1255.62000,0.0115089
1254.65562,0.0114918
1253.69124,0.0114843
1252.72687,0.0114894
1251.76249,0.0115113
1250.79811,0.0115281
1249.83373,0.0115349
1248.86935,0.0115354
1247.90498,0.0115334
1246.94060,0.0115418
1245.97622,0.0115376
1245.01184,0.0115184
1244.04747,0.0114962
1243.08309,0.0114800
1242.11871,0.0114815
1241.15433,0.0114908
1240.18995,0.0114978
1239.22558,0.0114871
1238.26120,0.0114596
1237.29682,0.0114312
1236.33244,0.0114170
1235.36806,0.0114172
1234.40369,0.0114124
1233.43931,0.0114011
1232.47493,0.0113788
1231.51055,0.0113532
1230.54618,0.0113357
1229.58180,0.0113152
1228.61742,0.0112855
1227.65304,0.0112432
1226.68866,0.0111985
1225.72429,0.0111656
1224.75991,0.0111473
1223.79553,0.0111313
1222.83115,0.0111075
1221.86677,0.0110733
1220.90240,0.0110271
1219.93802,0.0109907
1218.97364,0.0109708
1218.00926,0.0109542
1217.04488,0.0109345
1216.08051,0.0109120
1215.11613,0.0108877
1214.15175,0.0108579
1213.18737,0.0108309
1212.22300,0.0108046
1211.25862,0.0107778
1210.29424,0.0107539
1209.32986,0.0107285
1208.36548,0.0107113
1207.40111,0.0107000
1206.43673,0.0106875
1205.47235,0.0106748
1204.50797,0.0106612
1203.54359,0.0106372
1202.57922,0.0106034
1201.61484,0.0105903
1200.65046,0.0105966
1199.68608,0.0106031
1198.72171,0.0106015
1197.75733,0.0105898
1196.79295,0.0105850
1195.82857,0.0105752
1194.86419,0.0105473
1193.89982,0.0105241
1192.93544,0.0105089
1191.97106,0.0104921
1191.00668,0.0104840
1190.04230,0.0104942
1189.07793,0.0105161
1188.11355,0.0105299
1187.14917,0.0105319
1186.18479,0.0105483
1185.22041,0.0105767
1184.25604,0.0105896
1183.29166,0.0105978
1182.32728,0.0106167
1181.36290,0.0106401
1180.39853,0.0106656
1179.43415,0.0106858
1178.46977,0.0107019
1177.50539,0.0107202
1176.54101,0.0107307
1175.57664,0.0107419
1174.61226,0.0107598
1173.64788,0.0107629
1172.68350,0.0107552
1171.71912,0.0107567
1170.75475,0.0107674
1169.79037,0.0107857
1168.82599,0.0108066
1167.86161,0.0108197
1166.89724,0.0108403
1165.93286,0.0108819
1164.96848,0.0109235
1164.00410,0.0109564
1163.03972,0.0109760
1162.07535,0.0109754
1161.11097,0.0109718
1160.14659,0.0109723
1159.18221,0.0109738
1158.21783,0.0109755
1157.25346,0.0109783
1156.28908,0.0109947
1155.32470,0.0110317
1154.36032,0.0110839
1153.39594,0.0111392
1152.43157,0.0111966
1151.46719,0.0112565
1150.50281,0.0113095
1149.53843,0.0113596
1148.57406,0.0114058
1147.60968,0.0114527
1146.64530,0.0115050
1145.68092,0.0115556
1144.71654,0.0116115
1143.75217,0.0116522
1142.78779,0.0116739
1141.82341,0.0117031
1140.85903,0.0117249
1139.89465,0.0117348
1138.93028,0.0117440
1137.96590,0.0117584
1137.00152,0.0117965
1136.03714,0.0118546
1135.07276,0.0119104
1134.10839,0.0119554
1133.14401,0.0120040
1132.17963,0.0120619
1131.21525,0.0121175
1130.25088,0.0121625
1129.28650,0.0121907
1128.32212,0.0122146
1127.35774,0.0122527
1126.39336,0.0123089
1125.42899,0.0123648
1124.46461,0.0123935
1123.50023,0.0124011
1122.53585,0.0124051
1121.57147,0.0124129
1120.60710,0.0124272
1119.64272,0.0124340
1118.67834,0.0124290
1117.71396,0.0124292
1116.74959,0.0124437
1115.78521,0.0124729
1114.82083,0.0125069
1113.85645,0.0125324
1112.89207,0.0125530
1111.92770,0.0125828
1110.96332,0.0126186
1109.99894,0.0126442
1109.03456,0.0126667
1108.07018,0.0126819
1107.10581,0.0126736
1106.14143,0.0126757
1105.17705,0.0126978
1104.21267,0.0127058
1103.24829,0.0127114
1102.28392,0.0127295
1101.31954,0.0127463
1100.35516,0.0127680
1099.39078,0.0127929
1098.42641,0.0127995
1097.46203,0.0128040
1096.49765,0.0128170
1095.53327,0.0128343
1094.56889,0.0128753
1093.60452,0.0129132
1092.64014,0.0129157
1091.67576,0.0129073
1090.71138,0.0129012
1089.74700,0.0128920
1088.78263,0.0128853
1087.81825,0.0128645
1086.85387,0.0128121
1085.88949,0.0127751
1084.92512,0.0127760
1083.96074,0.0127762
1082.99636,0.0127740
1082.03198,0.0127730
1081.06760,0.0127622
1080.10323,0.0127561
1079.13885,0.0127700
1078.17447,0.0127858
1077.21009,0.0127821
1076.24571,0.0127639
1075.28134,0.0127365
1074.31696,0.0127101
1073.35258,0.0126766
1072.38820,0.0126350
1071.42382,0.0126080
1070.45945,0.0125583
1069.49507,0.0124699
1068.53069,0.0123924
1067.56631,0.0123351
1066.60194,0.0122664
1065.63756,0.0121923
1064.67318,0.0121436
1063.70880,0.0120937
1062.74442,0.0120190
1061.78005,0.0119331
1060.81567,0.0118500
1059.85129,0.0117729
1058.88691,0.0116714
1057.92253,0.0115683
1056.95816,0.0114946
1055.99378,0.0114172
1055.02940,0.0113379
1054.06502,0.0112840
1053.10065,0.0112431
1052.13627,0.0111827
1051.17189,0.0111110
1050.20751,0.0110411
1049.24313,0.0109738
1048.27876,0.0109181
1047.31438,0.0108549
1046.35000,0.0108060
1045.38562,0.0107754
1044.42124,0.0107269
1043.45687,0.0106827
1042.49249,0.0106493
1041.52811,0.0106077
1040.56373,0.0105558
1039.59935,0.0105025
1038.63498,0.0104399
1037.67060,0.0103632
1036.70622,0.0102857
1035.74184,0.0102050
1034.77747,0.0101609
1033.81309,0.0101432
1032.84871,0.0100933
1031.88433,0.0100430
1030.91995,0.0100185
1029.95558,0.0100066
1028.99120,0.0099929
1028.02682,0.0099732
1027.06244,0.0099434
1026.09806,0.0099069
1025.13369,0.0098820
1024.16931,0.0098582
1023.20493,0.0098452
1022.24055,0.0098249
1021.27618,0.0097725
1020.31180,0.0097353
1019.34742,0.0097199
1018.38304,0.0097126
1017.41866,0.0097103
1016.45429,0.0097007
1015.48991,0.0096889
1014.52553,0.0096770
1013.56115,0.0096675
1012.59677,0.0096682
1011.63240,0.0096771
1010.66802,0.0096715
1009.70364,0.0096576
1008.73926,0.0096545
1007.77488,0.0096463
1006.81051,0.0096455
1005.84613,0.0096616
1004.88175,0.0096725
1003.91737,0.0096719
1002.95300,0.0096612
1001.98862,0.0096567
1001.02424,0.0096691
1000.05986,0.0096674
999.09548,0.0096448
998.13111,0.0096375
997.16673,0.0096403
996.20235,0.0096324
995.23797,0.0096271
994.27359,0.0096287
993.30922,0.0096303
992.34484,0.0096246
991.38046,0.0096107
990.41608,0.0095964
989.45171,0.0095659
988.48733,0.0095188
987.52295,0.0094981
986.55857,0.0094947
985.59419,0.0094743
984.62982,0.0094460
983.66544,0.0094182
982.70106,0.0094089
981.73668,0.0094266
980.77230,0.0094556
979.80793,0.0094805
978.84355,0.0094751
977.87917,0.0094431
976.91479,0.0094106
975.95041,0.0093792
974.98604,0.0093337
974.02166,0.0092742
973.05728,0.0092043
972.09290,0.0091275
971.12853,0.0090675
970.16415,0.0090270
969.19977,0.0089935
968.23539,0.0089453
967.27101,0.0088871
966.30664,0.0088545
965.34226,0.0088167
964.37788,0.0087656
963.41350,0.0087268
962.44912,0.0086705
961.48475,0.0085958
960.52037,0.0085309
959.55599,0.0084870
958.59161,0.0084662
957.62724,0.0084459
956.66286,0.0084152
955.69848,0.0083921
954.73410,0.0083673
953.76972,0.0083343
952.80535,0.0083149
951.84097,0.0082978
950.87659,0.0082633
949.91221,0.0082203
948.94783,0.0081795
947.98346,0.0081398
947.01908,0.0080898
946.05470,0.0080162
945.09032,0.0079204
944.12594,0.0078038
943.16157,0.0076876
942.19719,0.0076205
941.23281,0.0075922
940.26843,0.0075806
939.30406,0.0075907
938.33968,0.0075957
937.37530,0.0075990
936.41092,0.0076119
935.44654,0.0076056
934.48217,0.0075613
933.51779,0.0074909
932.55341,0.0074173
931.58903,0.0073515
930.62465,0.0073117
929.66028,0.0073033
928.69590,0.0073156
927.73152,0.0073328
926.76714,0.0073463
925.80276,0.0073743
924.83839,0.0074035
923.87401,0.0074046
922.90963,0.0073850
921.94525,0.0073828
920.98088,0.0073977
920.01650,0.0073879
919.05212,0.0073695
918.08774,0.0073544
917.12336,0.0073185
916.15899,0.0072747
915.19461,0.0072394
914.23023,0.0072056
913.26585,0.0071703
912.30147,0.0071583
911.33710,0.0071748
910.37272,0.0071998
909.40834,0.0072336
908.44396,0.0072640
907.47959,0.0072653
906.51521,0.0072356
905.55083,0.0072074
904.58645,0.0072046
903.62207,0.0072075
902.65770,0.0072112
901.69332,0.0072139
900.72894,0.0072073
899.76456,0.0071955
898.80018,0.0071598
897.83581,0.0071299
896.87143,0.0071261
895.90705,0.0070941
894.94267,0.0070545
893.97829,0.0070637
893.01392,0.0071175
892.04954,0.0071761
891.08516,0.0072132
890.12078,0.0072191
889.15641,0.0071990
888.19203,0.0072028
887.22765,0.0072389
886.26327,0.0073008
885.29889,0.0073917
884.33452,0.0074706
883.37014,0.0075261
882.40576,0.0075591
881.44138,0.0075678
880.47700,0.0075525
879.51263,0.0075200
878.54825,0.0074725
877.58387,0.0074051
876.61949,0.0073767
875.65512,0.0074024
874.69074,0.0074636
873.72636,0.0075782
872.76198,0.0077107
871.79760,0.0078172
870.83323,0.0078747
869.86885,0.0078929
868.90447,0.0079151
867.94009,0.0079436
866.97571,0.0079526
866.01134,0.0079465
865.04696,0.0079371
864.08258,0.0079422
863.11820,0.0080152
862.15382,0.0081435
861.18945,0.0082546
860.22507,0.0083306
859.26069,0.0083809
858.29631,0.0084110
857.33194,0.0084281
856.36756,0.0084362
855.40318,0.0084344
854.43880,0.0084022
853.47442,0.0083357
852.51005,0.0083008
851.54567,0.0083319
850.58129,0.0083773
849.61691,0.0084176
848.65253,0.0084663
847.68816,0.0085376
846.72378,0.0086181
845.75940,0.0086593
844.79502,0.0086666
843.83065,0.0086593
842.86627,0.0086214
841.90189,0.0085708
840.93751,0.0085455
839.97313,0.0085367
839.00876,0.0085333
838.04438,0.0085447
837.08000,0.0085600
836.11562,0.0085873
835.15124,0.0086205
834.18687,0.0086349
833.22249,0.0086650
832.25811,0.0087295
831.29373,0.0087732
830.32935,0.0087714
829.36498,0.0087610
828.40060,0.0087534
827.43622,0.0087539
826.47184,0.0087364
825.50747,0.0086479
824.54309,0.0085363
823.57871,0.0084516
822.61433,0.0083969
821.64995,0.0083961
820.68558,0.0084183
819.72120,0.0084155
818.75682,0.0084123
817.79244,0.0084268
816.82806,0.0084471
815.86369,0.0084777
814.89931,0.0084773
813.93493,0.0084243
812.97055,0.0083703
812.00618,0.0083295
811.04180,0.0083046
810.07742,0.0083080
809.11304,0.0083393
808.14866,0.0083888
807.18429,0.0084363
806.21991,0.0084706
805.25553,0.0084917
804.29115,0.0085155
803.32677,0.0085416
802.36240,0.0085491
801.39802,0.0085325
800.43364,0.0085149
799.46926,0.0085386
798.50488,0.0086030
797.54051,0.0086719
796.57613,0.0087083
795.61175,0.0087058
794.64737,0.0087008
793.68300,0.0086908
792.71862,0.0086628
791.75424,0.0086319
790.78986,0.0085935
789.82548,0.0085556
788.86111,0.0085350
787.89673,0.0085246
786.93235,0.0085080
785.96797,0.0084654
785.00359,0.0084096
784.03922,0.0083807
783.07484,0.0083824
782.11046,0.0083905
781.14608,0.0084109
780.18171,0.0084726
779.21733,0.0085585
778.25295,0.0086227
777.28857,0.0086473
776.32419,0.0086402
775.35982,0.0086364
774.39544,0.0086178
773.43106,0.0085548
772.46668,0.0084911
771.50230,0.0084417
770.53793,0.0084164
769.57355,0.0084459
768.60917,0.0085385
767.64479,0.0086494
766.68041,0.0087152
765.71604,0.0087654
764.75166,0.0088132
763.78728,0.0088323
762.82290,0.0088341
761.85853,0.0088413
760.89415,0.0088519
759.92977,0.0088309
758.96539,0.0088119
758.00101,0.0088097
757.03664,0.0088241
756.07226,0.0088442
755.10788,0.0087954
754.14350,0.0087537
753.17912,0.0087408
752.21475,0.0087079
751.25037,0.0087214
750.28599,0.0087442
749.32161,0.0087189
748.35724,0.0086775
747.39286,0.0086793
746.42848,0.0087337
745.46410,0.0088380
744.49972,0.0089623
743.53535,0.0089849
742.57097,0.0089611
741.60659,0.0089871
740.64221,0.0090536
739.67783,0.0091239
738.71346,0.0091410
737.74908,0.0091465
736.78470,0.0091286
735.82032,0.0090934
734.85594,0.0090945
733.89157,0.0090845
732.92719,0.0090263
731.96281,0.0089021
730.99843,0.0087978
730.03406,0.0087907
729.06968,0.0088451
728.10530,0.0089322
727.14092,0.0090336
726.17654,0.0091414
725.21217,0.0092363
724.24779,0.0093421
723.28341,0.0094525
722.31903,0.0095124
721.35465,0.0095439
720.39028,0.0095734
719.42590,0.0096009
718.46152,0.0095928
717.49714,0.0095539
716.53276,0.0095342
715.56839,0.0095221
714.60401,0.0095254
713.63963,0.0095569
712.67525,0.0095946
711.71088,0.0096364
710.74650,0.0096763
709.78212,0.0097144
708.81774,0.0097657
707.85336,0.0098242
706.88899,0.0098677
705.92461,0.0098977
704.96023,0.0099314
703.99585,0.0099708
703.03147,0.0100025
702.06710,0.0100220
701.10272,0.0100562
700.13834,0.0101099
699.17396,0.0101630
698.20959,0.0102160
697.24521,0.0102532
696.28083,0.0102641
695.31645,0.0102606
694.35207,0.0102603
693.38770,0.0102675
692.42332,0.0102546
691.45894,0.0102386
690.49456,0.0102496
689.53018,0.0102654
688.56581,0.0102756
687.60143,0.0103011
686.63705,0.0103493
685.67267,0.0103918
684.70829,0.0104123
683.74392,0.0104307
682.77954,0.0104746
681.81516,0.0105221
680.85078,0.0105332
679.88641,0.0105355
678.92203,0.0105482
677.95765,0.0105526
676.99327,0.0105210
676.02889,0.0104600
675.06452,0.0103688
674.10014,0.0102367
673.13576,0.0103235
672.17138,0.0106964
671.20700,0.0110698
670.24263,0.0113179
669.27825,0.0114593
668.31387,0.0115268
667.34949,0.0115184
666.38512,0.0114007
665.42074,0.0111663
664.45636,0.0108522
663.49198,0.0105172
662.52760,0.0102652
661.56323,0.0103205
660.59885,0.0105418
659.63447,0.0106208
658.67009,0.0106262
657.70571,0.0106484
656.74134,0.0106772
655.77696,0.0106929
654.81258,0.0106725
653.84820,0.0106696
652.88382,0.0106855
651.91945,0.0106987
650.95507,0.0107195
649.99069,0.0107443
649.02631,0.0107660
648.06194,0.0107585
647.09756,0.0107540
646.13318,0.0107632
645.16880,0.0107746
644.20442,0.0108110
643.24005,0.0108423
642.27567,0.0108860
641.31129,0.0109580
640.34691,0.0110418
639.38253,0.0111597
638.41816,0.0112744
637.45378,0.0113380
636.48940,0.0113395
635.52502,0.0113059
634.56065,0.0112828
633.59627,0.0112603
632.63189,0.0111984
631.66751,0.0111147
630.70313,0.0111183
629.73876,0.0110751
628.77438,0.0109783
627.81000,0.0111118
626.84562,0.0108481
625.88124,0.0102958
624.91687,0.0099202
623.95249,0.0092291
622.98811,0.0084971
622.02373,0.0082106
621.05935,0.0082197
620.09498,0.0084770
619.13060,0.0091390
618.16622,0.0100093
617.20184,0.0105372
616.23747,0.0104759
615.27309,0.0096388
614.30871,0.0087205
613.34433,0.0081179
612.37995,0.0074862
611.41558,0.0072969
610.45120,0.0071895
609.48682,0.0067770
608.52244,0.0068384
607.55806,0.0075128
606.59369,0.0082094
605.62931,0.0084772
604.66493,0.0085559
603.70055,0.0088060
602.73618,0.0091832
601.77180,0.0098320
600.80742,0.0107940
599.84304,0.0115721
598.87866,0.0115666
597.91429,0.0113801
596.94991,0.0116280
595.98553,0.0117291
595.02115,0.0115554
594.05677,0.0114262
593.09240,0.0113424
592.12802,0.0112373
591.16364,0.0110941
590.19926,0.0110317
589.23488,0.0111253
588.27051,0.0112681
587.30613,0.0113772
586.34175,0.0115393
585.37737,0.0117054
584.41300,0.0116902
583.44862,0.0115752
582.48424,0.0115096
581.51986,0.0115441
580.55548,0.0116138
579.59111,0.0116229
578.62673,0.0116267
577.66235,0.0116112
576.69797,0.0115975
575.73359,0.0116138
574.76922,0.0115779
573.80484,0.0115428
572.84046,0.0115197
571.87608,0.0115502
570.91171,0.0117406
569.94733,0.0119614
568.98295,0.0120562
568.01857,0.0120585
567.05419,0.0120633
566.08982,0.0120229
565.12544,0.0119279
564.16106,0.0118616
563.19668,0.0117937
562.23230,0.0117344
561.26793,0.0117041
560.30355,0.0116815
559.33917,0.0116404
558.37479,0.0115697
557.41041,0.0115411
556.44604,0.0115435
555.48166,0.0115863
554.51728,0.0116659
553.55290,0.0116636
552.58853,0.0116392
551.62415,0.0117120
550.65977,0.0117705
549.69539,0.0116725
548.73101,0.0115117
547.76664,0.0114046
546.80226,0.0113805
545.83788,0.0114532
544.87350,0.0115304
543.90912,0.0116060
542.94475,0.0116423
541.98037,0.0115587
541.01599,0.0115397
540.05161,0.0116274
539.08724,0.0116465
538.12286,0.0115781
537.15848,0.0115318
536.19410,0.0115651
535.22972,0.0116083
534.26535,0.0116268
533.30097,0.0116410
532.33659,0.0116533
531.37221,0.0115980
530.40783,0.0114571
529.44346,0.0114063
528.47908,0.0114544
527.51470,0.0114732
526.55032,0.0114835
525.58594,0.0114965
524.62157,0.0115078
523.65719,0.0115235
522.69281,0.0115505
521.72843,0.0116161
520.76406,0.0116675
519.79968,0.0116445
518.83530,0.0115988
517.87092,0.0115829
516.90654,0.0115749
515.94217,0.0115424
514.97779,0.0114852
514.01341,0.0114188
513.04903,0.0113515
512.08465,0.0113326
511.12028,0.0113620
510.15590,0.0113929
509.19152,0.0114796
508.22714,0.0116444
507.26276,0.0118040
506.29839,0.0118583
505.33401,0.0118370
504.36963,0.0118054
503.40525,0.0117249
502.44088,0.0116653
501.47650,0.0116513
500.51212,0.0116296
499.54774,0.0115929
498.58336,0.0115197
497.61899,0.0115114
496.65461,0.0115777
495.69023,0.0116116
494.72585,0.0116163
493.76147,0.0116097
492.79710,0.0115873
491.83272,0.0115367
490.86834,0.0114669
489.90396,0.0113851
488.93959,0.0113056
487.97521,0.0112282
487.01083,0.0111492
486.04645,0.0110858
485.08207,0.0110086
484.11770,0.0109737
483.15332,0.0110412
482.18894,0.0111686
481.22456,0.0112869
480.26018,0.0113627
479.29581,0.0114561
478.33143,0.0115981
477.36705,0.0117709
476.40267,0.0119026
475.43829,0.0119320
474.47392,0.0118791
473.50954,0.0118037
472.54516,0.0118008
471.58078,0.0118301
470.61641,0.0117970
469.65203,0.0117106
468.68765,0.0116268
467.72327,0.0115752
466.75889,0.0115519
465.79452,0.0115815
464.83014,0.0115894
463.86576,0.0115203
462.90138,0.0115121
461.93700,0.0115942
460.97263,0.0116126
460.00825,0.0115671
459.04387,0.0115512
458.07949,0.0115167
457.11512,0.0114394
456.15074,0.0113410
455.18636,0.0112684
454.22198,0.0112439
453.25760,0.0112073
452.29323,0.0111540
451.32885,0.0111193
450.36447,0.0110964
449.40009,0.0110281
448.43571,0.0110321
447.47134,0.0111591
446.50696,0.0112243
445.54258,0.0112557
444.57820,0.0112569
443.61382,0.0111937
442.64945,0.0111579
441.68507,0.0111674
440.72069,0.0111894
439.75631,0.0111627
438.79194,0.0111371
437.82756,0.0111282
436.86318,0.0111309
435.89880,0.0111696
434.93442,0.0111440
433.97005,0.0110620
433.00567,0.0109458
432.04129,0.0108316
431.07691,0.0107794
430.11253,0.0107594
429.14816,0.0107775
428.18378,0.0107891
427.21940,0.0107815
426.25502,0.0107719
425.29065,0.0107636
424.32627,0.0107935
423.36189,0.0108404
422.39751,0.0108643
421.43313,0.0108438
420.46876,0.0108127
419.50438,0.0107616
418.54000,0.0106810
417.57562,0.0106214
416.61124,0.0105330
415.64687,0.0103906
414.68249,0.0102517
413.71811,0.0101526
412.75373,0.0101016
411.78935,0.0101258
410.82498,0.0101934
409.86060,0.0102710
408.89622,0.0103950
407.93184,0.0104607
406.96747,0.0104493
406.00309,0.0104310
405.03871,0.0103334
404.07433,0.0103334
403.10995,0.0103334
402.14558,0.0103334
401.18120,0.0103334
400.21682,0.0103334
399.25244,0.0103334
