3998.31069,0.00042
3997.34631,0.00052
3996.38194,0.00061
3995.41756,0.00066
3994.45318,0.00070
3993.48880,0.00072
3992.52442,0.00072
3991.56005,0.00068
3990.59567,0.00061
3989.63129,0.00053
3988.66691,0.00047
3987.70253,0.00042
3986.73816,0.00043
3985.77378,0.00047
3984.80940,0.00052
3983.84502,0.00056
3982.88065,0.00061
3981.91627,0.00063
3980.95189,0.00059
3979.98751,0.00049
3979.02313,0.00038
3978.05876,0.00027
3977.09438,0.00016
3976.13000,0.00008
3975.16562,0.00004
3974.20124,0.00007
3973.23687,0.00016
3972.27249,0.00028
3971.30811,0.00039
3970.34373,0.00044
3969.37935,0.00043
3968.41498,0.00041
3967.45060,0.00040
3966.48622,0.00041
3965.52184,0.00044
3964.55747,0.00045
3963.59309,0.00044
3962.62871,0.00046
3961.66433,0.00051
3960.69995,0.00058
3959.73558,0.00063
3958.77120,0.00064
3957.80682,0.00063
3956.84244,0.00060
3955.87806,0.00058
3954.91369,0.00056
3953.94931,0.00052
3952.98493,0.00045
3952.02055,0.00039
3951.05618,0.00037
3950.09180,0.00039
3949.12742,0.00042
3948.16304,0.00046
3947.19866,0.00052
3946.23429,0.00058
3945.26991,0.00061
3944.30553,0.00061
3943.34115,0.00060
3942.37677,0.00059
3941.41240,0.00057
3940.44802,0.00056
3939.48364,0.00055
3938.51926,0.00050
3937.55488,0.00042
3936.59051,0.00037
3935.62613,0.00039
3934.66175,0.00041
3933.69737,0.00042
3932.73300,0.00044
3931.76862,0.00045
3930.80424,0.00045
3929.83986,0.00046
3928.87548,0.00051
3927.91111,0.00053
3926.94673,0.00049
3925.98235,0.00045
3925.01797,0.00047
3924.05359,0.00054
3923.08922,0.00063
3922.12484,0.00069
3921.16046,0.00071
3920.19608,0.00071
3919.23171,0.00065
3918.26733,0.00058
3917.30295,0.00050
3916.33857,0.00042
3915.37419,0.00035
3914.40982,0.00032
3913.44544,0.00038
3912.48106,0.00050
3911.51668,0.00064
3910.55230,0.00072
3909.58793,0.00075
3908.62355,0.00073
3907.65917,0.00065
3906.69479,0.00053
3905.73041,0.00044
3904.76604,0.00043
3903.80166,0.00046
3902.83728,0.00051
3901.87290,0.00058
3900.90853,0.00067
3899.94415,0.00074
3898.97977,0.00075
3898.01539,0.00072
3897.05101,0.00065
3896.08664,0.00057
3895.12226,0.00051
3894.15788,0.00049
3893.19350,0.00048
3892.22912,0.00047
3891.26475,0.00045
3890.30037,0.00046
3889.33599,0.00045
3888.37161,0.00040
3887.40724,0.00033
3886.44286,0.00029
3885.47848,0.00032
3884.51410,0.00040
3883.54972,0.00046
3882.58535,0.00051
3881.62097,0.00054
3880.65659,0.00057
3879.69221,0.00061
3878.72783,0.00060
3877.76346,0.00052
3876.79908,0.00041
3875.83470,0.00032
3874.87032,0.00031
3873.90594,0.00035
3872.94157,0.00041
3871.97719,0.00048
3871.01281,0.00055
3870.04843,0.00061
3869.08406,0.00063
3868.11968,0.00061
3867.15530,0.00057
3866.19092,0.00048
3865.22654,0.00035
3864.26217,0.00021
3863.29779,0.00010
3862.33341,0.00004
3861.36903,0.00007
3860.40465,0.00015
3859.44028,0.00027
3858.47590,0.00038
3857.51152,0.00051
3856.54714,0.00066
3855.58276,0.00078
3854.61839,0.00082
3853.65401,0.00077
3852.68963,0.00067
3851.72525,0.00059
3850.76088,0.00054
3849.79650,0.00049
3848.83212,0.00047
3847.86774,0.00047
3846.90336,0.00049
3845.93899,0.00054
3844.97461,0.00059
3844.01023,0.00064
3843.04585,0.00067
3842.08147,0.00067
3841.11710,0.00063
3840.15272,0.00057
3839.18834,0.00050
3838.22396,0.00043
3837.25959,0.00041
3836.29521,0.00045
3835.33083,0.00051
3834.36645,0.00058
3833.40207,0.00066
3832.43770,0.00075
3831.47332,0.00082
3830.50894,0.00083
3829.54456,0.00078
3828.58018,0.00068
3827.61581,0.00058
3826.65143,0.00049
3825.68705,0.00040
3824.72267,0.00033
3823.75829,0.00027
3822.79392,0.00023
3821.82954,0.00024
3820.86516,0.00029
3819.90078,0.00037
3818.93641,0.00043
3817.97203,0.00050
3817.00765,0.00057
3816.04327,0.00064
3815.07889,0.00065
3814.11452,0.00059
3813.15014,0.00051
3812.18576,0.00045
3811.22138,0.00041
3810.25700,0.00039
3809.29263,0.00037
3808.32825,0.00034
3807.36387,0.00035
3806.39949,0.00042
3805.43512,0.00054
3804.47074,0.00063
3803.50636,0.00067
3802.54198,0.00067
3801.57760,0.00067
3800.61323,0.00063
3799.64885,0.00055
3798.68447,0.00045
3797.72009,0.00033
3796.75571,0.00024
3795.79134,0.00024
3794.82696,0.00030
3793.86258,0.00040
3792.89820,0.00047
3791.93382,0.00052
3790.96945,0.00056
3790.00507,0.00058
3789.04069,0.00057
3788.07631,0.00055
3787.11194,0.00054
3786.14756,0.00052
3785.18318,0.00051
3784.21880,0.00050
3783.25442,0.00051
3782.29005,0.00053
3781.32567,0.00052
3780.36129,0.00048
3779.39691,0.00043
3778.43253,0.00042
3777.46816,0.00042
3776.50378,0.00043
3775.53940,0.00043
3774.57502,0.00044
3773.61065,0.00049
3772.64627,0.00059
3771.68189,0.00070
3770.71751,0.00078
3769.75313,0.00080
3768.78876,0.00080
3767.82438,0.00082
3766.86000,0.00083
3765.89562,0.00079
3764.93124,0.00070
3763.96687,0.00059
3763.00249,0.00050
3762.03811,0.00045
3761.07373,0.00042
3760.10935,0.00042
3759.14498,0.00045
3758.18060,0.00051
3757.21622,0.00060
3756.25184,0.00070
3755.28747,0.00075
3754.32309,0.00076
3753.35871,0.00073
3752.39433,0.00069
3751.42995,0.00063
3750.46558,0.00060
3749.50120,0.00059
3748.53682,0.00061
3747.57244,0.00062
3746.60806,0.00058
3745.64369,0.00054
3744.67931,0.00052
3743.71493,0.00050
3742.75055,0.00047
3741.78618,0.00044
3740.82180,0.00043
3739.85742,0.00046
3738.89304,0.00052
3737.92866,0.00056
3736.96429,0.00056
3735.99991,0.00050
3735.03553,0.00040
3734.07115,0.00032
3733.10677,0.00030
3732.14240,0.00029
3731.17802,0.00025
3730.21364,0.00022
3729.24926,0.00024
3728.28488,0.00029
3727.32051,0.00034
3726.35613,0.00042
3725.39175,0.00049
3724.42737,0.00053
3723.46300,0.00056
3722.49862,0.00056
3721.53424,0.00054
3720.56986,0.00050
3719.60548,0.00045
3718.64111,0.00039
3717.67673,0.00033
3716.71235,0.00029
3715.74797,0.00029
3714.78359,0.00031
3713.81922,0.00034
3712.85484,0.00040
3711.89046,0.00046
3710.92608,0.00049
3709.96171,0.00047
3708.99733,0.00044
3708.03295,0.00038
3707.06857,0.00028
3706.10419,0.00019
3705.13982,0.00016
3704.17544,0.00014
3703.21106,0.00013
3702.24668,0.00014
3701.28230,0.00018
3700.31793,0.00022
3699.35355,0.00028
3698.38917,0.00035
3697.42479,0.00040
3696.46041,0.00041
3695.49604,0.00041
3694.53166,0.00043
3693.56728,0.00046
3692.60290,0.00045
3691.63853,0.00042
3690.67415,0.00038
3689.70977,0.00032
3688.74539,0.00025
3687.78101,0.00019
3686.81664,0.00014
3685.85226,0.00006
3684.88788,-0.00003
3683.92350,-0.00009
3682.95912,-0.00010
3681.99475,-0.00005
3681.03037,0.00008
3680.06599,0.00025
3679.10161,0.00042
3678.13724,0.00057
3677.17286,0.00067
3676.20848,0.00071
3675.24410,0.00068
3674.27972,0.00059
3673.31535,0.00047
3672.35097,0.00035
3671.38659,0.00023
3670.42221,0.00013
3669.45783,0.00009
3668.49346,0.00009
3667.52908,0.00012
3666.56470,0.00016
3665.60032,0.00025
3664.63594,0.00035
3663.67157,0.00045
3662.70719,0.00051
3661.74281,0.00052
3660.77843,0.00048
3659.81406,0.00041
3658.84968,0.00035
3657.88530,0.00034
3656.92092,0.00032
3655.95654,0.00028
3654.99217,0.00025
3654.02779,0.00030
3653.06341,0.00039
3652.09903,0.00048
3651.13465,0.00052
3650.17028,0.00052
3649.20590,0.00054
3648.24152,0.00061
3647.27714,0.00068
3646.31276,0.00069
3645.34839,0.00065
3644.38401,0.00060
3643.41963,0.00055
3642.45525,0.00052
3641.49088,0.00051
3640.52650,0.00049
3639.56212,0.00040
3638.59774,0.00027
3637.63336,0.00018
3636.66899,0.00010
3635.70461,0.00002
3634.74023,-0.00004
3633.77585,-0.00003
3632.81147,0.00005
3631.84710,0.00013
3630.88272,0.00019
3629.91834,0.00023
3628.95396,0.00027
3627.98959,0.00029
3627.02521,0.00025
3626.06083,0.00023
3625.09645,0.00024
3624.13207,0.00027
3623.16770,0.00030
3622.20332,0.00036
3621.23894,0.00043
3620.27456,0.00046
3619.31018,0.00044
3618.34581,0.00040
3617.38143,0.00036
3616.41705,0.00028
3615.45267,0.00021
3614.48829,0.00016
3613.52392,0.00015
3612.55954,0.00014
3611.59516,0.00014
3610.63078,0.00017
3609.66641,0.00022
3608.70203,0.00028
3607.73765,0.00036
3606.77327,0.00044
3605.80889,0.00050
3604.84452,0.00052
3603.88014,0.00052
3602.91576,0.00052
3601.95138,0.00052
3600.98700,0.00054
3600.02263,0.00057
3599.05825,0.00053
3598.09387,0.00046
3597.12949,0.00041
3596.16512,0.00038
3595.20074,0.00038
3594.23636,0.00038
3593.27198,0.00037
3592.30760,0.00038
3591.34323,0.00040
3590.37885,0.00045
3589.41447,0.00051
3588.45009,0.00054
3587.48571,0.00052
3586.52134,0.00050
3585.55696,0.00051
3584.59258,0.00051
3583.62820,0.00050
3582.66382,0.00051
3581.69945,0.00051
3580.73507,0.00050
3579.77069,0.00048
3578.80631,0.00047
3577.84194,0.00045
3576.87756,0.00045
3575.91318,0.00046
3574.94880,0.00049
3573.98442,0.00050
3573.02005,0.00048
3572.05567,0.00045
3571.09129,0.00040
3570.12691,0.00034
3569.16253,0.00031
3568.19816,0.00030
3567.23378,0.00031
3566.26940,0.00034
3565.30502,0.00038
3564.34065,0.00041
3563.37627,0.00041
3562.41189,0.00036
3561.44751,0.00030
3560.48313,0.00024
3559.51876,0.00022
3558.55438,0.00026
3557.59000,0.00033
3556.62562,0.00040
3555.66124,0.00049
3554.69687,0.00059
3553.73249,0.00063
3552.76811,0.00061
3551.80373,0.00055
3550.83935,0.00047
3549.87498,0.00041
3548.91060,0.00042
3547.94622,0.00050
3546.98184,0.00061
3546.01747,0.00072
3545.05309,0.00081
3544.08871,0.00087
3543.12433,0.00089
3542.15995,0.00087
3541.19558,0.00081
3540.23120,0.00071
3539.26682,0.00061
3538.30244,0.00052
3537.33806,0.00045
3536.37369,0.00041
3535.40931,0.00039
3534.44493,0.00038
3533.48055,0.00036
3532.51618,0.00031
3531.55180,0.00026
3530.58742,0.00025
3529.62304,0.00026
3528.65866,0.00029
3527.69429,0.00033
3526.72991,0.00035
3525.76553,0.00036
3524.80115,0.00036
3523.83677,0.00034
3522.87240,0.00033
3521.90802,0.00032
3520.94364,0.00030
3519.97926,0.00027
3519.01488,0.00027
3518.05051,0.00031
3517.08613,0.00038
3516.12175,0.00046
3515.15737,0.00049
3514.19300,0.00050
3513.22862,0.00051
3512.26424,0.00052
3511.29986,0.00054
3510.33548,0.00059
3509.37111,0.00065
3508.40673,0.00070
3507.44235,0.00072
3506.47797,0.00073
3505.51359,0.00071
3504.54922,0.00066
3503.58484,0.00057
3502.62046,0.00050
3501.65608,0.00047
3500.69171,0.00043
3499.72733,0.00038
3498.76295,0.00033
3497.79857,0.00030
3496.83419,0.00025
3495.86982,0.00020
3494.90544,0.00016
3493.94106,0.00011
3492.97668,0.00009
3492.01230,0.00013
3491.04793,0.00021
3490.08355,0.00031
3489.11917,0.00039
3488.15479,0.00046
3487.19041,0.00049
3486.22604,0.00049
3485.26166,0.00049
3484.29728,0.00049
3483.33290,0.00050
3482.36853,0.00052
3481.40415,0.00054
3480.43977,0.00056
3479.47539,0.00055
3478.51101,0.00052
3477.54664,0.00049
3476.58226,0.00046
3475.61788,0.00043
3474.65350,0.00041
3473.68912,0.00041
3472.72475,0.00043
3471.76037,0.00045
3470.79599,0.00047
3469.83161,0.00048
3468.86724,0.00048
3467.90286,0.00046
3466.93848,0.00044
3465.97410,0.00043
3465.00972,0.00046
3464.04535,0.00051
3463.08097,0.00054
3462.11659,0.00054
3461.15221,0.00052
3460.18783,0.00049
3459.22346,0.00048
3458.25908,0.00050
3457.29470,0.00052
3456.33032,0.00054
3455.36594,0.00054
3454.40157,0.00053
3453.43719,0.00053
3452.47281,0.00052
3451.50843,0.00050
3450.54406,0.00047
3449.57968,0.00043
3448.61530,0.00043
3447.65092,0.00048
3446.68654,0.00054
3445.72217,0.00059
3444.75779,0.00059
3443.79341,0.00058
3442.82903,0.00058
3441.86465,0.00059
3440.90028,0.00061
3439.93590,0.00062
3438.97152,0.00063
3438.00714,0.00063
3437.04276,0.00065
3436.07839,0.00068
3435.11401,0.00070
3434.14963,0.00069
3433.18525,0.00065
3432.22088,0.00062
3431.25650,0.00060
3430.29212,0.00056
3429.32774,0.00052
3428.36336,0.00049
3427.39899,0.00047
3426.43461,0.00045
3425.47023,0.00044
3424.50585,0.00046
3423.54147,0.00051
3422.57710,0.00057
3421.61272,0.00062
3420.64834,0.00066
3419.68396,0.00068
3418.71959,0.00068
3417.75521,0.00068
3416.79083,0.00067
3415.82645,0.00065
3414.86207,0.00062
3413.89770,0.00059
3412.93332,0.00058
3411.96894,0.00057
3411.00456,0.00055
3410.04018,0.00052
3409.07581,0.00047
3408.11143,0.00042
3407.14705,0.00037
3406.18267,0.00036
3405.21829,0.00037
3404.25392,0.00039
3403.28954,0.00043
3402.32516,0.00046
3401.36078,0.00048
3400.39641,0.00050
3399.43203,0.00052
3398.46765,0.00053
3397.50327,0.00053
3396.53889,0.00053
3395.57452,0.00051
3394.61014,0.00046
3393.64576,0.00038
3392.68138,0.00032
3391.71700,0.00026
3390.75263,0.00020
3389.78825,0.00019
3388.82387,0.00024
3387.85949,0.00034
3386.89512,0.00046
3385.93074,0.00057
3384.96636,0.00065
3384.00198,0.00070
3383.03760,0.00073
3382.07323,0.00075
3381.10885,0.00077
3380.14447,0.00076
3379.18009,0.00072
3378.21571,0.00066
3377.25134,0.00063
3376.28696,0.00062
3375.32258,0.00061
3374.35820,0.00057
3373.39382,0.00052
3372.42945,0.00051
3371.46507,0.00052
3370.50069,0.00054
3369.53631,0.00055
3368.57194,0.00054
3367.60756,0.00053
3366.64318,0.00054
3365.67880,0.00056
3364.71442,0.00059
3363.75005,0.00060
3362.78567,0.00061
3361.82129,0.00063
3360.85691,0.00066
3359.89253,0.00069
3358.92816,0.00071
3357.96378,0.00073
3356.99940,0.00073
3356.03502,0.00072
3355.07065,0.00071
3354.10627,0.00070
3353.14189,0.00066
3352.17751,0.00059
3351.21313,0.00053
3350.24876,0.00049
3349.28438,0.00046
3348.32000,0.00045
3347.35562,0.00046
3346.39124,0.00047
3345.42687,0.00047
3344.46249,0.00046
3343.49811,0.00046
3342.53373,0.00046
3341.56935,0.00045
3340.60498,0.00044
3339.64060,0.00044
3338.67622,0.00045
3337.71184,0.00047
3336.74747,0.00050
3335.78309,0.00054
3334.81871,0.00056
3333.85433,0.00057
3332.88995,0.00056
3331.92558,0.00057
3330.96120,0.00058
3329.99682,0.00059
3329.03244,0.00059
3328.06806,0.00058
3327.10369,0.00057
3326.13931,0.00058
3325.17493,0.00059
3324.21055,0.00061
3323.24618,0.00063
3322.28180,0.00064
3321.31742,0.00067
3320.35304,0.00071
3319.38866,0.00074
3318.42429,0.00073
3317.45991,0.00073
3316.49553,0.00073
3315.53115,0.00075
3314.56677,0.00077
3313.60240,0.00081
3312.63802,0.00082
3311.67364,0.00079
3310.70926,0.00072
3309.74488,0.00065
3308.78051,0.00057
3307.81613,0.00051
3306.85175,0.00047
3305.88737,0.00045
3304.92300,0.00045
3303.95862,0.00046
3302.99424,0.00047
3302.02986,0.00047
3301.06548,0.00046
3300.10111,0.00046
3299.13673,0.00047
3298.17235,0.00050
3297.20797,0.00054
3296.24359,0.00058
3295.27922,0.00061
3294.31484,0.00063
3293.35046,0.00063
3292.38608,0.00061
3291.42171,0.00059
3290.45733,0.00058
3289.49295,0.00058
3288.52857,0.00057
3287.56419,0.00057
3286.59982,0.00058
3285.63544,0.00058
3284.67106,0.00057
3283.70668,0.00055
3282.74230,0.00054
3281.77793,0.00052
3280.81355,0.00050
3279.84917,0.00050
3278.88479,0.00053
3277.92041,0.00055
3276.95604,0.00056
3275.99166,0.00057
3275.02728,0.00057
3274.06290,0.00058
3273.09853,0.00058
3272.13415,0.00056
3271.16977,0.00053
3270.20539,0.00048
3269.24101,0.00044
3268.27664,0.00045
3267.31226,0.00050
3266.34788,0.00055
3265.38350,0.00057
3264.41912,0.00057
3263.45475,0.00055
3262.49037,0.00051
3261.52599,0.00048
3260.56161,0.00045
3259.59724,0.00042
3258.63286,0.00038
3257.66848,0.00037
3256.70410,0.00037
3255.73972,0.00038
3254.77535,0.00039
3253.81097,0.00041
3252.84659,0.00044
3251.88221,0.00049
3250.91783,0.00053
3249.95346,0.00058
3248.98908,0.00063
3248.02470,0.00067
3247.06032,0.00070
3246.09594,0.00069
3245.13157,0.00066
3244.16719,0.00061
3243.20281,0.00058
3242.23843,0.00055
3241.27406,0.00052
3240.30968,0.00050
3239.34530,0.00047
3238.38092,0.00045
3237.41654,0.00043
3236.45217,0.00044
3235.48779,0.00048
3234.52341,0.00052
3233.55903,0.00055
3232.59465,0.00058
3231.63028,0.00063
3230.66590,0.00065
3229.70152,0.00065
3228.73714,0.00062
3227.77276,0.00057
3226.80839,0.00050
3225.84401,0.00043
3224.87963,0.00037
3223.91525,0.00033
3222.95088,0.00030
3221.98650,0.00028
3221.02212,0.00030
3220.05774,0.00033
3219.09336,0.00037
3218.12899,0.00041
3217.16461,0.00047
3216.20023,0.00056
3215.23585,0.00065
3214.27147,0.00070
3213.30710,0.00069
3212.34272,0.00063
3211.37834,0.00053
3210.41396,0.00043
3209.44959,0.00035
3208.48521,0.00028
3207.52083,0.00021
3206.55645,0.00019
3205.59207,0.00021
3204.62770,0.00025
3203.66332,0.00029
3202.69894,0.00033
3201.73456,0.00035
3200.77018,0.00037
3199.80581,0.00038
3198.84143,0.00040
3197.87705,0.00043
3196.91267,0.00045
3195.94829,0.00045
3194.98392,0.00046
3194.01954,0.00048
3193.05516,0.00049
3192.09078,0.00052
3191.12641,0.00054
3190.16203,0.00055
3189.19765,0.00054
3188.23327,0.00053
3187.26889,0.00051
3186.30452,0.00048
3185.34014,0.00046
3184.37576,0.00044
3183.41138,0.00041
3182.44700,0.00039
3181.48263,0.00038
3180.51825,0.00036
3179.55387,0.00031
3178.58949,0.00026
3177.62512,0.00020
3176.66074,0.00017
3175.69636,0.00018
3174.73198,0.00024
3173.76760,0.00029
3172.80323,0.00034
3171.83885,0.00038
3170.87447,0.00043
3169.91009,0.00048
3168.94571,0.00052
3167.98134,0.00055
3167.01696,0.00052
3166.05258,0.00045
3165.08820,0.00040
3164.12382,0.00037
3163.15945,0.00034
3162.19507,0.00030
3161.23069,0.00025
3160.26631,0.00019
3159.30194,0.00016
3158.33756,0.00017
3157.37318,0.00022
3156.40880,0.00026
3155.44442,0.00027
3154.48005,0.00027
3153.51567,0.00029
3152.55129,0.00033
3151.58691,0.00035
3150.62253,0.00037
3149.65816,0.00040
3148.69378,0.00043
3147.72940,0.00046
3146.76502,0.00049
3145.80065,0.00050
3144.83627,0.00048
3143.87189,0.00043
3142.90751,0.00038
3141.94313,0.00034
3140.97876,0.00031
3140.01438,0.00029
3139.05000,0.00031
3138.08562,0.00035
3137.12124,0.00038
3136.15687,0.00040
3135.19249,0.00042
3134.22811,0.00045
3133.26373,0.00047
3132.29935,0.00047
3131.33498,0.00048
3130.37060,0.00049
3129.40622,0.00048
3128.44184,0.00046
3127.47747,0.00043
3126.51309,0.00039
3125.54871,0.00034
3124.58433,0.00029
3123.61995,0.00025
3122.65558,0.00022
3121.69120,0.00020
3120.72682,0.00018
3119.76244,0.00018
3118.79806,0.00020
3117.83369,0.00023
3116.86931,0.00025
3115.90493,0.00027
3114.94055,0.00028
3113.97618,0.00027
3113.01180,0.00025
3112.04742,0.00023
3111.08304,0.00022
3110.11866,0.00020
3109.15429,0.00017
3108.18991,0.00015
3107.22553,0.00014
3106.26115,0.00015
3105.29677,0.00014
3104.33240,0.00013
3103.36802,0.00012
3102.40364,0.00014
3101.43926,0.00017
3100.47488,0.00021
3099.51051,0.00023
3098.54613,0.00023
3097.58175,0.00023
3096.61737,0.00022
3095.65300,0.00022
3094.68862,0.00021
3093.72424,0.00021
3092.75986,0.00022
3091.79548,0.00024
3090.83111,0.00026
3089.86673,0.00028
3088.90235,0.00029
3087.93797,0.00028
3086.97359,0.00027
3086.00922,0.00026
3085.04484,0.00025
3084.08046,0.00023
3083.11608,0.00021
3082.15171,0.00019
3081.18733,0.00018
3080.22295,0.00019
3079.25857,0.00022
3078.29419,0.00025
3077.32982,0.00027
3076.36544,0.00029
3075.40106,0.00034
3074.43668,0.00039
3073.47230,0.00043
3072.50793,0.00045
3071.54355,0.00045
3070.57917,0.00042
3069.61479,0.00039
3068.65041,0.00037
3067.68604,0.00033
3066.72166,0.00025
3065.75728,0.00016
3064.79290,0.00011
3063.82853,0.00011
3062.86415,0.00012
3061.89977,0.00015
3060.93539,0.00018
3059.97101,0.00021
3059.00664,0.00025
3058.04226,0.00030
3057.07788,0.00036
3056.11350,0.00040
3055.14912,0.00039
3054.18475,0.00039
3053.22037,0.00041
3052.25599,0.00043
3051.29161,0.00044
3050.32724,0.00045
3049.36286,0.00044
3048.39848,0.00043
3047.43410,0.00042
3046.46972,0.00042
3045.50535,0.00043
3044.54097,0.00043
3043.57659,0.00043
3042.61221,0.00042
3041.64783,0.00042
3040.68346,0.00043
3039.71908,0.00043
3038.75470,0.00043
3037.79032,0.00041
3036.82594,0.00037
3035.86157,0.00033
3034.89719,0.00031
3033.93281,0.00031
3032.96843,0.00033
3032.00406,0.00035
3031.03968,0.00033
3030.07530,0.00030
3029.11092,0.00027
3028.14654,0.00026
3027.18217,0.00026
3026.21779,0.00027
3025.25341,0.00028
3024.28903,0.00031
3023.32465,0.00036
3022.36028,0.00041
3021.39590,0.00043
3020.43152,0.00042
3019.46714,0.00038
3018.50276,0.00032
3017.53839,0.00027
3016.57401,0.00026
3015.60963,0.00029
3014.64525,0.00032
3013.68088,0.00035
3012.71650,0.00038
3011.75212,0.00040
3010.78774,0.00041
3009.82336,0.00041
3008.85899,0.00039
3007.89461,0.00038
3006.93023,0.00038
3005.96585,0.00039
3005.00147,0.00040
3004.03710,0.00040
3003.07272,0.00037
3002.10834,0.00032
3001.14396,0.00027
3000.17959,0.00026
2999.21521,0.00027
2998.25083,0.00029
2997.28645,0.00032
2996.32207,0.00037
2995.35770,0.00043
2994.39332,0.00047
2993.42894,0.00049
2992.46456,0.00049
2991.50018,0.00047
2990.53581,0.00046
2989.57143,0.00044
2988.60705,0.00043
2987.64267,0.00043
2986.67829,0.00041
2985.71392,0.00039
2984.74954,0.00038
2983.78516,0.00037
2982.82078,0.00037
2981.85641,0.00038
2980.89203,0.00039
2979.92765,0.00041
2978.96327,0.00042
2977.99889,0.00043
2977.03452,0.00042
2976.07014,0.00040
2975.10576,0.00040
2974.14138,0.00043
2973.17700,0.00050
2972.21263,0.00056
2971.24825,0.00061
2970.28387,0.00065
2969.31949,0.00068
2968.35512,0.00073
2967.39074,0.00080
2966.42636,0.00087
2965.46198,0.00090
2964.49760,0.00093
2963.53323,0.00098
2962.56885,0.00104
2961.60447,0.00108
2960.64009,0.00109
2959.67571,0.00109
2958.71134,0.00109
2957.74696,0.00108
2956.78258,0.00108
2955.81820,0.00109
2954.85382,0.00108
2953.88945,0.00106
2952.92507,0.00105
2951.96069,0.00105
2950.99631,0.00105
2950.03194,0.00104
2949.06756,0.00105
2948.10318,0.00108
2947.13880,0.00111
2946.17442,0.00115
2945.21005,0.00120
2944.24567,0.00127
2943.28129,0.00134
2942.31691,0.00140
2941.35253,0.00146
2940.38816,0.00151
2939.42378,0.00156
2938.45940,0.00162
2937.49502,0.00168
2936.53065,0.00176
2935.56627,0.00183
2934.60189,0.00191
2933.63751,0.00201
2932.67313,0.00213
2931.70876,0.00224
2930.74438,0.00235
2929.78000,0.00245
2928.81562,0.00256
2927.85124,0.00265
2926.88687,0.00274
2925.92249,0.00281
2924.95811,0.00286
2923.99373,0.00289
2923.02935,0.00289
2922.06498,0.00288
2921.10060,0.00286
2920.13622,0.00282
2919.17184,0.00277
2918.20747,0.00269
2917.24309,0.00260
2916.27871,0.00247
2915.31433,0.00232
2914.34995,0.00218
2913.38558,0.00206
2912.42120,0.00193
2911.45682,0.00183
2910.49244,0.00174
2909.52806,0.00167
2908.56369,0.00160
2907.59931,0.00153
2906.63493,0.00146
2905.67055,0.00139
2904.70618,0.00131
2903.74180,0.00124
2902.77742,0.00118
2901.81304,0.00115
2900.84866,0.00112
2899.88429,0.00110
2898.91991,0.00111
2897.95553,0.00111
2896.99115,0.00111
2896.02677,0.00109
2895.06240,0.00107
2894.09802,0.00104
2893.13364,0.00101
2892.16926,0.00098
2891.20488,0.00095
2890.24051,0.00094
2889.27613,0.00092
2888.31175,0.00091
2887.34737,0.00090
2886.38300,0.00088
2885.41862,0.00087
2884.45424,0.00084
2883.48986,0.00082
2882.52548,0.00079
2881.56111,0.00075
2880.59673,0.00073
2879.63235,0.00072
2878.66797,0.00073
2877.70359,0.00075
2876.73922,0.00076
2875.77484,0.00078
2874.81046,0.00080
2873.84608,0.00083
2872.88171,0.00085
2871.91733,0.00088
2870.95295,0.00091
2869.98857,0.00095
2869.02419,0.00098
2868.05982,0.00101
2867.09544,0.00103
2866.13106,0.00104
2865.16668,0.00106
2864.20230,0.00108
2863.23793,0.00110
2862.27355,0.00114
2861.30917,0.00121
2860.34479,0.00131
2859.38041,0.00142
2858.41604,0.00155
2857.45166,0.00166
2856.48728,0.00176
2855.52290,0.00183
2854.55853,0.00188
2853.59415,0.00190
2852.62977,0.00189
2851.66539,0.00183
2850.70101,0.00177
2849.73664,0.00171
2848.77226,0.00164
2847.80788,0.00155
2846.84350,0.00146
2845.87912,0.00136
2844.91475,0.00126
2843.95037,0.00115
2842.98599,0.00105
2842.02161,0.00094
2841.05724,0.00084
2840.09286,0.00075
2839.12848,0.00069
2838.16410,0.00065
2837.19972,0.00063
2836.23535,0.00063
2835.27097,0.00064
2834.30659,0.00064
2833.34221,0.00064
2832.37783,0.00062
2831.41346,0.00059
2830.44908,0.00057
2829.48470,0.00056
2828.52032,0.00054
2827.55594,0.00052
2826.59157,0.00050
2825.62719,0.00051
2824.66281,0.00051
2823.69843,0.00051
2822.73406,0.00049
2821.76968,0.00045
2820.80530,0.00041
2819.84092,0.00038
2818.87654,0.00038
2817.91217,0.00039
2816.94779,0.00042
2815.98341,0.00046
2815.01903,0.00050
2814.05465,0.00053
2813.09028,0.00053
2812.12590,0.00051
2811.16152,0.00047
2810.19714,0.00042
2809.23276,0.00037
2808.26839,0.00034
2807.30401,0.00032
2806.33963,0.00031
2805.37525,0.00032
2804.41088,0.00034
2803.44650,0.00036
2802.48212,0.00036
2801.51774,0.00036
2800.55336,0.00034
2799.58899,0.00034
2798.62461,0.00035
2797.66023,0.00035
2796.69585,0.00035
2795.73147,0.00034
2794.76710,0.00033
2793.80272,0.00033
2792.83834,0.00034
2791.87396,0.00035
2790.90959,0.00035
2789.94521,0.00036
2788.98083,0.00038
2788.01645,0.00042
2787.05207,0.00044
2786.08770,0.00045
2785.12332,0.00044
2784.15894,0.00041
2783.19456,0.00039
2782.23018,0.00038
2781.26581,0.00036
2780.30143,0.00034
2779.33705,0.00033
2778.37267,0.00033
2777.40829,0.00034
2776.44392,0.00036
2775.47954,0.00038
2774.51516,0.00038
2773.55078,0.00037
2772.58641,0.00035
2771.62203,0.00033
2770.65765,0.00030
2769.69327,0.00028
2768.72889,0.00025
2767.76452,0.00023
2766.80014,0.00022
2765.83576,0.00023
2764.87138,0.00026
2763.90700,0.00028
2762.94263,0.00027
2761.97825,0.00026
2761.01387,0.00026
2760.04949,0.00026
2759.08512,0.00024
2758.12074,0.00022
2757.15636,0.00021
2756.19198,0.00022
2755.22760,0.00025
2754.26323,0.00029
2753.29885,0.00034
2752.33447,0.00037
2751.37009,0.00040
2750.40571,0.00041
2749.44134,0.00042
2748.47696,0.00041
2747.51258,0.00040
2746.54820,0.00037
2745.58382,0.00036
2744.61945,0.00035
2743.65507,0.00033
2742.69069,0.00032
2741.72631,0.00032
2740.76194,0.00033
2739.79756,0.00034
2738.83318,0.00035
2737.86880,0.00035
2736.90442,0.00034
2735.94005,0.00034
2734.97567,0.00035
2734.01129,0.00035
2733.04691,0.00036
2732.08253,0.00036
2731.11816,0.00035
2730.15378,0.00033
2729.18940,0.00030
2728.22502,0.00030
2727.26065,0.00030
2726.29627,0.00031
2725.33189,0.00031
2724.36751,0.00030
2723.40313,0.00031
2722.43876,0.00031
2721.47438,0.00031
2720.51000,0.00028
2719.54562,0.00025
2718.58124,0.00022
2717.61687,0.00019
2716.65249,0.00019
2715.68811,0.00021
2714.72373,0.00023
2713.75935,0.00026
2712.79498,0.00028
2711.83060,0.00030
2710.86622,0.00030
2709.90184,0.00029
2708.93747,0.00028
2707.97309,0.00028
2707.00871,0.00026
2706.04433,0.00022
2705.07995,0.00020
2704.11558,0.00018
2703.15120,0.00018
2702.18682,0.00019
2701.22244,0.00020
2700.25806,0.00022
2699.29369,0.00023
2698.32931,0.00023
2697.36493,0.00023
2696.40055,0.00021
2695.43618,0.00019
2694.47180,0.00018
2693.50742,0.00018
2692.54304,0.00019
2691.57866,0.00020
2690.61429,0.00021
2689.64991,0.00025
2688.68553,0.00027
2687.72115,0.00028
2686.75677,0.00026
2685.79240,0.00022
2684.82802,0.00019
2683.86364,0.00017
2682.89926,0.00015
2681.93488,0.00014
2680.97051,0.00012
2680.00613,0.00012
2679.04175,0.00013
2678.07737,0.00015
2677.11300,0.00017
2676.14862,0.00019
2675.18424,0.00020
2674.21986,0.00023
2673.25548,0.00025
2672.29111,0.00028
2671.32673,0.00029
2670.36235,0.00031
2669.39797,0.00033
2668.43359,0.00035
2667.46922,0.00036
2666.50484,0.00037
2665.54046,0.00036
2664.57608,0.00033
2663.61171,0.00031
2662.64733,0.00028
2661.68295,0.00027
2660.71857,0.00025
2659.75419,0.00024
2658.78982,0.00023
2657.82544,0.00023
2656.86106,0.00024
2655.89668,0.00026
2654.93230,0.00027
2653.96793,0.00028
2653.00355,0.00028
2652.03917,0.00026
2651.07479,0.00025
2650.11041,0.00026
2649.14604,0.00028
2648.18166,0.00030
2647.21728,0.00031
2646.25290,0.00033
2645.28853,0.00034
2644.32415,0.00034
2643.35977,0.00033
2642.39539,0.00030
2641.43101,0.00026
2640.46664,0.00024
2639.50226,0.00023
2638.53788,0.00024
2637.57350,0.00027
2636.60912,0.00032
2635.64475,0.00036
2634.68037,0.00038
2633.71599,0.00039
2632.75161,0.00040
2631.78724,0.00040
2630.82286,0.00040
2629.85848,0.00041
2628.89410,0.00042
2627.92972,0.00041
2626.96535,0.00038
2626.00097,0.00034
2625.03659,0.00031
2624.07221,0.00029
2623.10783,0.00026
2622.14346,0.00024
2621.17908,0.00024
2620.21470,0.00026
2619.25032,0.00027
2618.28594,0.00028
2617.32157,0.00028
2616.35719,0.00027
2615.39281,0.00024
2614.42843,0.00021
2613.46406,0.00019
2612.49968,0.00019
2611.53530,0.00018
2610.57092,0.00016
2609.60654,0.00017
2608.64217,0.00020
2607.67779,0.00022
2606.71341,0.00024
2605.74903,0.00025
2604.78465,0.00026
2603.82028,0.00025
2602.85590,0.00025
2601.89152,0.00025
2600.92714,0.00025
2599.96276,0.00024
2598.99839,0.00024
2598.03401,0.00025
2597.06963,0.00027
2596.10525,0.00028
2595.14088,0.00028
2594.17650,0.00025
2593.21212,0.00021
2592.24774,0.00018
2591.28336,0.00016
2590.31899,0.00014
2589.35461,0.00012
2588.39023,0.00011
2587.42585,0.00011
2586.46147,0.00013
2585.49710,0.00015
2584.53272,0.00016
2583.56834,0.00017
2582.60396,0.00017
2581.63959,0.00018
2580.67521,0.00022
2579.71083,0.00027
2578.74645,0.00030
2577.78207,0.00032
2576.81770,0.00034
2575.85332,0.00036
2574.88894,0.00035
2573.92456,0.00030
2572.96018,0.00022
2571.99581,0.00014
2571.03143,0.00007
2570.06705,0.00003
2569.10267,0.00003
2568.13829,0.00004
2567.17392,0.00007
2566.20954,0.00010
2565.24516,0.00013
2564.28078,0.00013
2563.31641,0.00011
2562.35203,0.00007
2561.38765,0.00001
2560.42327,-0.00003
2559.45889,-0.00003
2558.49452,0.00000
2557.53014,0.00006
2556.56576,0.00015
2555.60138,0.00024
2554.63700,0.00031
2553.67263,0.00035
2552.70825,0.00037
2551.74387,0.00039
2550.77949,0.00041
2549.81512,0.00042
2548.85074,0.00045
2547.88636,0.00050
2546.92198,0.00054
2545.95760,0.00057
2544.99323,0.00055
2544.02885,0.00050
2543.06447,0.00045
2542.10009,0.00040
2541.13571,0.00035
2540.17134,0.00032
2539.20696,0.00030
2538.24258,0.00027
2537.27820,0.00024
2536.31382,0.00022
2535.34945,0.00021
2534.38507,0.00020
2533.42069,0.00020
2532.45631,0.00023
2531.49194,0.00027
2530.52756,0.00028
2529.56318,0.00028
2528.59880,0.00027
2527.63442,0.00024
2526.67005,0.00017
2525.70567,0.00009
2524.74129,0.00001
2523.77691,-0.00004
2522.81253,-0.00006
2521.84816,-0.00005
2520.88378,-0.00002
2519.91940,0.00002
2518.95502,0.00005
2517.99065,0.00005
2517.02627,0.00003
2516.06189,0.00003
2515.09751,0.00006
2514.13313,0.00008
2513.16876,0.00009
2512.20438,0.00008
2511.24000,0.00004
2510.27562,-0.00002
2509.31124,-0.00007
2508.34687,-0.00010
2507.38249,-0.00012
2506.41811,-0.00013
2505.45373,-0.00008
2504.48935,0.00005
2503.52498,0.00022
2502.56060,0.00037
2501.59622,0.00047
2500.63184,0.00051
2499.66747,0.00046
2498.70309,0.00034
2497.73871,0.00020
2496.77433,0.00006
2495.80995,-0.00004
2494.84558,-0.00012
2493.88120,-0.00015
2492.91682,-0.00013
2491.95244,-0.00007
2490.98806,0.00001
2490.02369,0.00010
2489.05931,0.00015
2488.09493,0.00019
2487.13055,0.00026
2486.16618,0.00033
2485.20180,0.00040
2484.23742,0.00042
2483.27304,0.00040
2482.30866,0.00034
2481.34429,0.00026
2480.37991,0.00019
2479.41553,0.00014
2478.45115,0.00012
2477.48677,0.00010
2476.52240,0.00010
2475.55802,0.00011
2474.59364,0.00016
2473.62926,0.00023
2472.66488,0.00030
2471.70051,0.00034
2470.73613,0.00033
2469.77175,0.00030
2468.80737,0.00027
2467.84300,0.00025
2466.87862,0.00021
2465.91424,0.00015
2464.94986,0.00008
2463.98548,0.00005
2463.02111,0.00005
2462.05673,0.00006
2461.09235,0.00006
2460.12797,0.00008
2459.16359,0.00011
2458.19922,0.00013
2457.23484,0.00013
2456.27046,0.00009
2455.30608,0.00004
2454.34171,0.00002
2453.37733,0.00002
2452.41295,0.00002
2451.44857,-0.00001
2450.48419,-0.00007
2449.51982,-0.00008
2448.55544,-0.00003
2447.59106,0.00004
2446.62668,0.00013
2445.66230,0.00019
2444.69793,0.00022
2443.73355,0.00025
2442.76917,0.00028
2441.80479,0.00030
2440.84041,0.00028
2439.87604,0.00024
2438.91166,0.00020
2437.94728,0.00018
2436.98290,0.00020
2436.01853,0.00024
2435.05415,0.00028
2434.08977,0.00032
2433.12539,0.00036
2432.16101,0.00040
2431.19664,0.00042
2430.23226,0.00043
2429.26788,0.00041
2428.30350,0.00037
2427.33912,0.00031
2426.37475,0.00025
2425.41037,0.00022
2424.44599,0.00021
2423.48161,0.00020
2422.51724,0.00017
2421.55286,0.00014
2420.58848,0.00012
2419.62410,0.00014
2418.65972,0.00018
2417.69535,0.00020
2416.73097,0.00016
2415.76659,0.00011
2414.80221,0.00010
2413.83783,0.00013
2412.87346,0.00016
2411.90908,0.00016
2410.94470,0.00015
2409.98032,0.00015
2409.01594,0.00017
2408.05157,0.00019
2407.08719,0.00017
2406.12281,0.00012
2405.15843,0.00007
2404.19406,0.00004
2403.22968,0.00004
2402.26530,0.00003
2401.30092,0.00003
2400.33654,0.00007
2399.37217,0.00014
2398.40779,0.00019
2397.44341,0.00022
2396.47903,0.00021
2395.51465,0.00019
2394.55028,0.00018
2393.58590,0.00019
2392.62152,0.00020
2391.65714,0.00019
2390.69276,0.00016
2389.72839,0.00013
2388.76401,0.00014
2387.79963,0.00016
2386.83525,0.00017
2385.87088,0.00019
2384.90650,0.00020
2383.94212,0.00023
2382.97774,0.00028
2382.01336,0.00035
2381.04899,0.00043
2380.08461,0.00051
2379.12023,0.00057
2378.15585,0.00066
2377.19147,0.00079
2376.22710,0.00095
2375.26272,0.00113
2374.29834,0.00131
2373.33396,0.00148
2372.36959,0.00168
2371.40521,0.00188
2370.44083,0.00209
2369.47645,0.00227
2368.51207,0.00242
2367.54770,0.00253
2366.58332,0.00263
2365.61894,0.00274
2364.65456,0.00284
2363.69018,0.00291
2362.72581,0.00294
2361.76143,0.00297
2360.79705,0.00299
2359.83267,0.00299
2358.86829,0.00296
2357.90392,0.00288
2356.93954,0.00275
2355.97516,0.00258
2355.01078,0.00238
2354.04641,0.00215
2353.08203,0.00188
2352.11765,0.00162
2351.15327,0.00141
2350.18889,0.00127
2349.22452,0.00121
2348.26014,0.00123
2347.29576,0.00132
2346.33138,0.00146
2345.36700,0.00163
2344.40263,0.00181
2343.43825,0.00199
2342.47387,0.00212
2341.50949,0.00221
2340.54512,0.00226
2339.58074,0.00229
2338.61636,0.00228
2337.65198,0.00227
2336.68760,0.00224
2335.72323,0.00219
2334.75885,0.00214
2333.79447,0.00211
2332.83009,0.00211
2331.86571,0.00211
2330.90134,0.00209
2329.93696,0.00204
2328.97258,0.00196
2328.00820,0.00187
2327.04382,0.00179
2326.07945,0.00173
2325.11507,0.00166
2324.15069,0.00159
2323.18631,0.00155
2322.22194,0.00153
2321.25756,0.00150
2320.29318,0.00143
2319.32880,0.00133
2318.36442,0.00119
2317.40005,0.00104
2316.43567,0.00092
2315.47129,0.00084
2314.50691,0.00080
2313.54253,0.00076
2312.57816,0.00073
2311.61378,0.00073
2310.64940,0.00074
2309.68502,0.00072
2308.72065,0.00069
2307.75627,0.00063
2306.79189,0.00055
2305.82751,0.00048
2304.86313,0.00041
2303.89876,0.00035
2302.93438,0.00030
2301.97000,0.00026
2301.00562,0.00019
2300.04124,0.00013
2299.07687,0.00006
2298.11249,0.00001
2297.14811,-0.00002
2296.18373,-0.00005
2295.21935,-0.00007
2294.25498,-0.00008
2293.29060,-0.00005
2292.32622,0.00003
2291.36184,0.00012
2290.39747,0.00016
2289.43309,0.00016
2288.46871,0.00017
2287.50433,0.00020
2286.53995,0.00022
2285.57558,0.00018
2284.61120,0.00007
2283.64682,-0.00006
2282.68244,-0.00018
2281.71806,-0.00024
2280.75369,-0.00027
2279.78931,-0.00031
2278.82493,-0.00037
2277.86055,-0.00040
2276.89618,-0.00039
2275.93180,-0.00033
2274.96742,-0.00029
2274.00304,-0.00027
2273.03866,-0.00026
2272.07429,-0.00025
2271.10991,-0.00021
2270.14553,-0.00014
2269.18115,-0.00012
2268.21677,-0.00023
2267.25240,-0.00045
2266.28802,-0.00066
2265.32364,-0.00076
2264.35926,-0.00076
2263.39488,-0.00067
2262.43051,-0.00049
2261.46613,-0.00026
2260.50175,-0.00004
2259.53737,0.00017
2258.57300,0.00035
2257.60862,0.00040
2256.64424,0.00026
2255.67986,-0.00002
2254.71548,-0.00025
2253.75111,-0.00039
2252.78673,-0.00048
2251.82235,-0.00059
2250.85797,-0.00077
2249.89359,-0.00098
2248.92922,-0.00114
2247.96484,-0.00123
2247.00046,-0.00128
2246.03608,-0.00127
2245.07171,-0.00118
2244.10733,-0.00102
2243.14295,-0.00080
2242.17857,-0.00057
2241.21419,-0.00041
2240.24982,-0.00041
2239.28544,-0.00055
2238.32106,-0.00067
2237.35668,-0.00067
2236.39230,-0.00060
2235.42793,-0.00058
2234.46355,-0.00058
2233.49917,-0.00054
2232.53479,-0.00053
2231.57041,-0.00063
2230.60604,-0.00078
2229.64166,-0.00091
2228.67728,-0.00101
2227.71290,-0.00102
2226.74853,-0.00085
2225.78415,-0.00060
2224.81977,-0.00047
2223.85539,-0.00048
2222.89101,-0.00045
2221.92664,-0.00035
2220.96226,-0.00035
2219.99788,-0.00049
2219.03350,-0.00065
2218.06912,-0.00079
2217.10475,-0.00089
2216.14037,-0.00090
2215.17599,-0.00086
2214.21161,-0.00082
2213.24724,-0.00079
2212.28286,-0.00067
2211.31848,-0.00039
2210.35410,-0.00012
2209.38972,-0.00001
2208.42535,0.00001
2207.46097,-0.00000
2206.49659,-0.00006
2205.53221,-0.00013
2204.56783,-0.00017
2203.60346,-0.00018
2202.63908,-0.00011
2201.67470,0.00000
2200.71032,0.00010
2199.74594,0.00015
2198.78157,0.00017
2197.81719,0.00015
2196.85281,0.00013
2195.88843,0.00013
2194.92406,0.00013
2193.95968,0.00013
2192.99530,0.00013
2192.03092,0.00013
2191.06654,0.00013
2190.10217,0.00012
2189.13779,0.00012
2188.17341,0.00012
2187.20903,0.00012
2186.24465,0.00012
2185.28028,0.00012
2184.31590,0.00012
2183.35152,0.00012
2182.38714,0.00012
2181.42276,0.00012
2180.45839,0.00012
2179.49401,0.00012
2178.52963,0.00012
2177.56525,0.00012
2176.60088,0.00012
2175.63650,0.00012
2174.67212,0.00012
2173.70774,0.00012
2172.74336,0.00012
2171.77899,0.00012
2170.81461,0.00012
2169.85023,0.00012
2168.88585,0.00012
2167.92147,0.00012
2166.95710,0.00012
2165.99272,0.00012
2165.02834,0.00012
2164.06396,0.00012
2163.09959,0.00012
2162.13521,0.00012
2161.17083,0.00012
2160.20645,0.00012
2159.24207,0.00012
2158.27770,0.00012
2157.31332,0.00012
2156.34894,0.00012
2155.38456,0.00012
2154.42018,0.00012
2153.45581,0.00012
2152.49143,0.00012
2151.52705,0.00012
2150.56267,0.00012
2149.59829,0.00012
2148.63392,0.00012
2147.66954,0.00012
2146.70516,0.00012
2145.74078,0.00012
2144.77641,0.00012
2143.81203,0.00012
2142.84765,0.00012
2141.88327,0.00012
2140.91889,0.00012
2139.95452,0.00012
2138.99014,0.00012
2138.02576,0.00012
2137.06138,0.00012
2136.09700,0.00012
2135.13263,0.00012
2134.16825,0.00012
2133.20387,0.00012
2132.23949,0.00012
2131.27512,0.00012
2130.31074,0.00012
2129.34636,0.00012
2128.38198,0.00012
2127.41760,0.00012
2126.45323,0.00012
2125.48885,0.00012
2124.52447,0.00012
2123.56009,0.00012
2122.59571,0.00012
2121.63134,0.00012
2120.66696,0.00012
2119.70258,0.00012
2118.73820,0.00012
2117.77382,0.00012
2116.80945,0.00012
2115.84507,0.00012
2114.88069,0.00012
2113.91631,0.00012
2112.95194,0.00012
2111.98756,0.00012
2111.02318,0.00012
2110.05880,0.00012
2109.09442,0.00012
2108.13005,0.00012
2107.16567,0.00012
2106.20129,0.00012
2105.23691,0.00012
2104.27253,0.00012
2103.30816,0.00012
2102.34378,0.00012
2101.37940,0.00012
2100.41502,0.00012
2099.45065,0.00012
2098.48627,0.00012
2097.52189,0.00012
2096.55751,0.00012
2095.59313,0.00012
2094.62876,0.00012
2093.66438,0.00012
2092.70000,0.00012
2091.73562,0.00012
2090.77124,0.00012
2089.80687,0.00012
2088.84249,0.00012
2087.87811,0.00012
2086.91373,0.00012
2085.94935,0.00012
2084.98498,0.00012
2084.02060,0.00012
2083.05622,0.00012
2082.09184,0.00012
2081.12747,0.00012
2080.16309,0.00012
2079.19871,0.00012
2078.23433,0.00012
2077.26995,0.00012
2076.30558,0.00012
2075.34120,0.00012
2074.37682,0.00012
2073.41244,0.00012
2072.44806,0.00012
2071.48369,0.00012
2070.51931,0.00012
2069.55493,0.00012
2068.59055,0.00012
2067.62618,0.00012
2066.66180,0.00012
2065.69742,0.00012
2064.73304,0.00012
2063.76866,0.00012
2062.80429,0.00012
2061.83991,0.00012
2060.87553,0.00012
2059.91115,0.00012
2058.94677,0.00012
2057.98240,0.00012
2057.01802,0.00012
2056.05364,0.00012
2055.08926,0.00012
2054.12488,0.00012
2053.16051,0.00012
2052.19613,0.00012
2051.23175,0.00012
2050.26737,0.00012
2049.30300,0.00012
2048.33862,0.00012
2047.37424,0.00011
2046.40986,0.00011
2045.44548,0.00011
2044.48111,0.00011
2043.51673,0.00011
2042.55235,0.00011
2041.58797,0.00011
2040.62359,0.00011
2039.65922,0.00011
2038.69484,0.00011
2037.73046,0.00011
2036.76608,0.00011
2035.80171,0.00011
2034.83733,0.00011
2033.87295,0.00011
2032.90857,0.00011
2031.94419,0.00011
2030.97982,0.00011
2030.01544,0.00011
2029.05106,0.00011
2028.08668,0.00011
2027.12230,0.00011
2026.15793,0.00011
2025.19355,0.00011
2024.22917,0.00011
2023.26479,0.00011
2022.30041,0.00011
2021.33604,0.00011
2020.37166,0.00011
2019.40728,0.00011
2018.44290,0.00011
2017.47853,0.00011
2016.51415,0.00011
2015.54977,0.00011
2014.58539,0.00011
2013.62101,0.00011
2012.65664,0.00011
2011.69226,0.00011
2010.72788,0.00011
2009.76350,0.00011
2008.79912,0.00011
2007.83475,0.00011
2006.87037,0.00011
2005.90599,0.00011
2004.94161,0.00011
2003.97724,0.00011
2003.01286,0.00011
2002.04848,0.00011
2001.08410,0.00011
2000.11972,0.00011
1999.15535,0.00011
1998.19097,0.00011
1997.22659,0.00011
1996.26221,0.00011
1995.29783,0.00011
1994.33346,0.00011
1993.36908,0.00011
1992.40470,0.00011
1991.44032,0.00011
1990.47594,0.00011
1989.51157,0.00011
1988.54719,0.00011
1987.58281,0.00011
1986.61843,0.00011
1985.65406,0.00011
1984.68968,0.00011
1983.72530,0.00011
1982.76092,0.00011
1981.79654,0.00011
1980.83217,0.00011
1979.86779,0.00011
1978.90341,0.00011
1977.93903,0.00011
1976.97465,0.00011
1976.01028,0.00011
1975.04590,0.00011
1974.08152,0.00011
1973.11714,0.00011
1972.15276,0.00011
1971.18839,0.00011
1970.22401,0.00011
1969.25963,0.00011
1968.29525,0.00011
1967.33088,0.00011
1966.36650,0.00011
1965.40212,0.00011
1964.43774,0.00011
1963.47336,0.00011
1962.50899,0.00013
1961.54461,0.00017
1960.58023,0.00017
1959.61585,0.00010
1958.65147,0.00001
1957.68710,-0.00020
1956.72272,-0.00052
1955.75834,-0.00073
1954.79396,-0.00067
1953.82959,-0.00044
1952.86521,-0.00021
1951.90083,-0.00002
1950.93645,0.00019
1949.97207,0.00041
1949.00770,0.00052
1948.04332,0.00054
1947.07894,0.00051
1946.11456,0.00030
1945.15018,-0.00005
1944.18581,-0.00030
1943.22143,-0.00040
1942.25705,-0.00051
1941.29267,-0.00069
1940.32829,-0.00087
1939.36392,-0.00096
1938.39954,-0.00095
1937.43516,-0.00082
1936.47078,-0.00053
1935.50641,-0.00018
1934.54203,0.00005
1933.57765,0.00014
1932.61327,0.00018
1931.64889,0.00017
1930.68452,0.00006
1929.72014,-0.00009
1928.75576,-0.00023
1927.79138,-0.00036
1926.82700,-0.00048
1925.86263,-0.00053
1924.89825,-0.00050
1923.93387,-0.00045
1922.96949,-0.00035
1922.00512,-0.00019
1921.04074,-0.00001
1920.07636,0.00010
1919.11198,0.00018
1918.14760,0.00031
1917.18323,0.00050
1916.21885,0.00066
1915.25447,0.00072
1914.29009,0.00072
1913.32571,0.00070
1912.36134,0.00066
1911.39696,0.00059
1910.43258,0.00048
1909.46820,0.00030
1908.50382,0.00009
1907.53945,-0.00009
1906.57507,-0.00017
1905.61069,-0.00016
1904.64631,-0.00010
1903.68194,-0.00006
1902.71756,-0.00004
1901.75318,-0.00001
1900.78880,0.00000
1899.82442,0.00001
1898.86005,0.00001
1897.89567,-0.00002
1896.93129,-0.00005
1895.96691,-0.00004
1895.00253,0.00004
1894.03816,0.00018
1893.07378,0.00029
1892.10940,0.00031
1891.14502,0.00027
1890.18065,0.00023
1889.21627,0.00020
1888.25189,0.00014
1887.28751,0.00002
1886.32313,-0.00014
1885.35876,-0.00027
1884.39438,-0.00034
1883.43000,-0.00034
1882.46562,-0.00030
1881.50124,-0.00026
1880.53687,-0.00023
1879.57249,-0.00018
1878.60811,-0.00009
1877.64373,0.00001
1876.67935,0.00007
1875.71498,0.00011
1874.75060,0.00016
1873.78622,0.00023
1872.82184,0.00030
1871.85747,0.00032
1870.89309,0.00031
1869.92871,0.00030
1868.96433,0.00029
1867.99995,0.00027
1867.03558,0.00022
1866.07120,0.00014
1865.10682,0.00005
1864.14244,-0.00000
1863.17806,-0.00002
1862.21369,-0.00006
1861.24931,-0.00012
1860.28493,-0.00020
1859.32055,-0.00024
1858.35618,-0.00023
1857.39180,-0.00016
1856.42742,-0.00009
1855.46304,-0.00004
1854.49866,-0.00002
1853.53429,0.00001
1852.56991,0.00005
1851.60553,0.00006
1850.64115,0.00004
1849.67677,0.00001
1848.71240,0.00000
1847.74802,0.00000
1846.78364,0.00003
1845.81926,0.00007
1844.85488,0.00010
1843.89051,0.00012
1842.92613,0.00016
1841.96175,0.00021
1840.99737,0.00025
1840.03300,0.00027
1839.06862,0.00026
1838.10424,0.00025
1837.13986,0.00024
1836.17548,0.00021
1835.21111,0.00017
1834.24673,0.00014
1833.28235,0.00011
1832.31797,0.00010
1831.35359,0.00012
1830.38922,0.00015
1829.42484,0.00017
1828.46046,0.00018
1827.49608,0.00019
1826.53171,0.00021
1825.56733,0.00022
1824.60295,0.00023
1823.63857,0.00021
1822.67419,0.00021
1821.70982,0.00022
1820.74544,0.00022
1819.78106,0.00022
1818.81668,0.00023
1817.85230,0.00023
1816.88793,0.00021
1815.92355,0.00018
1814.95917,0.00016
1813.99479,0.00013
1813.03041,0.00010
1812.06604,0.00007
1811.10166,0.00004
1810.13728,0.00002
1809.17290,0.00003
1808.20853,0.00005
1807.24415,0.00009
1806.27977,0.00012
1805.31539,0.00014
1804.35101,0.00016
1803.38664,0.00018
1802.42226,0.00019
1801.45788,0.00018
1800.49350,0.00016
1799.52912,0.00012
1798.56475,0.00009
1797.60037,0.00008
1796.63599,0.00009
1795.67161,0.00009
1794.70724,0.00007
1793.74286,0.00006
1792.77848,0.00007
1791.81410,0.00010
1790.84972,0.00012
1789.88535,0.00014
1788.92097,0.00015
1787.95659,0.00015
1786.99221,0.00015
1786.02783,0.00015
1785.06346,0.00016
1784.09908,0.00016
1783.13470,0.00014
1782.17032,0.00013
1781.20594,0.00011
1780.24157,0.00010
1779.27719,0.00009
1778.31281,0.00009
1777.34843,0.00009
1776.38406,0.00008
1775.41968,0.00008
1774.45530,0.00010
1773.49092,0.00013
1772.52654,0.00015
1771.56217,0.00016
1770.59779,0.00015
1769.63341,0.00014
1768.66903,0.00014
1767.70465,0.00014
1766.74028,0.00016
1765.77590,0.00017
1764.81152,0.00019
1763.84714,0.00021
1762.88276,0.00025
1761.91839,0.00030
1760.95401,0.00033
1759.98963,0.00035
1759.02525,0.00035
1758.06088,0.00034
1757.09650,0.00032
1756.13212,0.00031
1755.16774,0.00031
1754.20336,0.00031
1753.23899,0.00032
1752.27461,0.00034
1751.31023,0.00038
1750.34585,0.00044
1749.38147,0.00049
1748.41710,0.00053
1747.45272,0.00057
1746.48834,0.00060
1745.52396,0.00062
1744.55959,0.00064
1743.59521,0.00065
1742.63083,0.00064
1741.66645,0.00062
1740.70207,0.00060
1739.73770,0.00060
1738.77332,0.00061
1737.80894,0.00062
1736.84456,0.00062
1735.88018,0.00061
1734.91581,0.00059
1733.95143,0.00055
1732.98705,0.00049
1732.02267,0.00044
1731.05829,0.00038
1730.09392,0.00034
1729.12954,0.00031
1728.16516,0.00031
1727.20078,0.00033
1726.23641,0.00035
1725.27203,0.00034
1724.30765,0.00033
1723.34327,0.00030
1722.37889,0.00029
1721.41452,0.00028
1720.45014,0.00028
1719.48576,0.00029
1718.52138,0.00030
1717.55700,0.00031
1716.59263,0.00032
1715.62825,0.00033
1714.66387,0.00032
1713.69949,0.00030
1712.73512,0.00026
1711.77074,0.00022
1710.80636,0.00020
1709.84198,0.00019
1708.87760,0.00017
1707.91323,0.00017
1706.94885,0.00018
1705.98447,0.00022
1705.02009,0.00027
1704.05571,0.00034
1703.09134,0.00040
1702.12696,0.00044
1701.16258,0.00047
1700.19820,0.00049
1699.23382,0.00049
1698.26945,0.00047
1697.30507,0.00043
1696.34069,0.00041
1695.37631,0.00040
1694.41194,0.00041
1693.44756,0.00041
1692.48318,0.00041
1691.51880,0.00041
1690.55442,0.00042
1689.59005,0.00044
1688.62567,0.00049
1687.66129,0.00053
1686.69691,0.00058
1685.73253,0.00061
1684.76816,0.00064
1683.80378,0.00066
1682.83940,0.00067
1681.87502,0.00066
1680.91065,0.00066
1679.94627,0.00067
1678.98189,0.00069
1678.01751,0.00072
1677.05313,0.00077
1676.08876,0.00081
1675.12438,0.00083
1674.16000,0.00084
1673.19562,0.00084
1672.23124,0.00083
1671.26687,0.00080
1670.30249,0.00077
1669.33811,0.00074
1668.37373,0.00073
1667.40935,0.00072
1666.44498,0.00072
1665.48060,0.00073
1664.51622,0.00073
1663.55184,0.00073
1662.58747,0.00074
1661.62309,0.00074
1660.65871,0.00073
1659.69433,0.00070
1658.72995,0.00068
1657.76558,0.00069
1656.80120,0.00073
1655.83682,0.00078
1654.87244,0.00082
1653.90806,0.00084
1652.94369,0.00083
1651.97931,0.00082
1651.01493,0.00079
1650.05055,0.00074
1649.08618,0.00068
1648.12180,0.00061
1647.15742,0.00057
1646.19304,0.00056
1645.22866,0.00057
1644.26429,0.00059
1643.29991,0.00060
1642.33553,0.00062
1641.37115,0.00064
1640.40677,0.00068
1639.44240,0.00072
1638.47802,0.00076
1637.51364,0.00077
1636.54926,0.00076
1635.58488,0.00074
1634.62051,0.00073
1633.65613,0.00072
1632.69175,0.00072
1631.72737,0.00071
1630.76300,0.00069
1629.79862,0.00068
1628.83424,0.00070
1627.86986,0.00073
1626.90548,0.00075
1625.94111,0.00076
1624.97673,0.00076
1624.01235,0.00076
1623.04797,0.00076
1622.08359,0.00079
1621.11922,0.00083
1620.15484,0.00086
1619.19046,0.00089
1618.22608,0.00091
1617.26171,0.00095
1616.29733,0.00097
1615.33295,0.00099
1614.36857,0.00100
1613.40419,0.00100
1612.43982,0.00100
1611.47544,0.00101
1610.51106,0.00103
1609.54668,0.00104
1608.58230,0.00106
1607.61793,0.00107
1606.65355,0.00107
1605.68917,0.00107
1604.72479,0.00106
1603.76041,0.00105
1602.79604,0.00105
1601.83166,0.00106
1600.86728,0.00106
1599.90290,0.00106
1598.93853,0.00106
1597.97415,0.00106
1597.00977,0.00106
1596.04539,0.00107
1595.08101,0.00108
1594.11664,0.00109
1593.15226,0.00109
1592.18788,0.00109
1591.22350,0.00109
1590.25912,0.00108
1589.29475,0.00107
1588.33037,0.00106
1587.36599,0.00105
1586.40161,0.00104
1585.43724,0.00104
1584.47286,0.00105
1583.50848,0.00106
1582.54410,0.00106
1581.57972,0.00108
1580.61535,0.00111
1579.65097,0.00115
1578.68659,0.00118
1577.72221,0.00120
1576.75783,0.00121
1575.79346,0.00122
1574.82908,0.00122
1573.86470,0.00122
1572.90032,0.00122
1571.93594,0.00120
1570.97157,0.00119
1570.00719,0.00119
1569.04281,0.00120
1568.07843,0.00120
1567.11406,0.00119
1566.14968,0.00118
1565.18530,0.00118
1564.22092,0.00120
1563.25654,0.00123
1562.29217,0.00127
1561.32779,0.00131
1560.36341,0.00134
1559.39903,0.00136
1558.43465,0.00137
1557.47028,0.00136
1556.50590,0.00131
1555.54152,0.00125
1554.57714,0.00119
1553.61276,0.00112
1552.64839,0.00105
1551.68401,0.00098
1550.71963,0.00092
1549.75525,0.00085
1548.79088,0.00079
1547.82650,0.00074
1546.86212,0.00070
1545.89774,0.00067
1544.93336,0.00066
1543.96899,0.00067
1543.00461,0.00070
1542.04023,0.00071
1541.07585,0.00071
1540.11147,0.00069
1539.14710,0.00067
1538.18272,0.00062
1537.21834,0.00057
1536.25396,0.00051
1535.28959,0.00045
1534.32521,0.00039
1533.36083,0.00036
1532.39645,0.00034
1531.43207,0.00032
1530.46770,0.00031
1529.50332,0.00030
1528.53894,0.00030
1527.57456,0.00032
1526.61018,0.00034
1525.64581,0.00037
1524.68143,0.00040
1523.71705,0.00041
1522.75267,0.00042
1521.78829,0.00042
1520.82392,0.00042
1519.85954,0.00041
1518.89516,0.00040
1517.93078,0.00038
1516.96641,0.00038
1516.00203,0.00037
1515.03765,0.00038
1514.07327,0.00038
1513.10889,0.00037
1512.14452,0.00037
1511.18014,0.00038
1510.21576,0.00040
1509.25138,0.00042
1508.28700,0.00041
1507.32263,0.00039
1506.35825,0.00037
1505.39387,0.00035
1504.42949,0.00033
1503.46512,0.00029
1502.50074,0.00026
1501.53636,0.00023
1500.57198,0.00023
1499.60760,0.00025
1498.64323,0.00026
1497.67885,0.00026
1496.71447,0.00026
1495.75009,0.00025
1494.78571,0.00026
1493.82134,0.00027
1492.85696,0.00027
1491.89258,0.00028
1490.92820,0.00028
1489.96382,0.00029
1488.99945,0.00031
1488.03507,0.00033
1487.07069,0.00035
1486.10631,0.00037
1485.14194,0.00038
1484.17756,0.00040
1483.21318,0.00042
1482.24880,0.00044
1481.28442,0.00046
1480.32005,0.00047
1479.35567,0.00048
1478.39129,0.00050
1477.42691,0.00054
1476.46253,0.00059
1475.49816,0.00064
1474.53378,0.00069
1473.56940,0.00075
1472.60502,0.00081
1471.64065,0.00087
1470.67627,0.00094
1469.71189,0.00101
1468.74751,0.00107
1467.78313,0.00112
1466.81876,0.00116
1465.85438,0.00118
1464.89000,0.00120
1463.92562,0.00120
1462.96124,0.00122
1461.99687,0.00125
1461.03249,0.00130
1460.06811,0.00135
1459.10373,0.00139
1458.13935,0.00141
1457.17498,0.00142
1456.21060,0.00141
1455.24622,0.00139
1454.28184,0.00136
1453.31747,0.00133
1452.35309,0.00131
1451.38871,0.00131
1450.42433,0.00132
1449.45995,0.00134
1448.49558,0.00136
1447.53120,0.00138
1446.56682,0.00139
1445.60244,0.00139
1444.63806,0.00139
1443.67369,0.00137
1442.70931,0.00135
1441.74493,0.00134
1440.78055,0.00133
1439.81618,0.00133
1438.85180,0.00132
1437.88742,0.00133
1436.92304,0.00133
1435.95866,0.00134
1434.99429,0.00134
1434.02991,0.00132
1433.06553,0.00130
1432.10115,0.00127
1431.13677,0.00124
1430.17240,0.00123
1429.20802,0.00122
1428.24364,0.00122
1427.27926,0.00122
1426.31488,0.00122
1425.35051,0.00122
1424.38613,0.00123
1423.42175,0.00124
1422.45737,0.00125
1421.49300,0.00125
1420.52862,0.00125
1419.56424,0.00123
1418.59986,0.00122
1417.63548,0.00120
1416.67111,0.00118
1415.70673,0.00115
1414.74235,0.00111
1413.77797,0.00108
1412.81359,0.00106
1411.84922,0.00105
1410.88484,0.00106
1409.92046,0.00107
1408.95608,0.00108
1407.99171,0.00107
1407.02733,0.00106
1406.06295,0.00105
1405.09857,0.00105
1404.13419,0.00105
1403.16982,0.00105
1402.20544,0.00104
1401.24106,0.00103
1400.27668,0.00103
1399.31230,0.00104
1398.34793,0.00104
1397.38355,0.00102
1396.41917,0.00099
1395.45479,0.00096
1394.49041,0.00093
1393.52604,0.00091
1392.56166,0.00090
1391.59728,0.00090
1390.63290,0.00090
1389.66853,0.00090
1388.70415,0.00091
1387.73977,0.00091
1386.77539,0.00090
1385.81101,0.00087
1384.84664,0.00085
1383.88226,0.00082
1382.91788,0.00079
1381.95350,0.00077
1380.98912,0.00076
1380.02475,0.00075
1379.06037,0.00074
1378.09599,0.00074
1377.13161,0.00074
1376.16724,0.00074
1375.20286,0.00073
1374.23848,0.00072
1373.27410,0.00071
1372.30972,0.00070
1371.34535,0.00070
1370.38097,0.00069
1369.41659,0.00068
1368.45221,0.00068
1367.48783,0.00069
1366.52346,0.00070
1365.55908,0.00071
1364.59470,0.00071
1363.63032,0.00069
1362.66594,0.00067
1361.70157,0.00065
1360.73719,0.00062
1359.77281,0.00060
1358.80843,0.00058
1357.84406,0.00056
1356.87968,0.00055
1355.91530,0.00053
1354.95092,0.00050
1353.98654,0.00047
1353.02217,0.00044
1352.05779,0.00042
1351.09341,0.00041
1350.12903,0.00040
1349.16465,0.00040
1348.20028,0.00040
1347.23590,0.00041
1346.27152,0.00041
1345.30714,0.00041
1344.34276,0.00040
1343.37839,0.00039
1342.41401,0.00037
1341.44963,0.00035
1340.48525,0.00033
1339.52088,0.00031
1338.55650,0.00030
1337.59212,0.00029
1336.62774,0.00028
1335.66336,0.00028
1334.69899,0.00028
1333.73461,0.00029
1332.77023,0.00031
1331.80585,0.00031
1330.84147,0.00031
1329.87710,0.00029
1328.91272,0.00028
1327.94834,0.00027
1326.98396,0.00026
1326.01959,0.00025
1325.05521,0.00024
1324.09083,0.00022
1323.12645,0.00022
1322.16207,0.00021
1321.19770,0.00021
1320.23332,0.00022
1319.26894,0.00021
1318.30456,0.00021
1317.34018,0.00020
1316.37581,0.00021
1315.41143,0.00021
1314.44705,0.00022
1313.48267,0.00021
1312.51829,0.00020
1311.55392,0.00020
1310.58954,0.00019
1309.62516,0.00020
1308.66078,0.00021
1307.69641,0.00022
1306.73203,0.00022
1305.76765,0.00022
1304.80327,0.00023
1303.83889,0.00025
1302.87452,0.00028
1301.91014,0.00028
1300.94576,0.00028
1299.98138,0.00027
1299.01700,0.00026
1298.05263,0.00024
1297.08825,0.00022
1296.12387,0.00020
1295.15949,0.00017
1294.19512,0.00016
1293.23074,0.00015
1292.26636,0.00017
1291.30198,0.00020
1290.33760,0.00022
1289.37323,0.00025
1288.40885,0.00028
1287.44447,0.00031
1286.48009,0.00034
1285.51571,0.00035
1284.55134,0.00035
1283.58696,0.00035
1282.62258,0.00035
1281.65820,0.00035
1280.69382,0.00035
1279.72945,0.00035
1278.76507,0.00034
1277.80069,0.00032
1276.83631,0.00031
1275.87194,0.00031
1274.90756,0.00030
1273.94318,0.00030
1272.97880,0.00030
1272.01442,0.00031
1271.05005,0.00032
1270.08567,0.00034
1269.12129,0.00036
1268.15691,0.00037
1267.19253,0.00038
1266.22816,0.00039
1265.26378,0.00040
1264.29940,0.00042
1263.33502,0.00044
1262.37065,0.00046
1261.40627,0.00048
1260.44189,0.00049
1259.47751,0.00049
1258.51313,0.00048
1257.54876,0.00047
1256.58438,0.00046
1255.62000,0.00045
1254.65562,0.00045
1253.69124,0.00044
1252.72687,0.00044
1251.76249,0.00045
1250.79811,0.00045
1249.83373,0.00045
1248.86935,0.00044
1247.90498,0.00043
1246.94060,0.00041
1245.97622,0.00041
1245.01184,0.00042
1244.04747,0.00044
1243.08309,0.00047
1242.11871,0.00049
1241.15433,0.00050
1240.18995,0.00051
1239.22558,0.00051
1238.26120,0.00050
1237.29682,0.00048
1236.33244,0.00046
1235.36806,0.00046
1234.40369,0.00046
1233.43931,0.00047
1232.47493,0.00048
1231.51055,0.00050
1230.54618,0.00051
1229.58180,0.00052
1228.61742,0.00054
1227.65304,0.00055
1226.68866,0.00056
1225.72429,0.00056
1224.75991,0.00057
1223.79553,0.00058
1222.83115,0.00058
1221.86677,0.00059
1220.90240,0.00060
1219.93802,0.00062
1218.97364,0.00065
1218.00926,0.00068
1217.04488,0.00072
1216.08051,0.00077
1215.11613,0.00082
1214.15175,0.00088
1213.18737,0.00094
1212.22300,0.00100
1211.25862,0.00105
1210.29424,0.00108
1209.32986,0.00112
1208.36548,0.00116
1207.40111,0.00121
1206.43673,0.00126
1205.47235,0.00131
1204.50797,0.00137
1203.54359,0.00144
1202.57922,0.00152
1201.61484,0.00160
1200.65046,0.00168
1199.68608,0.00176
1198.72171,0.00185
1197.75733,0.00194
1196.79295,0.00206
1195.82857,0.00218
1194.86419,0.00230
1193.89982,0.00242
1192.93544,0.00252
1191.97106,0.00262
1191.00668,0.00270
1190.04230,0.00276
1189.07793,0.00280
1188.11355,0.00284
1187.14917,0.00287
1186.18479,0.00291
1185.22041,0.00296
1184.25604,0.00300
1183.29166,0.00305
1182.32728,0.00309
1181.36290,0.00314
1180.39853,0.00320
1179.43415,0.00326
1178.46977,0.00331
1177.50539,0.00336
1176.54101,0.00340
1175.57664,0.00345
1174.61226,0.00351
1173.64788,0.00355
1172.68350,0.00359
1171.71912,0.00362
1170.75475,0.00366
1169.79037,0.00371
1168.82599,0.00376
1167.86161,0.00382
1166.89724,0.00389
1165.93286,0.00395
1164.96848,0.00403
1164.00410,0.00411
1163.03972,0.00420
1162.07535,0.00430
1161.11097,0.00440
1160.14659,0.00450
1159.18221,0.00460
1158.21783,0.00470
1157.25346,0.00480
1156.28908,0.00490
1155.32470,0.00498
1154.36032,0.00506
1153.39594,0.00516
1152.43157,0.00528
1151.46719,0.00541
1150.50281,0.00555
1149.53843,0.00570
1148.57406,0.00584
1147.60968,0.00597
1146.64530,0.00610
1145.68092,0.00623
1144.71654,0.00634
1143.75217,0.00645
1142.78779,0.00657
1141.82341,0.00670
1140.85903,0.00684
1139.89465,0.00700
1138.93028,0.00717
1137.96590,0.00734
1137.00152,0.00749
1136.03714,0.00764
1135.07276,0.00779
1134.10839,0.00795
1133.14401,0.00810
1132.17963,0.00825
1131.21525,0.00838
1130.25088,0.00852
1129.28650,0.00867
1128.32212,0.00882
1127.35774,0.00897
1126.39336,0.00911
1125.42899,0.00925
1124.46461,0.00936
1123.50023,0.00946
1122.53585,0.00953
1121.57147,0.00959
1120.60710,0.00963
1119.64272,0.00965
1118.67834,0.00967
1117.71396,0.00967
1116.74959,0.00966
1115.78521,0.00965
1114.82083,0.00965
1113.85645,0.00962
1112.89207,0.00955
1111.92770,0.00945
1110.96332,0.00933
1109.99894,0.00920
1109.03456,0.00905
1108.07018,0.00887
1107.10581,0.00867
1106.14143,0.00845
1105.17705,0.00823
1104.21267,0.00801
1103.24829,0.00776
1102.28392,0.00749
1101.31954,0.00720
1100.35516,0.00690
1099.39078,0.00658
1098.42641,0.00625
1097.46203,0.00591
1096.49765,0.00558
1095.53327,0.00524
1094.56889,0.00492
1093.60452,0.00463
1092.64014,0.00435
1091.67576,0.00407
1090.71138,0.00379
1089.74700,0.00353
1088.78263,0.00328
1087.81825,0.00303
1086.85387,0.00279
1085.88949,0.00257
1084.92512,0.00238
1083.96074,0.00220
1082.99636,0.00204
1082.03198,0.00189
1081.06760,0.00177
1080.10323,0.00165
1079.13885,0.00154
1078.17447,0.00143
1077.21009,0.00134
1076.24571,0.00126
1075.28134,0.00118
1074.31696,0.00110
1073.35258,0.00103
1072.38820,0.00096
1071.42382,0.00089
1070.45945,0.00084
1069.49507,0.00081
1068.53069,0.00079
1067.56631,0.00077
1066.60194,0.00075
1065.63756,0.00074
1064.67318,0.00072
1063.70880,0.00069
1062.74442,0.00065
1061.78005,0.00062
1060.81567,0.00058
1059.85129,0.00054
1058.88691,0.00052
1057.92253,0.00050
1056.95816,0.00048
1055.99378,0.00046
1055.02940,0.00045
1054.06502,0.00043
1053.10065,0.00041
1052.13627,0.00039
1051.17189,0.00036
1050.20751,0.00034
1049.24313,0.00033
1048.27876,0.00033
1047.31438,0.00034
1046.35000,0.00035
1045.38562,0.00036
1044.42124,0.00038
1043.45687,0.00039
1042.49249,0.00041
1041.52811,0.00042
1040.56373,0.00040
1039.59935,0.00038
1038.63498,0.00035
1037.67060,0.00032
1036.70622,0.00030
1035.74184,0.00027
1034.77747,0.00023
1033.81309,0.00018
1032.84871,0.00014
1031.88433,0.00013
1030.91995,0.00013
1029.95558,0.00013
1028.99120,0.00014
1028.02682,0.00014
1027.06244,0.00015
1026.09806,0.00014
1025.13369,0.00015
1024.16931,0.00016
1023.20493,0.00016
1022.24055,0.00015
1021.27618,0.00014
1020.31180,0.00013
1019.34742,0.00012
1018.38304,0.00009
1017.41866,0.00006
1016.45429,0.00003
1015.48991,0.00001
1014.52553,-0.00000
1013.56115,0.00001
1012.59677,0.00003
1011.63240,0.00004
1010.66802,0.00003
1009.70364,0.00001
1008.73926,-0.00000
1007.77488,-0.00001
1006.81051,-0.00001
1005.84613,0.00000
1004.88175,0.00002
1003.91737,0.00006
1002.95300,0.00010
1001.98862,0.00014
1001.02424,0.00017
1000.05986,0.00019
999.09548,0.00018
998.13111,0.00016
997.16673,0.00014
996.20235,0.00013
995.23797,0.00011
994.27359,0.00009
993.30922,0.00008
992.34484,0.00007
991.38046,0.00007
990.41608,0.00007
989.45171,0.00009
988.48733,0.00009
987.52295,0.00009
986.55857,0.00009
985.59419,0.00007
984.62982,0.00004
983.66544,0.00001
982.70106,-0.00002
981.73668,-0.00004
980.77230,-0.00007
979.80793,-0.00011
978.84355,-0.00013
977.87917,-0.00014
976.91479,-0.00014
975.95041,-0.00013
974.98604,-0.00012
974.02166,-0.00012
973.05728,-0.00010
972.09290,-0.00008
971.12853,-0.00006
970.16415,-0.00007
969.19977,-0.00010
968.23539,-0.00013
967.27101,-0.00015
966.30664,-0.00014
965.34226,-0.00013
964.37788,-0.00012
963.41350,-0.00012
962.44912,-0.00011
961.48475,-0.00010
960.52037,-0.00009
959.55599,-0.00009
958.59161,-0.00009
957.62724,-0.00008
956.66286,-0.00006
955.69848,-0.00002
954.73410,0.00004
953.76972,0.00008
952.80535,0.00009
951.84097,0.00007
950.87659,0.00004
949.91221,0.00001
948.94783,0.00000
947.98346,0.00000
947.01908,-0.00000
946.05470,-0.00001
945.09032,-0.00002
944.12594,-0.00002
943.16157,-0.00003
942.19719,-0.00005
941.23281,-0.00009
940.26843,-0.00011
939.30406,-0.00010
938.33968,-0.00007
937.37530,-0.00003
936.41092,0.00000
935.44654,0.00003
934.48217,0.00005
933.51779,0.00006
932.55341,0.00006
931.58903,0.00005
930.62465,0.00002
929.66028,0.00002
928.69590,0.00003
927.73152,0.00003
926.76714,-0.00001
925.80276,-0.00006
924.83839,-0.00009
923.87401,-0.00009
922.90963,-0.00009
921.94525,-0.00009
920.98088,-0.00011
920.01650,-0.00012
919.05212,-0.00013
918.08774,-0.00016
917.12336,-0.00018
916.15899,-0.00020
915.19461,-0.00023
914.23023,-0.00024
913.26585,-0.00020
912.30147,-0.00012
911.33710,-0.00005
910.37272,-0.00001
909.40834,-0.00000
908.44396,-0.00001
907.47959,-0.00006
906.51521,-0.00011
905.55083,-0.00014
904.58645,-0.00017
903.62207,-0.00021
902.65770,-0.00024
901.69332,-0.00022
900.72894,-0.00017
899.76456,-0.00012
898.80018,-0.00010
897.83581,-0.00009
896.87143,-0.00007
895.90705,-0.00005
894.94267,-0.00004
893.97829,-0.00004
893.01392,-0.00005
892.04954,-0.00006
891.08516,-0.00004
890.12078,-0.00002
889.15641,-0.00001
888.19203,-0.00002
887.22765,-0.00003
886.26327,-0.00003
885.29889,-0.00001
884.33452,-0.00001
883.37014,-0.00003
882.40576,-0.00004
881.44138,-0.00002
880.47700,0.00002
879.51263,0.00006
878.54825,0.00006
877.58387,0.00004
876.61949,0.00003
875.65512,0.00004
874.69074,0.00006
873.72636,0.00007
872.76198,0.00008
871.79760,0.00007
870.83323,0.00008
869.86885,0.00010
868.90447,0.00011
867.94009,0.00009
866.97571,0.00004
866.01134,-0.00001
865.04696,-0.00004
864.08258,-0.00006
863.11820,-0.00005
862.15382,-0.00002
861.18945,0.00003
860.22507,0.00009
859.26069,0.00015
858.29631,0.00019
857.33194,0.00021
856.36756,0.00020
855.40318,0.00017
854.43880,0.00013
853.47442,0.00007
852.51005,0.00002
851.54567,0.00000
850.58129,0.00002
849.61691,0.00006
848.65253,0.00007
847.68816,0.00006
846.72378,0.00002
845.75940,-0.00001
844.79502,-0.00003
843.83065,-0.00003
842.86627,-0.00004
841.90189,-0.00006
840.93751,-0.00007
839.97313,-0.00003
839.00876,0.00003
838.04438,0.00008
837.08000,0.00012
836.11562,0.00015
835.15124,0.00016
834.18687,0.00017
833.22249,0.00019
832.25811,0.00021
831.29373,0.00020
830.32935,0.00017
829.36498,0.00012
828.40060,0.00007
827.43622,0.00003
826.47184,0.00000
825.50747,-0.00001
824.54309,-0.00002
823.57871,-0.00003
822.61433,-0.00002
821.64995,0.00000
820.68558,0.00003
819.72120,0.00007
818.75682,0.00010
817.79244,0.00011
816.82806,0.00008
815.86369,0.00005
814.89931,0.00003
813.93493,0.00002
812.97055,0.00003
812.00618,0.00005
811.04180,0.00006
810.07742,0.00008
809.11304,0.00009
808.14866,0.00011
807.18429,0.00014
806.21991,0.00015
805.25553,0.00014
804.29115,0.00012
803.32677,0.00013
802.36240,0.00015
801.39802,0.00018
800.43364,0.00020
799.46926,0.00021
798.50488,0.00024
797.54051,0.00024
796.57613,0.00025
795.61175,0.00025
794.64737,0.00023
793.68300,0.00019
792.71862,0.00015
791.75424,0.00012
790.78986,0.00010
789.82548,0.00011
788.86111,0.00014
787.89673,0.00019
786.93235,0.00022
785.96797,0.00022
785.00359,0.00022
784.03922,0.00020
783.07484,0.00018
782.11046,0.00016
781.14608,0.00014
780.18171,0.00013
779.21733,0.00012
778.25295,0.00014
777.28857,0.00018
776.32419,0.00020
775.35982,0.00019
774.39544,0.00015
773.43106,0.00011
772.46668,0.00007
771.50230,0.00003
770.53793,-0.00001
769.57355,-0.00004
768.60917,-0.00007
767.64479,-0.00007
766.68041,-0.00005
765.71604,-0.00004
764.75166,-0.00003
763.78728,-0.00003
762.82290,-0.00003
761.85853,-0.00003
760.89415,-0.00004
759.92977,-0.00004
758.96539,-0.00003
758.00101,-0.00002
757.03664,-0.00004
756.07226,-0.00006
755.10788,-0.00009
754.14350,-0.00014
753.17912,-0.00018
752.21475,-0.00018
751.25037,-0.00013
750.28599,-0.00005
749.32161,0.00007
748.35724,0.00017
747.39286,0.00024
746.42848,0.00026
745.46410,0.00022
744.49972,0.00016
743.53535,0.00011
742.57097,0.00007
741.60659,0.00002
740.64221,-0.00002
739.67783,-0.00004
738.71346,-0.00003
737.74908,-0.00000
736.78470,0.00002
735.82032,0.00002
734.85594,0.00005
733.89157,0.00011
732.92719,0.00021
731.96281,0.00032
730.99843,0.00041
730.03406,0.00043
729.06968,0.00039
728.10530,0.00031
727.14092,0.00024
726.17654,0.00018
725.21217,0.00009
724.24779,0.00000
723.28341,-0.00005
722.31903,-0.00003
721.35465,0.00001
720.39028,0.00004
719.42590,0.00004
718.46152,0.00004
717.49714,0.00004
716.53276,0.00007
715.56839,0.00011
714.60401,0.00016
713.63963,0.00020
712.67525,0.00024
711.71088,0.00028
710.74650,0.00033
709.78212,0.00035
708.81774,0.00033
707.85336,0.00030
706.88899,0.00027
705.92461,0.00024
704.96023,0.00022
703.99585,0.00021
703.03147,0.00021
702.06710,0.00024
701.10272,0.00027
700.13834,0.00029
699.17396,0.00031
698.20959,0.00031
697.24521,0.00029
696.28083,0.00025
695.31645,0.00021
694.35207,0.00016
693.38770,0.00013
692.42332,0.00013
691.45894,0.00017
690.49456,0.00024
689.53018,0.00030
688.56581,0.00034
687.60143,0.00036
686.63705,0.00036
685.67267,0.00032
684.70829,0.00027
683.74392,0.00023
682.77954,0.00019
681.81516,0.00017
680.85078,0.00017
679.88641,0.00018
678.92203,0.00021
677.95765,0.00023
676.99327,0.00024
676.02889,0.00022
675.06452,0.00015
674.10014,0.00008
673.13576,0.00016
672.17138,0.00043
671.20700,0.00075
670.24263,0.00101
669.27825,0.00119
668.31387,0.00129
667.34949,0.00129
666.38512,0.00120
665.42074,0.00100
664.45636,0.00070
663.49198,0.00036
662.52760,0.00010
661.56323,0.00004
660.59885,0.00009
659.63447,0.00013
658.67009,0.00013
657.70571,0.00013
656.74134,0.00014
655.77696,0.00014
654.81258,0.00014
653.84820,0.00017
652.88382,0.00021
651.91945,0.00026
650.95507,0.00032
649.99069,0.00037
649.02631,0.00040
648.06194,0.00044
647.09756,0.00055
646.13318,0.00080
645.16880,0.00118
644.20442,0.00119
643.24005,0.00031
642.27567,-0.00125
641.31129,-0.00287
640.34691,-0.00413
639.38253,-0.00492
638.41816,-0.00518
637.45378,-0.00490
636.48940,-0.00407
635.52502,-0.00273
634.56065,-0.00103
633.59627,0.00061
632.63189,0.00159
631.66751,0.00173
630.70313,0.00153
629.73876,0.00146
628.77438,0.00153
627.81000,0.00163
626.84562,0.00162
625.88124,0.00132
624.91687,0.00076
623.95249,0.00028
622.98811,0.00013
622.02373,0.00032
621.05935,0.00082
620.09498,0.00157
619.13060,0.00234
618.16622,0.00302
617.20184,0.00378
616.23747,0.00453
615.27309,0.00476
614.30871,0.00429
613.34433,0.00345
612.37995,0.00290
611.41558,0.00291
610.45120,0.00304
609.48682,0.00283
608.52244,0.00232
607.55806,0.00168
606.59369,0.00118
605.62931,0.00108
604.66493,0.00121
603.70055,0.00113
602.73618,0.00082
601.77180,0.00056
600.80742,0.00059
599.84304,0.00085
598.87866,0.00088
597.91429,0.00052
596.94991,0.00006
595.98553,-0.00024
595.02115,-0.00033
594.05677,-0.00022
593.09240,-0.00004
592.12802,0.00004
591.16364,-0.00001
590.19926,-0.00009
589.23488,-0.00015
588.27051,-0.00020
587.30613,-0.00021
586.34175,-0.00018
585.37737,-0.00011
584.41300,0.00001
583.44862,0.00018
582.48424,0.00031
581.51986,0.00037
580.55548,0.00032
579.59111,0.00020
578.62673,0.00007
577.66235,-0.00003
576.69797,-0.00010
575.73359,-0.00012
574.76922,-0.00010
573.80484,-0.00006
572.84046,0.00002
571.87608,0.00013
570.91171,0.00021
569.94733,0.00021
568.98295,0.00014
568.01857,0.00007
567.05419,0.00010
566.08982,0.00017
565.12544,0.00018
564.16106,0.00013
563.19668,0.00008
562.23230,0.00010
561.26793,0.00016
560.30355,0.00022
559.33917,0.00028
558.37479,0.00034
557.41041,0.00039
556.44604,0.00045
555.48166,0.00049
554.51728,0.00046
553.55290,0.00037
552.58853,0.00030
551.62415,0.00025
550.65977,0.00021
549.69539,0.00016
548.73101,0.00012
547.76664,0.00010
546.80226,0.00011
545.83788,0.00012
544.87350,0.00012
543.90912,0.00008
542.94475,0.00004
541.98037,0.00007
541.01599,0.00014
540.05161,0.00014
539.08724,0.00008
538.12286,0.00004
537.15848,0.00000
536.19410,-0.00000
535.22972,0.00006
534.26535,0.00019
533.30097,0.00031
532.33659,0.00037
531.37221,0.00040
530.40783,0.00042
529.44346,0.00038
528.47908,0.00025
527.51470,0.00006
526.55032,-0.00010
525.58594,-0.00023
524.62157,-0.00034
523.65719,-0.00035
522.69281,-0.00031
521.72843,-0.00026
520.76406,-0.00019
519.79968,-0.00009
518.83530,0.00000
517.87092,0.00009
516.90654,0.00016
515.94217,0.00022
514.97779,0.00025
514.01341,0.00021
513.04903,0.00011
512.08465,-0.00001
511.12028,-0.00013
510.15590,-0.00024
509.19152,-0.00030
508.22714,-0.00035
507.26276,-0.00038
506.29839,-0.00040
505.33401,-0.00037
504.36963,-0.00030
503.40525,-0.00027
502.44088,-0.00032
501.47650,-0.00041
500.51212,-0.00050
499.54774,-0.00052
498.58336,-0.00045
497.61899,-0.00034
496.65461,-0.00023
495.69023,-0.00014
494.72585,-0.00009
493.76147,-0.00006
492.79710,-0.00005
491.83272,-0.00010
490.86834,-0.00024
489.90396,-0.00041
488.93959,-0.00052
487.97521,-0.00055
487.01083,-0.00051
486.04645,-0.00042
485.08207,-0.00029
484.11770,-0.00016
483.15332,-0.00003
482.18894,0.00013
481.22456,0.00027
480.26018,0.00036
479.29581,0.00037
478.33143,0.00033
477.36705,0.00026
476.40267,0.00015
475.43829,0.00005
474.47392,0.00000
473.50954,-0.00002
472.54516,-0.00004
471.58078,-0.00002
470.61641,0.00002
469.65203,0.00004
468.68765,0.00005
467.72327,0.00006
466.75889,0.00008
465.79452,0.00008
464.83014,0.00008
463.86576,0.00009
462.90138,0.00015
461.93700,0.00025
460.97263,0.00034
460.00825,0.00040
459.04387,0.00040
458.07949,0.00031
457.11512,0.00019
456.15074,0.00007
455.18636,-0.00007
454.22198,-0.00023
453.25760,-0.00039
452.29323,-0.00046
451.32885,-0.00044
450.36447,-0.00039
449.40009,-0.00031
448.43571,-0.00022
447.47134,-0.00018
446.50696,-0.00017
445.54258,-0.00016
444.57820,-0.00017
443.61382,-0.00021
442.64945,-0.00025
441.68507,-0.00027
440.72069,-0.00030
439.75631,-0.00037
438.79194,-0.00045
437.82756,-0.00048
436.86318,-0.00045
435.89880,-0.00042
434.93442,-0.00036
433.97005,-0.00027
433.00567,-0.00021
432.04129,-0.00020
431.07691,-0.00022
430.11253,-0.00024
429.14816,-0.00024
428.18378,-0.00024
427.21940,-0.00024
426.25502,-0.00022
425.29065,-0.00016
424.32627,-0.00006
423.36189,0.00005
422.39751,0.00011
421.43313,0.00009
420.46876,0.00001
419.50438,-0.00007
418.54000,-0.00011
417.57562,-0.00012
416.61124,-0.00014
415.64687,-0.00017
414.68249,-0.00021
413.71811,-0.00022
412.75373,-0.00018
411.78935,-0.00012
410.82498,-0.00008
409.86060,-0.00009
408.89622,-0.00012
407.93184,-0.00016
406.96747,-0.00018
406.00309,-0.00018
405.03871,-0.00015
404.07433,-0.00012
403.10995,-0.00013
402.14558,-0.00015
401.18120,-0.00014
400.21682,-0.00013
399.25244,-0.00013
