3998.31069,0.00080
3997.34631,0.00086
3996.38194,0.00089
3995.41756,0.00090
3994.45318,0.00086
3993.48880,0.00075
3992.52442,0.00063
3991.56005,0.00055
3990.59567,0.00048
3989.63129,0.00040
3988.66691,0.00030
3987.70253,0.00023
3986.73816,0.00021
3985.77378,0.00024
3984.80940,0.00030
3983.84502,0.00037
3982.88065,0.00041
3981.91627,0.00043
3980.95189,0.00046
3979.98751,0.00051
3979.02313,0.00056
3978.05876,0.00056
3977.09438,0.00055
3976.13000,0.00055
3975.16562,0.00060
3974.20124,0.00068
3973.23687,0.00077
3972.27249,0.00082
3971.30811,0.00083
3970.34373,0.00083
3969.37935,0.00085
3968.41498,0.00090
3967.45060,0.00091
3966.48622,0.00088
3965.52184,0.00085
3964.55747,0.00084
3963.59309,0.00087
3962.62871,0.00090
3961.66433,0.00088
3960.69995,0.00083
3959.73558,0.00075
3958.77120,0.00070
3957.80682,0.00067
3956.84244,0.00061
3955.87806,0.00050
3954.91369,0.00039
3953.94931,0.00034
3952.98493,0.00036
3952.02055,0.00042
3951.05618,0.00046
3950.09180,0.00046
3949.12742,0.00046
3948.16304,0.00049
3947.19866,0.00056
3946.23429,0.00061
3945.26991,0.00061
3944.30553,0.00056
3943.34115,0.00052
3942.37677,0.00051
3941.41240,0.00052
3940.44802,0.00053
3939.48364,0.00051
3938.51926,0.00050
3937.55488,0.00052
3936.59051,0.00057
3935.62613,0.00063
3934.66175,0.00068
3933.69737,0.00072
3932.73300,0.00074
3931.76862,0.00075
3930.80424,0.00072
3929.83986,0.00066
3928.87548,0.00060
3927.91111,0.00055
3926.94673,0.00053
3925.98235,0.00057
3925.01797,0.00067
3924.05359,0.00076
3923.08922,0.00082
3922.12484,0.00088
3921.16046,0.00094
3920.19608,0.00101
3919.23171,0.00104
3918.26733,0.00101
3917.30295,0.00094
3916.33857,0.00087
3915.37419,0.00084
3914.40982,0.00085
3913.44544,0.00085
3912.48106,0.00081
3911.51668,0.00074
3910.55230,0.00071
3909.58793,0.00074
3908.62355,0.00078
3907.65917,0.00079
3906.69479,0.00076
3905.73041,0.00070
3904.76604,0.00064
3903.80166,0.00061
3902.83728,0.00060
3901.87290,0.00059
3900.90853,0.00057
3899.94415,0.00053
3898.97977,0.00047
3898.01539,0.00045
3897.05101,0.00045
3896.08664,0.00046
3895.12226,0.00048
3894.15788,0.00051
3893.19350,0.00054
3892.22912,0.00058
3891.26475,0.00060
3890.30037,0.00058
3889.33599,0.00050
3888.37161,0.00042
3887.40724,0.00036
3886.44286,0.00037
3885.47848,0.00042
3884.51410,0.00049
3883.54972,0.00056
3882.58535,0.00060
3881.62097,0.00061
3880.65659,0.00057
3879.69221,0.00050
3878.72783,0.00044
3877.76346,0.00044
3876.79908,0.00047
3875.83470,0.00050
3874.87032,0.00054
3873.90594,0.00061
3872.94157,0.00070
3871.97719,0.00074
3871.01281,0.00075
3870.04843,0.00077
3869.08406,0.00079
3868.11968,0.00081
3867.15530,0.00084
3866.19092,0.00086
3865.22654,0.00083
3864.26217,0.00075
3863.29779,0.00067
3862.33341,0.00061
3861.36903,0.00055
3860.40465,0.00048
3859.44028,0.00043
3858.47590,0.00042
3857.51152,0.00040
3856.54714,0.00035
3855.58276,0.00029
3854.61839,0.00026
3853.65401,0.00025
3852.68963,0.00028
3851.72525,0.00031
3850.76088,0.00036
3849.79650,0.00042
3848.83212,0.00053
3847.86774,0.00065
3846.90336,0.00074
3845.93899,0.00077
3844.97461,0.00075
3844.01023,0.00069
3843.04585,0.00061
3842.08147,0.00055
3841.11710,0.00051
3840.15272,0.00048
3839.18834,0.00049
3838.22396,0.00055
3837.25959,0.00062
3836.29521,0.00065
3835.33083,0.00066
3834.36645,0.00065
3833.40207,0.00061
3832.43770,0.00054
3831.47332,0.00049
3830.50894,0.00049
3829.54456,0.00052
3828.58018,0.00056
3827.61581,0.00059
3826.65143,0.00061
3825.68705,0.00064
3824.72267,0.00068
3823.75829,0.00073
3822.79392,0.00076
3821.82954,0.00073
3820.86516,0.00069
3819.90078,0.00067
3818.93641,0.00068
3817.97203,0.00067
3817.00765,0.00064
3816.04327,0.00061
3815.07889,0.00061
3814.11452,0.00065
3813.15014,0.00069
3812.18576,0.00071
3811.22138,0.00069
3810.25700,0.00064
3809.29263,0.00056
3808.32825,0.00049
3807.36387,0.00043
3806.39949,0.00037
3805.43512,0.00032
3804.47074,0.00027
3803.50636,0.00024
3802.54198,0.00024
3801.57760,0.00028
3800.61323,0.00034
3799.64885,0.00040
3798.68447,0.00046
3797.72009,0.00053
3796.75571,0.00061
3795.79134,0.00068
3794.82696,0.00069
3793.86258,0.00067
3792.89820,0.00064
3791.93382,0.00060
3790.96945,0.00056
3790.00507,0.00052
3789.04069,0.00048
3788.07631,0.00043
3787.11194,0.00039
3786.14756,0.00038
3785.18318,0.00039
3784.21880,0.00039
3783.25442,0.00038
3782.29005,0.00039
3781.32567,0.00040
3780.36129,0.00039
3779.39691,0.00037
3778.43253,0.00035
3777.46816,0.00032
3776.50378,0.00030
3775.53940,0.00027
3774.57502,0.00026
3773.61065,0.00029
3772.64627,0.00035
3771.68189,0.00040
3770.71751,0.00047
3769.75313,0.00053
3768.78876,0.00059
3767.82438,0.00064
3766.86000,0.00069
3765.89562,0.00074
3764.93124,0.00080
3763.96687,0.00084
3763.00249,0.00085
3762.03811,0.00087
3761.07373,0.00088
3760.10935,0.00086
3759.14498,0.00080
3758.18060,0.00072
3757.21622,0.00063
3756.25184,0.00057
3755.28747,0.00054
3754.32309,0.00053
3753.35871,0.00052
3752.39433,0.00052
3751.42995,0.00053
3750.46558,0.00063
3749.50120,0.00078
3748.53682,0.00091
3747.57244,0.00097
3746.60806,0.00097
3745.64369,0.00098
3744.67931,0.00098
3743.71493,0.00095
3742.75055,0.00086
3741.78618,0.00073
3740.82180,0.00057
3739.85742,0.00043
3738.89304,0.00036
3737.92866,0.00036
3736.96429,0.00036
3735.99991,0.00032
3735.03553,0.00030
3734.07115,0.00031
3733.10677,0.00032
3732.14240,0.00033
3731.17802,0.00034
3730.21364,0.00033
3729.24926,0.00032
3728.28488,0.00033
3727.32051,0.00041
3726.35613,0.00052
3725.39175,0.00061
3724.42737,0.00067
3723.46300,0.00071
3722.49862,0.00072
3721.53424,0.00067
3720.56986,0.00058
3719.60548,0.00050
3718.64111,0.00045
3717.67673,0.00046
3716.71235,0.00055
3715.74797,0.00066
3714.78359,0.00072
3713.81922,0.00071
3712.85484,0.00067
3711.89046,0.00063
3710.92608,0.00057
3709.96171,0.00049
3708.99733,0.00044
3708.03295,0.00043
3707.06857,0.00045
3706.10419,0.00049
3705.13982,0.00053
3704.17544,0.00056
3703.21106,0.00056
3702.24668,0.00053
3701.28230,0.00049
3700.31793,0.00048
3699.35355,0.00050
3698.38917,0.00056
3697.42479,0.00066
3696.46041,0.00074
3695.49604,0.00077
3694.53166,0.00075
3693.56728,0.00073
3692.60290,0.00073
3691.63853,0.00072
3690.67415,0.00067
3689.70977,0.00059
3688.74539,0.00048
3687.78101,0.00038
3686.81664,0.00032
3685.85226,0.00032
3684.88788,0.00036
3683.92350,0.00041
3682.95912,0.00047
3681.99475,0.00057
3681.03037,0.00068
3680.06599,0.00075
3679.10161,0.00079
3678.13724,0.00080
3677.17286,0.00077
3676.20848,0.00073
3675.24410,0.00072
3674.27972,0.00075
3673.31535,0.00082
3672.35097,0.00090
3671.38659,0.00097
3670.42221,0.00103
3669.45783,0.00106
3668.49346,0.00105
3667.52908,0.00099
3666.56470,0.00089
3665.60032,0.00075
3664.63594,0.00064
3663.67157,0.00055
3662.70719,0.00049
3661.74281,0.00049
3660.77843,0.00054
3659.81406,0.00059
3658.84968,0.00060
3657.88530,0.00063
3656.92092,0.00067
3655.95654,0.00072
3654.99217,0.00073
3654.02779,0.00070
3653.06341,0.00068
3652.09903,0.00069
3651.13465,0.00069
3650.17028,0.00070
3649.20590,0.00072
3648.24152,0.00073
3647.27714,0.00074
3646.31276,0.00078
3645.34839,0.00084
3644.38401,0.00086
3643.41963,0.00081
3642.45525,0.00070
3641.49088,0.00060
3640.52650,0.00052
3639.56212,0.00045
3638.59774,0.00036
3637.63336,0.00029
3636.66899,0.00026
3635.70461,0.00031
3634.74023,0.00044
3633.77585,0.00060
3632.81147,0.00072
3631.84710,0.00077
3630.88272,0.00079
3629.91834,0.00080
3628.95396,0.00080
3627.98959,0.00079
3627.02521,0.00078
3626.06083,0.00075
3625.09645,0.00072
3624.13207,0.00072
3623.16770,0.00076
3622.20332,0.00080
3621.23894,0.00079
3620.27456,0.00074
3619.31018,0.00067
3618.34581,0.00060
3617.38143,0.00055
3616.41705,0.00054
3615.45267,0.00056
3614.48829,0.00059
3613.52392,0.00062
3612.55954,0.00067
3611.59516,0.00074
3610.63078,0.00079
3609.66641,0.00082
3608.70203,0.00081
3607.73765,0.00080
3606.77327,0.00081
3605.80889,0.00081
3604.84452,0.00081
3603.88014,0.00081
3602.91576,0.00080
3601.95138,0.00081
3600.98700,0.00086
3600.02263,0.00091
3599.05825,0.00092
3598.09387,0.00088
3597.12949,0.00081
3596.16512,0.00074
3595.20074,0.00069
3594.23636,0.00065
3593.27198,0.00065
3592.30760,0.00069
3591.34323,0.00078
3590.37885,0.00092
3589.41447,0.00106
3588.45009,0.00115
3587.48571,0.00116
3586.52134,0.00111
3585.55696,0.00102
3584.59258,0.00093
3583.62820,0.00087
3582.66382,0.00084
3581.69945,0.00082
3580.73507,0.00083
3579.77069,0.00085
3578.80631,0.00083
3577.84194,0.00079
3576.87756,0.00072
3575.91318,0.00065
3574.94880,0.00058
3573.98442,0.00054
3573.02005,0.00057
3572.05567,0.00064
3571.09129,0.00073
3570.12691,0.00080
3569.16253,0.00085
3568.19816,0.00088
3567.23378,0.00090
3566.26940,0.00091
3565.30502,0.00090
3564.34065,0.00087
3563.37627,0.00085
3562.41189,0.00085
3561.44751,0.00088
3560.48313,0.00091
3559.51876,0.00096
3558.55438,0.00100
3557.59000,0.00101
3556.62562,0.00100
3555.66124,0.00095
3554.69687,0.00088
3553.73249,0.00080
3552.76811,0.00074
3551.80373,0.00070
3550.83935,0.00069
3549.87498,0.00070
3548.91060,0.00074
3547.94622,0.00080
3546.98184,0.00086
3546.01747,0.00091
3545.05309,0.00094
3544.08871,0.00094
3543.12433,0.00093
3542.15995,0.00090
3541.19558,0.00085
3540.23120,0.00079
3539.26682,0.00074
3538.30244,0.00072
3537.33806,0.00071
3536.37369,0.00071
3535.40931,0.00075
3534.44493,0.00079
3533.48055,0.00080
3532.51618,0.00080
3531.55180,0.00079
3530.58742,0.00076
3529.62304,0.00073
3528.65866,0.00071
3527.69429,0.00073
3526.72991,0.00078
3525.76553,0.00084
3524.80115,0.00089
3523.83677,0.00095
3522.87240,0.00097
3521.90802,0.00097
3520.94364,0.00098
3519.97926,0.00100
3519.01488,0.00101
3518.05051,0.00100
3517.08613,0.00101
3516.12175,0.00102
3515.15737,0.00102
3514.19300,0.00103
3513.22862,0.00102
3512.26424,0.00099
3511.29986,0.00094
3510.33548,0.00089
3509.37111,0.00087
3508.40673,0.00089
3507.44235,0.00093
3506.47797,0.00094
3505.51359,0.00092
3504.54922,0.00090
3503.58484,0.00090
3502.62046,0.00090
3501.65608,0.00089
3500.69171,0.00086
3499.72733,0.00083
3498.76295,0.00082
3497.79857,0.00084
3496.83419,0.00089
3495.86982,0.00095
3494.90544,0.00099
3493.94106,0.00103
3492.97668,0.00106
3492.01230,0.00108
3491.04793,0.00112
3490.08355,0.00115
3489.11917,0.00116
3488.15479,0.00116
3487.19041,0.00116
3486.22604,0.00115
3485.26166,0.00115
3484.29728,0.00115
3483.33290,0.00115
3482.36853,0.00114
3481.40415,0.00112
3480.43977,0.00108
3479.47539,0.00103
3478.51101,0.00098
3477.54664,0.00099
3476.58226,0.00102
3475.61788,0.00107
3474.65350,0.00112
3473.68912,0.00118
3472.72475,0.00122
3471.76037,0.00124
3470.79599,0.00125
3469.83161,0.00123
3468.86724,0.00116
3467.90286,0.00107
3466.93848,0.00102
3465.97410,0.00104
3465.00972,0.00107
3464.04535,0.00112
3463.08097,0.00119
3462.11659,0.00124
3461.15221,0.00125
3460.18783,0.00125
3459.22346,0.00125
3458.25908,0.00123
3457.29470,0.00122
3456.33032,0.00122
3455.36594,0.00123
3454.40157,0.00122
3453.43719,0.00122
3452.47281,0.00124
3451.50843,0.00127
3450.54406,0.00126
3449.57968,0.00123
3448.61530,0.00122
3447.65092,0.00121
3446.68654,0.00123
3445.72217,0.00130
3444.75779,0.00138
3443.79341,0.00141
3442.82903,0.00138
3441.86465,0.00136
3440.90028,0.00135
3439.93590,0.00130
3438.97152,0.00122
3438.00714,0.00112
3437.04276,0.00103
3436.07839,0.00097
3435.11401,0.00096
3434.14963,0.00099
3433.18525,0.00106
3432.22088,0.00114
3431.25650,0.00121
3430.29212,0.00129
3429.32774,0.00134
3428.36336,0.00136
3427.39899,0.00133
3426.43461,0.00127
3425.47023,0.00118
3424.50585,0.00109
3423.54147,0.00102
3422.57710,0.00100
3421.61272,0.00103
3420.64834,0.00106
3419.68396,0.00106
3418.71959,0.00107
3417.75521,0.00109
3416.79083,0.00113
3415.82645,0.00119
3414.86207,0.00123
3413.89770,0.00126
3412.93332,0.00129
3411.96894,0.00135
3411.00456,0.00143
3410.04018,0.00151
3409.07581,0.00152
3408.11143,0.00146
3407.14705,0.00135
3406.18267,0.00124
3405.21829,0.00116
3404.25392,0.00111
3403.28954,0.00109
3402.32516,0.00110
3401.36078,0.00111
3400.39641,0.00115
3399.43203,0.00123
3398.46765,0.00131
3397.50327,0.00135
3396.53889,0.00133
3395.57452,0.00127
3394.61014,0.00124
3393.64576,0.00126
3392.68138,0.00129
3391.71700,0.00132
3390.75263,0.00134
3389.78825,0.00136
3388.82387,0.00140
3387.85949,0.00146
3386.89512,0.00154
3385.93074,0.00160
3384.96636,0.00161
3384.00198,0.00160
3383.03760,0.00157
3382.07323,0.00152
3381.10885,0.00145
3380.14447,0.00137
3379.18009,0.00129
3378.21571,0.00121
3377.25134,0.00118
3376.28696,0.00120
3375.32258,0.00123
3374.35820,0.00124
3373.39382,0.00124
3372.42945,0.00125
3371.46507,0.00127
3370.50069,0.00128
3369.53631,0.00127
3368.57194,0.00125
3367.60756,0.00124
3366.64318,0.00125
3365.67880,0.00126
3364.71442,0.00123
3363.75005,0.00120
3362.78567,0.00120
3361.82129,0.00122
3360.85691,0.00125
3359.89253,0.00129
3358.92816,0.00132
3357.96378,0.00136
3356.99940,0.00139
3356.03502,0.00143
3355.07065,0.00143
3354.10627,0.00139
3353.14189,0.00134
3352.17751,0.00129
3351.21313,0.00124
3350.24876,0.00118
3349.28438,0.00113
3348.32000,0.00114
3347.35562,0.00115
3346.39124,0.00115
3345.42687,0.00115
3344.46249,0.00117
3343.49811,0.00121
3342.53373,0.00126
3341.56935,0.00131
3340.60498,0.00135
3339.64060,0.00136
3338.67622,0.00137
3337.71184,0.00137
3336.74747,0.00137
3335.78309,0.00134
3334.81871,0.00128
3333.85433,0.00120
3332.88995,0.00114
3331.92558,0.00111
3330.96120,0.00111
3329.99682,0.00114
3329.03244,0.00120
3328.06806,0.00125
3327.10369,0.00128
3326.13931,0.00129
3325.17493,0.00130
3324.21055,0.00131
3323.24618,0.00132
3322.28180,0.00131
3321.31742,0.00128
3320.35304,0.00128
3319.38866,0.00131
3318.42429,0.00136
3317.45991,0.00138
3316.49553,0.00136
3315.53115,0.00131
3314.56677,0.00123
3313.60240,0.00117
3312.63802,0.00116
3311.67364,0.00117
3310.70926,0.00117
3309.74488,0.00116
3308.78051,0.00118
3307.81613,0.00120
3306.85175,0.00122
3305.88737,0.00121
3304.92300,0.00119
3303.95862,0.00117
3302.99424,0.00116
3302.02986,0.00116
3301.06548,0.00117
3300.10111,0.00118
3299.13673,0.00116
3298.17235,0.00114
3297.20797,0.00113
3296.24359,0.00113
3295.27922,0.00115
3294.31484,0.00118
3293.35046,0.00121
3292.38608,0.00124
3291.42171,0.00124
3290.45733,0.00124
3289.49295,0.00123
3288.52857,0.00121
3287.56419,0.00118
3286.59982,0.00115
3285.63544,0.00114
3284.67106,0.00114
3283.70668,0.00117
3282.74230,0.00119
3281.77793,0.00118
3280.81355,0.00115
3279.84917,0.00112
3278.88479,0.00111
3277.92041,0.00114
3276.95604,0.00117
3275.99166,0.00119
3275.02728,0.00120
3274.06290,0.00121
3273.09853,0.00122
3272.13415,0.00123
3271.16977,0.00122
3270.20539,0.00120
3269.24101,0.00117
3268.27664,0.00116
3267.31226,0.00117
3266.34788,0.00120
3265.38350,0.00123
3264.41912,0.00125
3263.45475,0.00125
3262.49037,0.00126
3261.52599,0.00129
3260.56161,0.00131
3259.59724,0.00131
3258.63286,0.00128
3257.66848,0.00124
3256.70410,0.00118
3255.73972,0.00113
3254.77535,0.00108
3253.81097,0.00103
3252.84659,0.00101
3251.88221,0.00103
3250.91783,0.00110
3249.95346,0.00118
3248.98908,0.00124
3248.02470,0.00128
3247.06032,0.00131
3246.09594,0.00134
3245.13157,0.00136
3244.16719,0.00135
3243.20281,0.00130
3242.23843,0.00122
3241.27406,0.00112
3240.30968,0.00103
3239.34530,0.00096
3238.38092,0.00091
3237.41654,0.00089
3236.45217,0.00092
3235.48779,0.00100
3234.52341,0.00111
3233.55903,0.00121
3232.59465,0.00128
3231.63028,0.00127
3230.66590,0.00120
3229.70152,0.00108
3228.73714,0.00096
3227.77276,0.00089
3226.80839,0.00087
3225.84401,0.00088
3224.87963,0.00091
3223.91525,0.00097
3222.95088,0.00102
3221.98650,0.00108
3221.02212,0.00111
3220.05774,0.00112
3219.09336,0.00111
3218.12899,0.00111
3217.16461,0.00112
3216.20023,0.00113
3215.23585,0.00114
3214.27147,0.00116
3213.30710,0.00117
3212.34272,0.00117
3211.37834,0.00117
3210.41396,0.00117
3209.44959,0.00118
3208.48521,0.00121
3207.52083,0.00122
3206.55645,0.00120
3205.59207,0.00115
3204.62770,0.00108
3203.66332,0.00105
3202.69894,0.00104
3201.73456,0.00102
3200.77018,0.00102
3199.80581,0.00106
3198.84143,0.00111
3197.87705,0.00115
3196.91267,0.00115
3195.94829,0.00112
3194.98392,0.00105
3194.01954,0.00097
3193.05516,0.00089
3192.09078,0.00083
3191.12641,0.00078
3190.16203,0.00076
3189.19765,0.00081
3188.23327,0.00091
3187.26889,0.00101
3186.30452,0.00108
3185.34014,0.00113
3184.37576,0.00115
3183.41138,0.00116
3182.44700,0.00116
3181.48263,0.00115
3180.51825,0.00112
3179.55387,0.00108
3178.58949,0.00104
3177.62512,0.00102
3176.66074,0.00099
3175.69636,0.00096
3174.73198,0.00093
3173.76760,0.00090
3172.80323,0.00089
3171.83885,0.00091
3170.87447,0.00095
3169.91009,0.00100
3168.94571,0.00104
3167.98134,0.00109
3167.01696,0.00112
3166.05258,0.00113
3165.08820,0.00113
3164.12382,0.00113
3163.15945,0.00115
3162.19507,0.00116
3161.23069,0.00112
3160.26631,0.00105
3159.30194,0.00096
3158.33756,0.00090
3157.37318,0.00087
3156.40880,0.00086
3155.44442,0.00085
3154.48005,0.00087
3153.51567,0.00091
3152.55129,0.00098
3151.58691,0.00107
3150.62253,0.00114
3149.65816,0.00115
3148.69378,0.00113
3147.72940,0.00112
3146.76502,0.00112
3145.80065,0.00112
3144.83627,0.00109
3143.87189,0.00105
3142.90751,0.00100
3141.94313,0.00095
3140.97876,0.00091
3140.01438,0.00092
3139.05000,0.00095
3138.08562,0.00098
3137.12124,0.00098
3136.15687,0.00097
3135.19249,0.00096
3134.22811,0.00095
3133.26373,0.00092
3132.29935,0.00090
3131.33498,0.00089
3130.37060,0.00091
3129.40622,0.00094
3128.44184,0.00098
3127.47747,0.00103
3126.51309,0.00106
3125.54871,0.00105
3124.58433,0.00102
3123.61995,0.00097
3122.65558,0.00093
3121.69120,0.00093
3120.72682,0.00096
3119.76244,0.00098
3118.79806,0.00101
3117.83369,0.00104
3116.86931,0.00108
3115.90493,0.00112
3114.94055,0.00113
3113.97618,0.00111
3113.01180,0.00105
3112.04742,0.00101
3111.08304,0.00100
3110.11866,0.00101
3109.15429,0.00103
3108.18991,0.00105
3107.22553,0.00109
3106.26115,0.00113
3105.29677,0.00115
3104.33240,0.00114
3103.36802,0.00112
3102.40364,0.00108
3101.43926,0.00104
3100.47488,0.00101
3099.51051,0.00099
3098.54613,0.00098
3097.58175,0.00098
3096.61737,0.00099
3095.65300,0.00098
3094.68862,0.00093
3093.72424,0.00087
3092.75986,0.00083
3091.79548,0.00082
3090.83111,0.00081
3089.86673,0.00081
3088.90235,0.00082
3087.93797,0.00084
3086.97359,0.00087
3086.00922,0.00094
3085.04484,0.00099
3084.08046,0.00100
3083.11608,0.00096
3082.15171,0.00091
3081.18733,0.00089
3080.22295,0.00089
3079.25857,0.00089
3078.29419,0.00087
3077.32982,0.00087
3076.36544,0.00088
3075.40106,0.00092
3074.43668,0.00099
3073.47230,0.00104
3072.50793,0.00105
3071.54355,0.00105
3070.57917,0.00105
3069.61479,0.00107
3068.65041,0.00109
3067.68604,0.00107
3066.72166,0.00102
3065.75728,0.00095
3064.79290,0.00088
3063.82853,0.00085
3062.86415,0.00084
3061.89977,0.00085
3060.93539,0.00084
3059.97101,0.00084
3059.00664,0.00087
3058.04226,0.00092
3057.07788,0.00097
3056.11350,0.00100
3055.14912,0.00100
3054.18475,0.00099
3053.22037,0.00098
3052.25599,0.00097
3051.29161,0.00096
3050.32724,0.00094
3049.36286,0.00090
3048.39848,0.00085
3047.43410,0.00081
3046.46972,0.00079
3045.50535,0.00078
3044.54097,0.00077
3043.57659,0.00077
3042.61221,0.00079
3041.64783,0.00081
3040.68346,0.00083
3039.71908,0.00086
3038.75470,0.00091
3037.79032,0.00095
3036.82594,0.00097
3035.86157,0.00097
3034.89719,0.00095
3033.93281,0.00091
3032.96843,0.00086
3032.00406,0.00083
3031.03968,0.00082
3030.07530,0.00082
3029.11092,0.00083
3028.14654,0.00084
3027.18217,0.00087
3026.21779,0.00092
3025.25341,0.00094
3024.28903,0.00095
3023.32465,0.00096
3022.36028,0.00097
3021.39590,0.00097
3020.43152,0.00098
3019.46714,0.00099
3018.50276,0.00099
3017.53839,0.00097
3016.57401,0.00094
3015.60963,0.00091
3014.64525,0.00088
3013.68088,0.00085
3012.71650,0.00083
3011.75212,0.00082
3010.78774,0.00082
3009.82336,0.00082
3008.85899,0.00084
3007.89461,0.00087
3006.93023,0.00087
3005.96585,0.00086
3005.00147,0.00084
3004.03710,0.00082
3003.07272,0.00078
3002.10834,0.00073
3001.14396,0.00069
3000.17959,0.00068
2999.21521,0.00071
2998.25083,0.00078
2997.28645,0.00086
2996.32207,0.00095
2995.35770,0.00103
2994.39332,0.00109
2993.42894,0.00112
2992.46456,0.00113
2991.50018,0.00110
2990.53581,0.00105
2989.57143,0.00101
2988.60705,0.00098
2987.64267,0.00095
2986.67829,0.00092
2985.71392,0.00090
2984.74954,0.00088
2983.78516,0.00088
2982.82078,0.00090
2981.85641,0.00092
2980.89203,0.00094
2979.92765,0.00095
2978.96327,0.00097
2977.99889,0.00098
2977.03452,0.00099
2976.07014,0.00099
2975.10576,0.00099
2974.14138,0.00099
2973.17700,0.00101
2972.21263,0.00105
2971.24825,0.00110
2970.28387,0.00115
2969.31949,0.00119
2968.35512,0.00122
2967.39074,0.00124
2966.42636,0.00125
2965.46198,0.00125
2964.49760,0.00127
2963.53323,0.00130
2962.56885,0.00134
2961.60447,0.00138
2960.64009,0.00141
2959.67571,0.00143
2958.71134,0.00145
2957.74696,0.00145
2956.78258,0.00144
2955.81820,0.00143
2954.85382,0.00143
2953.88945,0.00142
2952.92507,0.00141
2951.96069,0.00140
2950.99631,0.00141
2950.03194,0.00144
2949.06756,0.00148
2948.10318,0.00150
2947.13880,0.00152
2946.17442,0.00155
2945.21005,0.00158
2944.24567,0.00162
2943.28129,0.00165
2942.31691,0.00168
2941.35253,0.00171
2940.38816,0.00177
2939.42378,0.00184
2938.45940,0.00193
2937.49502,0.00204
2936.53065,0.00215
2935.56627,0.00226
2934.60189,0.00238
2933.63751,0.00249
2932.67313,0.00259
2931.70876,0.00269
2930.74438,0.00279
2929.78000,0.00288
2928.81562,0.00297
2927.85124,0.00304
2926.88687,0.00310
2925.92249,0.00315
2924.95811,0.00320
2923.99373,0.00323
2923.02935,0.00324
2922.06498,0.00321
2921.10060,0.00318
2920.13622,0.00313
2919.17184,0.00307
2918.20747,0.00296
2917.24309,0.00284
2916.27871,0.00270
2915.31433,0.00255
2914.34995,0.00241
2913.38558,0.00229
2912.42120,0.00220
2911.45682,0.00213
2910.49244,0.00205
2909.52806,0.00200
2908.56369,0.00195
2907.59931,0.00190
2906.63493,0.00183
2905.67055,0.00176
2904.70618,0.00171
2903.74180,0.00167
2902.77742,0.00166
2901.81304,0.00167
2900.84866,0.00166
2899.88429,0.00162
2898.91991,0.00156
2897.95553,0.00150
2896.99115,0.00143
2896.02677,0.00137
2895.06240,0.00132
2894.09802,0.00128
2893.13364,0.00126
2892.16926,0.00125
2891.20488,0.00124
2890.24051,0.00124
2889.27613,0.00123
2888.31175,0.00122
2887.34737,0.00122
2886.38300,0.00123
2885.41862,0.00123
2884.45424,0.00122
2883.48986,0.00122
2882.52548,0.00122
2881.56111,0.00122
2880.59673,0.00121
2879.63235,0.00122
2878.66797,0.00123
2877.70359,0.00123
2876.73922,0.00122
2875.77484,0.00120
2874.81046,0.00119
2873.84608,0.00117
2872.88171,0.00118
2871.91733,0.00121
2870.95295,0.00126
2869.98857,0.00131
2869.02419,0.00135
2868.05982,0.00139
2867.09544,0.00141
2866.13106,0.00144
2865.16668,0.00148
2864.20230,0.00151
2863.23793,0.00156
2862.27355,0.00163
2861.30917,0.00171
2860.34479,0.00180
2859.38041,0.00189
2858.41604,0.00197
2857.45166,0.00202
2856.48728,0.00204
2855.52290,0.00206
2854.55853,0.00207
2853.59415,0.00207
2852.62977,0.00203
2851.66539,0.00199
2850.70101,0.00194
2849.73664,0.00188
2848.77226,0.00184
2847.80788,0.00180
2846.84350,0.00175
2845.87912,0.00166
2844.91475,0.00156
2843.95037,0.00146
2842.98599,0.00137
2842.02161,0.00130
2841.05724,0.00123
2840.09286,0.00116
2839.12848,0.00108
2838.16410,0.00101
2837.19972,0.00095
2836.23535,0.00090
2835.27097,0.00087
2834.30659,0.00083
2833.34221,0.00081
2832.37783,0.00082
2831.41346,0.00084
2830.44908,0.00088
2829.48470,0.00090
2828.52032,0.00089
2827.55594,0.00089
2826.59157,0.00090
2825.62719,0.00090
2824.66281,0.00090
2823.69843,0.00087
2822.73406,0.00083
2821.76968,0.00080
2820.80530,0.00078
2819.84092,0.00077
2818.87654,0.00077
2817.91217,0.00077
2816.94779,0.00078
2815.98341,0.00080
2815.01903,0.00084
2814.05465,0.00087
2813.09028,0.00088
2812.12590,0.00087
2811.16152,0.00085
2810.19714,0.00085
2809.23276,0.00085
2808.26839,0.00083
2807.30401,0.00079
2806.33963,0.00074
2805.37525,0.00070
2804.41088,0.00068
2803.44650,0.00069
2802.48212,0.00071
2801.51774,0.00073
2800.55336,0.00077
2799.58899,0.00079
2798.62461,0.00080
2797.66023,0.00080
2796.69585,0.00079
2795.73147,0.00077
2794.76710,0.00076
2793.80272,0.00076
2792.83834,0.00076
2791.87396,0.00077
2790.90959,0.00078
2789.94521,0.00078
2788.98083,0.00077
2788.01645,0.00075
2787.05207,0.00072
2786.08770,0.00070
2785.12332,0.00068
2784.15894,0.00066
2783.19456,0.00064
2782.23018,0.00062
2781.26581,0.00061
2780.30143,0.00062
2779.33705,0.00064
2778.37267,0.00066
2777.40829,0.00070
2776.44392,0.00075
2775.47954,0.00080
2774.51516,0.00084
2773.55078,0.00086
2772.58641,0.00086
2771.62203,0.00085
2770.65765,0.00083
2769.69327,0.00081
2768.72889,0.00078
2767.76452,0.00076
2766.80014,0.00074
2765.83576,0.00073
2764.87138,0.00072
2763.90700,0.00070
2762.94263,0.00070
2761.97825,0.00071
2761.01387,0.00073
2760.04949,0.00073
2759.08512,0.00072
2758.12074,0.00070
2757.15636,0.00069
2756.19198,0.00068
2755.22760,0.00067
2754.26323,0.00066
2753.29885,0.00066
2752.33447,0.00067
2751.37009,0.00069
2750.40571,0.00072
2749.44134,0.00074
2748.47696,0.00076
2747.51258,0.00079
2746.54820,0.00080
2745.58382,0.00080
2744.61945,0.00080
2743.65507,0.00081
2742.69069,0.00081
2741.72631,0.00082
2740.76194,0.00081
2739.79756,0.00080
2738.83318,0.00080
2737.86880,0.00078
2736.90442,0.00075
2735.94005,0.00070
2734.97567,0.00065
2734.01129,0.00060
2733.04691,0.00059
2732.08253,0.00059
2731.11816,0.00060
2730.15378,0.00062
2729.18940,0.00065
2728.22502,0.00068
2727.26065,0.00070
2726.29627,0.00070
2725.33189,0.00069
2724.36751,0.00067
2723.40313,0.00065
2722.43876,0.00065
2721.47438,0.00065
2720.51000,0.00066
2719.54562,0.00066
2718.58124,0.00066
2717.61687,0.00065
2716.65249,0.00064
2715.68811,0.00064
2714.72373,0.00065
2713.75935,0.00067
2712.79498,0.00068
2711.83060,0.00070
2710.86622,0.00071
2709.90184,0.00072
2708.93747,0.00073
2707.97309,0.00073
2707.00871,0.00071
2706.04433,0.00070
2705.07995,0.00068
2704.11558,0.00067
2703.15120,0.00065
2702.18682,0.00065
2701.22244,0.00065
2700.25806,0.00065
2699.29369,0.00065
2698.32931,0.00065
2697.36493,0.00066
2696.40055,0.00068
2695.43618,0.00071
2694.47180,0.00074
2693.50742,0.00075
2692.54304,0.00075
2691.57866,0.00074
2690.61429,0.00073
2689.64991,0.00072
2688.68553,0.00069
2687.72115,0.00067
2686.75677,0.00066
2685.79240,0.00065
2684.82802,0.00065
2683.86364,0.00066
2682.89926,0.00068
2681.93488,0.00070
2680.97051,0.00070
2680.00613,0.00071
2679.04175,0.00070
2678.07737,0.00069
2677.11300,0.00069
2676.14862,0.00068
2675.18424,0.00069
2674.21986,0.00069
2673.25548,0.00068
2672.29111,0.00068
2671.32673,0.00069
2670.36235,0.00069
2669.39797,0.00069
2668.43359,0.00068
2667.46922,0.00069
2666.50484,0.00070
2665.54046,0.00072
2664.57608,0.00074
2663.61171,0.00076
2662.64733,0.00075
2661.68295,0.00073
2660.71857,0.00071
2659.75419,0.00069
2658.78982,0.00067
2657.82544,0.00065
2656.86106,0.00064
2655.89668,0.00062
2654.93230,0.00060
2653.96793,0.00059
2653.00355,0.00059
2652.03917,0.00059
2651.07479,0.00059
2650.11041,0.00062
2649.14604,0.00066
2648.18166,0.00070
2647.21728,0.00073
2646.25290,0.00073
2645.28853,0.00070
2644.32415,0.00066
2643.35977,0.00062
2642.39539,0.00060
2641.43101,0.00060
2640.46664,0.00059
2639.50226,0.00060
2638.53788,0.00064
2637.57350,0.00068
2636.60912,0.00071
2635.64475,0.00074
2634.68037,0.00074
2633.71599,0.00074
2632.75161,0.00073
2631.78724,0.00074
2630.82286,0.00073
2629.85848,0.00070
2628.89410,0.00066
2627.92972,0.00063
2626.96535,0.00061
2626.00097,0.00061
2625.03659,0.00061
2624.07221,0.00062
2623.10783,0.00061
2622.14346,0.00060
2621.17908,0.00060
2620.21470,0.00062
2619.25032,0.00064
2618.28594,0.00065
2617.32157,0.00066
2616.35719,0.00068
2615.39281,0.00069
2614.42843,0.00070
2613.46406,0.00069
2612.49968,0.00067
2611.53530,0.00063
2610.57092,0.00061
2609.60654,0.00061
2608.64217,0.00061
2607.67779,0.00061
2606.71341,0.00061
2605.74903,0.00062
2604.78465,0.00063
2603.82028,0.00063
2602.85590,0.00062
2601.89152,0.00059
2600.92714,0.00056
2599.96276,0.00053
2598.99839,0.00048
2598.03401,0.00043
2597.06963,0.00039
2596.10525,0.00038
2595.14088,0.00039
2594.17650,0.00040
2593.21212,0.00041
2592.24774,0.00044
2591.28336,0.00048
2590.31899,0.00054
2589.35461,0.00060
2588.39023,0.00064
2587.42585,0.00063
2586.46147,0.00061
2585.49710,0.00059
2584.53272,0.00058
2583.56834,0.00056
2582.60396,0.00051
2581.63959,0.00044
2580.67521,0.00040
2579.71083,0.00043
2578.74645,0.00049
2577.78207,0.00055
2576.81770,0.00060
2575.85332,0.00065
2574.88894,0.00068
2573.92456,0.00071
2572.96018,0.00075
2571.99581,0.00077
2571.03143,0.00074
2570.06705,0.00070
2569.10267,0.00068
2568.13829,0.00068
2567.17392,0.00067
2566.20954,0.00064
2565.24516,0.00062
2564.28078,0.00061
2563.31641,0.00057
2562.35203,0.00050
2561.38765,0.00046
2560.42327,0.00044
2559.45889,0.00043
2558.49452,0.00041
2557.53014,0.00041
2556.56576,0.00043
2555.60138,0.00048
2554.63700,0.00057
2553.67263,0.00067
2552.70825,0.00073
2551.74387,0.00073
2550.77949,0.00071
2549.81512,0.00070
2548.85074,0.00067
2547.88636,0.00061
2546.92198,0.00055
2545.95760,0.00054
2544.99323,0.00056
2544.02885,0.00061
2543.06447,0.00067
2542.10009,0.00070
2541.13571,0.00066
2540.17134,0.00058
2539.20696,0.00050
2538.24258,0.00040
2537.27820,0.00029
2536.31382,0.00022
2535.34945,0.00022
2534.38507,0.00028
2533.42069,0.00035
2532.45631,0.00042
2531.49194,0.00046
2530.52756,0.00049
2529.56318,0.00053
2528.59880,0.00057
2527.63442,0.00059
2526.67005,0.00057
2525.70567,0.00051
2524.74129,0.00046
2523.77691,0.00048
2522.81253,0.00052
2521.84816,0.00055
2520.88378,0.00054
2519.91940,0.00051
2518.95502,0.00049
2517.99065,0.00047
2517.02627,0.00043
2516.06189,0.00036
2515.09751,0.00026
2514.13313,0.00014
2513.16876,0.00006
2512.20438,0.00004
2511.24000,0.00007
2510.27562,0.00014
2509.31124,0.00024
2508.34687,0.00035
2507.38249,0.00044
2506.41811,0.00051
2505.45373,0.00059
2504.48935,0.00063
2503.52498,0.00061
2502.56060,0.00053
2501.59622,0.00042
2500.63184,0.00033
2499.66747,0.00027
2498.70309,0.00025
2497.73871,0.00026
2496.77433,0.00029
2495.80995,0.00032
2494.84558,0.00037
2493.88120,0.00042
2492.91682,0.00045
2491.95244,0.00043
2490.98806,0.00039
2490.02369,0.00038
2489.05931,0.00041
2488.09493,0.00049
2487.13055,0.00058
2486.16618,0.00065
2485.20180,0.00070
2484.23742,0.00073
2483.27304,0.00075
2482.30866,0.00071
2481.34429,0.00064
2480.37991,0.00057
2479.41553,0.00054
2478.45115,0.00054
2477.48677,0.00055
2476.52240,0.00057
2475.55802,0.00059
2474.59364,0.00062
2473.62926,0.00065
2472.66488,0.00070
2471.70051,0.00073
2470.73613,0.00070
2469.77175,0.00065
2468.80737,0.00060
2467.84300,0.00054
2466.87862,0.00048
2465.91424,0.00044
2464.94986,0.00041
2463.98548,0.00039
2463.02111,0.00038
2462.05673,0.00039
2461.09235,0.00041
2460.12797,0.00043
2459.16359,0.00043
2458.19922,0.00042
2457.23484,0.00042
2456.27046,0.00044
2455.30608,0.00048
2454.34171,0.00052
2453.37733,0.00056
2452.41295,0.00058
2451.44857,0.00058
2450.48419,0.00056
2449.51982,0.00052
2448.55544,0.00046
2447.59106,0.00041
2446.62668,0.00039
2445.66230,0.00039
2444.69793,0.00039
2443.73355,0.00040
2442.76917,0.00041
2441.80479,0.00043
2440.84041,0.00046
2439.87604,0.00052
2438.91166,0.00058
2437.94728,0.00062
2436.98290,0.00066
2436.01853,0.00071
2435.05415,0.00075
2434.08977,0.00078
2433.12539,0.00079
2432.16101,0.00081
2431.19664,0.00082
2430.23226,0.00082
2429.26788,0.00082
2428.30350,0.00082
2427.33912,0.00080
2426.37475,0.00077
2425.41037,0.00070
2424.44599,0.00060
2423.48161,0.00050
2422.51724,0.00044
2421.55286,0.00041
2420.58848,0.00041
2419.62410,0.00043
2418.65972,0.00049
2417.69535,0.00054
2416.73097,0.00058
2415.76659,0.00061
2414.80221,0.00061
2413.83783,0.00059
2412.87346,0.00057
2411.90908,0.00059
2410.94470,0.00061
2409.98032,0.00061
2409.01594,0.00060
2408.05157,0.00058
2407.08719,0.00055
2406.12281,0.00049
2405.15843,0.00042
2404.19406,0.00036
2403.22968,0.00033
2402.26530,0.00034
2401.30092,0.00041
2400.33654,0.00051
2399.37217,0.00059
2398.40779,0.00065
2397.44341,0.00069
2396.47903,0.00069
2395.51465,0.00065
2394.55028,0.00061
2393.58590,0.00058
2392.62152,0.00056
2391.65714,0.00055
2390.69276,0.00055
2389.72839,0.00056
2388.76401,0.00055
2387.79963,0.00053
2386.83525,0.00051
2385.87088,0.00051
2384.90650,0.00051
2383.94212,0.00052
2382.97774,0.00052
2382.01336,0.00051
2381.04899,0.00050
2380.08461,0.00048
2379.12023,0.00045
2378.15585,0.00042
2377.19147,0.00040
2376.22710,0.00039
2375.26272,0.00039
2374.29834,0.00040
2373.33396,0.00040
2372.36959,0.00039
2371.40521,0.00037
2370.44083,0.00034
2369.47645,0.00030
2368.51207,0.00027
2367.54770,0.00026
2366.58332,0.00028
2365.61894,0.00030
2364.65456,0.00031
2363.69018,0.00033
2362.72581,0.00035
2361.76143,0.00037
2360.79705,0.00040
2359.83267,0.00042
2358.86829,0.00041
2357.90392,0.00039
2356.93954,0.00038
2355.97516,0.00037
2355.01078,0.00036
2354.04641,0.00034
2353.08203,0.00032
2352.11765,0.00031
2351.15327,0.00031
2350.18889,0.00029
2349.22452,0.00027
2348.26014,0.00027
2347.29576,0.00028
2346.33138,0.00029
2345.36700,0.00029
2344.40263,0.00030
2343.43825,0.00032
2342.47387,0.00034
2341.50949,0.00038
2340.54512,0.00043
2339.58074,0.00047
2338.61636,0.00048
2337.65198,0.00049
2336.68760,0.00050
2335.72323,0.00052
2334.75885,0.00052
2333.79447,0.00050
2332.83009,0.00047
2331.86571,0.00046
2330.90134,0.00045
2329.93696,0.00043
2328.97258,0.00039
2328.00820,0.00036
2327.04382,0.00034
2326.07945,0.00032
2325.11507,0.00031
2324.15069,0.00032
2323.18631,0.00034
2322.22194,0.00037
2321.25756,0.00038
2320.29318,0.00038
2319.32880,0.00037
2318.36442,0.00036
2317.40005,0.00034
2316.43567,0.00031
2315.47129,0.00027
2314.50691,0.00025
2313.54253,0.00026
2312.57816,0.00030
2311.61378,0.00034
2310.64940,0.00035
2309.68502,0.00036
2308.72065,0.00037
2307.75627,0.00039
2306.79189,0.00042
2305.82751,0.00042
2304.86313,0.00036
2303.89876,0.00030
2302.93438,0.00029
2301.97000,0.00033
2301.00562,0.00037
2300.04124,0.00039
2299.07687,0.00040
2298.11249,0.00042
2297.14811,0.00044
2296.18373,0.00045
2295.21935,0.00043
2294.25498,0.00037
2293.29060,0.00028
2292.32622,0.00022
2291.36184,0.00019
2290.39747,0.00017
2289.43309,0.00013
2288.46871,0.00008
2287.50433,0.00003
2286.53995,0.00000
2285.57558,-0.00001
2284.61120,-0.00001
2283.64682,0.00003
2282.68244,0.00007
2281.71806,0.00010
2280.75369,0.00013
2279.78931,0.00013
2278.82493,0.00012
2277.86055,0.00014
2276.89618,0.00016
2275.93180,0.00016
2274.96742,0.00014
2274.00304,0.00013
2273.03866,0.00016
2272.07429,0.00024
2271.10991,0.00031
2270.14553,0.00033
2269.18115,0.00034
2268.21677,0.00033
2267.25240,0.00035
2266.28802,0.00046
2265.32364,0.00058
2264.35926,0.00067
2263.39488,0.00071
2262.43051,0.00072
2261.46613,0.00070
2260.50175,0.00064
2259.53737,0.00050
2258.57300,0.00033
2257.60862,0.00020
2256.64424,0.00008
2255.67986,0.00001
2254.71548,0.00002
2253.75111,0.00009
2252.78673,0.00015
2251.82235,0.00022
2250.85797,0.00027
2249.89359,0.00027
2248.92922,0.00023
2247.96484,0.00017
2247.00046,0.00012
2246.03608,0.00012
2245.07171,0.00018
2244.10733,0.00026
2243.14295,0.00030
2242.17857,0.00032
2241.21419,0.00041
2240.24982,0.00057
2239.28544,0.00068
2238.32106,0.00065
2237.35668,0.00047
2236.39230,0.00016
2235.42793,-0.00017
2234.46355,-0.00042
2233.49917,-0.00053
2232.53479,-0.00057
2231.57041,-0.00060
2230.60604,-0.00059
2229.64166,-0.00043
2228.67728,-0.00014
2227.71290,0.00013
2226.74853,0.00024
2225.78415,0.00020
2224.81977,0.00012
2223.85539,0.00005
2222.89101,0.00002
2221.92664,0.00007
2220.96226,0.00016
2219.99788,0.00017
2219.03350,0.00015
2218.06912,0.00022
2217.10475,0.00045
2216.14037,0.00072
2215.17599,0.00085
2214.21161,0.00087
2213.24724,0.00083
2212.28286,0.00071
2211.31848,0.00048
2210.35410,0.00023
2209.38972,0.00009
2208.42535,0.00002
2207.46097,0.00002
2206.49659,0.00016
2205.53221,0.00039
2204.56783,0.00064
2203.60346,0.00081
2202.63908,0.00091
2201.67470,0.00096
2200.71032,0.00091
2199.74594,0.00078
2198.78157,0.00068
2197.81719,0.00069
2196.85281,0.00073
2195.88843,0.00072
2194.92406,0.00072
2193.95968,0.00072
2192.99530,0.00072
2192.03092,0.00071
2191.06654,0.00071
2190.10217,0.00071
2189.13779,0.00071
2188.17341,0.00071
2187.20903,0.00070
2186.24465,0.00070
2185.28028,0.00070
2184.31590,0.00070
2183.35152,0.00070
2182.38714,0.00069
2181.42276,0.00069
2180.45839,0.00069
2179.49401,0.00069
2178.52963,0.00069
2177.56525,0.00068
2176.60088,0.00068
2175.63650,0.00068
2174.67212,0.00068
2173.70774,0.00067
2172.74336,0.00067
2171.77899,0.00067
2170.81461,0.00067
2169.85023,0.00067
2168.88585,0.00066
2167.92147,0.00066
2166.95710,0.00066
2165.99272,0.00066
2165.02834,0.00066
2164.06396,0.00065
2163.09959,0.00065
2162.13521,0.00065
2161.17083,0.00065
2160.20645,0.00064
2159.24207,0.00064
2158.27770,0.00064
2157.31332,0.00064
2156.34894,0.00064
2155.38456,0.00063
2154.42018,0.00063
2153.45581,0.00063
2152.49143,0.00063
2151.52705,0.00063
2150.56267,0.00062
2149.59829,0.00062
2148.63392,0.00062
2147.66954,0.00062
2146.70516,0.00062
2145.74078,0.00061
2144.77641,0.00061
2143.81203,0.00061
2142.84765,0.00061
2141.88327,0.00060
2140.91889,0.00060
2139.95452,0.00060
2138.99014,0.00060
2138.02576,0.00060
2137.06138,0.00059
2136.09700,0.00059
2135.13263,0.00059
2134.16825,0.00059
2133.20387,0.00059
2132.23949,0.00058
2131.27512,0.00058
2130.31074,0.00058
2129.34636,0.00058
2128.38198,0.00057
2127.41760,0.00057
2126.45323,0.00057
2125.48885,0.00057
2124.52447,0.00057
2123.56009,0.00056
2122.59571,0.00056
2121.63134,0.00056
2120.66696,0.00056
2119.70258,0.00056
2118.73820,0.00055
2117.77382,0.00055
2116.80945,0.00055
2115.84507,0.00055
2114.88069,0.00055
2113.91631,0.00054
2112.95194,0.00054
2111.98756,0.00054
2111.02318,0.00054
2110.05880,0.00053
2109.09442,0.00053
2108.13005,0.00053
2107.16567,0.00053
2106.20129,0.00053
2105.23691,0.00052
2104.27253,0.00052
2103.30816,0.00052
2102.34378,0.00052
2101.37940,0.00052
2100.41502,0.00051
2099.45065,0.00051
2098.48627,0.00051
2097.52189,0.00051
2096.55751,0.00050
2095.59313,0.00050
2094.62876,0.00050
2093.66438,0.00050
2092.70000,0.00050
2091.73562,0.00049
2090.77124,0.00049
2089.80687,0.00049
2088.84249,0.00049
2087.87811,0.00049
2086.91373,0.00048
2085.94935,0.00048
2084.98498,0.00048
2084.02060,0.00048
2083.05622,0.00048
2082.09184,0.00047
2081.12747,0.00047
2080.16309,0.00047
2079.19871,0.00047
2078.23433,0.00046
2077.26995,0.00046
2076.30558,0.00046
2075.34120,0.00046
2074.37682,0.00046
2073.41244,0.00045
2072.44806,0.00045
2071.48369,0.00045
2070.51931,0.00045
2069.55493,0.00045
2068.59055,0.00044
2067.62618,0.00044
2066.66180,0.00044
2065.69742,0.00044
2064.73304,0.00043
2063.76866,0.00043
2062.80429,0.00043
2061.83991,0.00043
2060.87553,0.00043
2059.91115,0.00042
2058.94677,0.00042
2057.98240,0.00042
2057.01802,0.00042
2056.05364,0.00042
2055.08926,0.00041
2054.12488,0.00041
2053.16051,0.00041
2052.19613,0.00041
2051.23175,0.00041
2050.26737,0.00040
2049.30300,0.00040
2048.33862,0.00040
2047.37424,0.00040
2046.40986,0.00039
2045.44548,0.00039
2044.48111,0.00039
2043.51673,0.00039
2042.55235,0.00039
2041.58797,0.00038
2040.62359,0.00038
2039.65922,0.00038
2038.69484,0.00038
2037.73046,0.00038
2036.76608,0.00037
2035.80171,0.00037
2034.83733,0.00037
2033.87295,0.00037
2032.90857,0.00036
2031.94419,0.00036
2030.97982,0.00036
2030.01544,0.00036
2029.05106,0.00036
2028.08668,0.00035
2027.12230,0.00035
2026.15793,0.00035
2025.19355,0.00035
2024.22917,0.00035
2023.26479,0.00034
2022.30041,0.00034
2021.33604,0.00034
2020.37166,0.00034
2019.40728,0.00033
2018.44290,0.00033
2017.47853,0.00033
2016.51415,0.00033
2015.54977,0.00033
2014.58539,0.00032
2013.62101,0.00032
2012.65664,0.00032
2011.69226,0.00032
2010.72788,0.00032
2009.76350,0.00031
2008.79912,0.00031
2007.83475,0.00031
2006.87037,0.00031
2005.90599,0.00031
2004.94161,0.00030
2003.97724,0.00030
2003.01286,0.00030
2002.04848,0.00030
2001.08410,0.00029
2000.11972,0.00029
1999.15535,0.00029
1998.19097,0.00029
1997.22659,0.00029
1996.26221,0.00028
1995.29783,0.00028
1994.33346,0.00028
1993.36908,0.00028
1992.40470,0.00028
1991.44032,0.00027
1990.47594,0.00027
1989.51157,0.00027
1988.54719,0.00027
1987.58281,0.00026
1986.61843,0.00026
1985.65406,0.00026
1984.68968,0.00026
1983.72530,0.00026
1982.76092,0.00025
1981.79654,0.00025
1980.83217,0.00025
1979.86779,0.00025
1978.90341,0.00025
1977.93903,0.00024
1976.97465,0.00024
1976.01028,0.00024
1975.04590,0.00024
1974.08152,0.00024
1973.11714,0.00023
1972.15276,0.00023
1971.18839,0.00023
1970.22401,0.00023
1969.25963,0.00022
1968.29525,0.00022
1967.33088,0.00022
1966.36650,0.00022
1965.40212,0.00022
1964.43774,0.00021
1963.47336,0.00021
1962.50899,0.00016
1961.54461,0.00016
1960.58023,0.00024
1959.61585,0.00035
1958.65147,0.00040
1957.68710,0.00034
1956.72272,0.00021
1955.75834,0.00014
1954.79396,0.00026
1953.82959,0.00053
1952.86521,0.00080
1951.90083,0.00100
1950.93645,0.00107
1949.97207,0.00109
1949.00770,0.00099
1948.04332,0.00070
1947.07894,0.00024
1946.11456,-0.00025
1945.15018,-0.00061
1944.18581,-0.00065
1943.22143,-0.00039
1942.25705,-0.00004
1941.29267,0.00025
1940.32829,0.00047
1939.36392,0.00062
1938.39954,0.00069
1937.43516,0.00066
1936.47078,0.00055
1935.50641,0.00041
1934.54203,0.00031
1933.57765,0.00028
1932.61327,0.00031
1931.64889,0.00035
1930.68452,0.00038
1929.72014,0.00038
1928.75576,0.00037
1927.79138,0.00038
1926.82700,0.00041
1925.86263,0.00046
1924.89825,0.00047
1923.93387,0.00048
1922.96949,0.00051
1922.00512,0.00054
1921.04074,0.00057
1920.07636,0.00060
1919.11198,0.00063
1918.14760,0.00064
1917.18323,0.00059
1916.21885,0.00050
1915.25447,0.00041
1914.29009,0.00035
1913.32571,0.00032
1912.36134,0.00034
1911.39696,0.00040
1910.43258,0.00048
1909.46820,0.00053
1908.50382,0.00059
1907.53945,0.00064
1906.57507,0.00066
1905.61069,0.00064
1904.64631,0.00062
1903.68194,0.00060
1902.71756,0.00058
1901.75318,0.00056
1900.78880,0.00059
1899.82442,0.00065
1898.86005,0.00069
1897.89567,0.00069
1896.93129,0.00066
1895.96691,0.00059
1895.00253,0.00050
1894.03816,0.00038
1893.07378,0.00026
1892.10940,0.00015
1891.14502,0.00007
1890.18065,0.00005
1889.21627,0.00010
1888.25189,0.00020
1887.28751,0.00029
1886.32313,0.00036
1885.35876,0.00038
1884.39438,0.00039
1883.43000,0.00043
1882.46562,0.00049
1881.50124,0.00057
1880.53687,0.00063
1879.57249,0.00066
1878.60811,0.00066
1877.64373,0.00064
1876.67935,0.00062
1875.71498,0.00059
1874.75060,0.00054
1873.78622,0.00044
1872.82184,0.00037
1871.85747,0.00037
1870.89309,0.00043
1869.92871,0.00049
1868.96433,0.00053
1867.99995,0.00054
1867.03558,0.00053
1866.07120,0.00053
1865.10682,0.00054
1864.14244,0.00056
1863.17806,0.00056
1862.21369,0.00053
1861.24931,0.00050
1860.28493,0.00046
1859.32055,0.00042
1858.35618,0.00036
1857.39180,0.00032
1856.42742,0.00030
1855.46304,0.00029
1854.49866,0.00027
1853.53429,0.00028
1852.56991,0.00031
1851.60553,0.00036
1850.64115,0.00042
1849.67677,0.00049
1848.71240,0.00055
1847.74802,0.00055
1846.78364,0.00053
1845.81926,0.00050
1844.85488,0.00046
1843.89051,0.00040
1842.92613,0.00034
1841.96175,0.00031
1840.99737,0.00030
1840.03300,0.00032
1839.06862,0.00036
1838.10424,0.00040
1837.13986,0.00041
1836.17548,0.00038
1835.21111,0.00034
1834.24673,0.00033
1833.28235,0.00033
1832.31797,0.00035
1831.35359,0.00038
1830.38922,0.00042
1829.42484,0.00046
1828.46046,0.00051
1827.49608,0.00054
1826.53171,0.00054
1825.56733,0.00053
1824.60295,0.00050
1823.63857,0.00049
1822.67419,0.00050
1821.70982,0.00051
1820.74544,0.00053
1819.78106,0.00056
1818.81668,0.00058
1817.85230,0.00060
1816.88793,0.00061
1815.92355,0.00061
1814.95917,0.00060
1813.99479,0.00059
1813.03041,0.00057
1812.06604,0.00055
1811.10166,0.00054
1810.13728,0.00052
1809.17290,0.00050
1808.20853,0.00048
1807.24415,0.00046
1806.27977,0.00043
1805.31539,0.00040
1804.35101,0.00039
1803.38664,0.00040
1802.42226,0.00042
1801.45788,0.00047
1800.49350,0.00051
1799.52912,0.00054
1798.56475,0.00056
1797.60037,0.00058
1796.63599,0.00057
1795.67161,0.00053
1794.70724,0.00047
1793.74286,0.00041
1792.77848,0.00038
1791.81410,0.00038
1790.84972,0.00038
1789.88535,0.00038
1788.92097,0.00039
1787.95659,0.00042
1786.99221,0.00045
1786.02783,0.00049
1785.06346,0.00051
1784.09908,0.00051
1783.13470,0.00050
1782.17032,0.00050
1781.20594,0.00051
1780.24157,0.00053
1779.27719,0.00054
1778.31281,0.00054
1777.34843,0.00052
1776.38406,0.00051
1775.41968,0.00049
1774.45530,0.00046
1773.49092,0.00044
1772.52654,0.00043
1771.56217,0.00043
1770.59779,0.00044
1769.63341,0.00048
1768.66903,0.00051
1767.70465,0.00053
1766.74028,0.00054
1765.77590,0.00054
1764.81152,0.00055
1763.84714,0.00055
1762.88276,0.00055
1761.91839,0.00057
1760.95401,0.00060
1759.98963,0.00063
1759.02525,0.00066
1758.06088,0.00068
1757.09650,0.00068
1756.13212,0.00069
1755.16774,0.00070
1754.20336,0.00073
1753.23899,0.00077
1752.27461,0.00081
1751.31023,0.00084
1750.34585,0.00088
1749.38147,0.00089
1748.41710,0.00089
1747.45272,0.00089
1746.48834,0.00089
1745.52396,0.00089
1744.55959,0.00090
1743.59521,0.00092
1742.63083,0.00093
1741.66645,0.00093
1740.70207,0.00094
1739.73770,0.00095
1738.77332,0.00096
1737.80894,0.00097
1736.84456,0.00099
1735.88018,0.00100
1734.91581,0.00099
1733.95143,0.00098
1732.98705,0.00097
1732.02267,0.00094
1731.05829,0.00091
1730.09392,0.00088
1729.12954,0.00086
1728.16516,0.00086
1727.20078,0.00086
1726.23641,0.00086
1725.27203,0.00087
1724.30765,0.00087
1723.34327,0.00089
1722.37889,0.00089
1721.41452,0.00089
1720.45014,0.00087
1719.48576,0.00083
1718.52138,0.00080
1717.55700,0.00078
1716.59263,0.00076
1715.62825,0.00073
1714.66387,0.00071
1713.69949,0.00071
1712.73512,0.00072
1711.77074,0.00073
1710.80636,0.00074
1709.84198,0.00074
1708.87760,0.00073
1707.91323,0.00073
1706.94885,0.00073
1705.98447,0.00074
1705.02009,0.00075
1704.05571,0.00076
1703.09134,0.00077
1702.12696,0.00079
1701.16258,0.00081
1700.19820,0.00082
1699.23382,0.00084
1698.26945,0.00086
1697.30507,0.00089
1696.34069,0.00091
1695.37631,0.00092
1694.41194,0.00091
1693.44756,0.00090
1692.48318,0.00089
1691.51880,0.00088
1690.55442,0.00089
1689.59005,0.00090
1688.62567,0.00093
1687.66129,0.00095
1686.69691,0.00098
1685.73253,0.00101
1684.76816,0.00105
1683.80378,0.00108
1682.83940,0.00110
1681.87502,0.00113
1680.91065,0.00114
1679.94627,0.00116
1678.98189,0.00119
1678.01751,0.00121
1677.05313,0.00123
1676.08876,0.00124
1675.12438,0.00124
1674.16000,0.00124
1673.19562,0.00126
1672.23124,0.00128
1671.26687,0.00131
1670.30249,0.00133
1669.33811,0.00134
1668.37373,0.00136
1667.40935,0.00137
1666.44498,0.00139
1665.48060,0.00139
1664.51622,0.00137
1663.55184,0.00135
1662.58747,0.00134
1661.62309,0.00134
1660.65871,0.00134
1659.69433,0.00134
1658.72995,0.00134
1657.76558,0.00134
1656.80120,0.00133
1655.83682,0.00132
1654.87244,0.00130
1653.90806,0.00127
1652.94369,0.00124
1651.97931,0.00122
1651.01493,0.00120
1650.05055,0.00120
1649.08618,0.00120
1648.12180,0.00121
1647.15742,0.00122
1646.19304,0.00123
1645.22866,0.00124
1644.26429,0.00123
1643.29991,0.00121
1642.33553,0.00118
1641.37115,0.00114
1640.40677,0.00111
1639.44240,0.00110
1638.47802,0.00110
1637.51364,0.00111
1636.54926,0.00112
1635.58488,0.00115
1634.62051,0.00118
1633.65613,0.00122
1632.69175,0.00125
1631.72737,0.00127
1630.76300,0.00128
1629.79862,0.00128
1628.83424,0.00129
1627.86986,0.00131
1626.90548,0.00132
1625.94111,0.00133
1624.97673,0.00135
1624.01235,0.00136
1623.04797,0.00136
1622.08359,0.00136
1621.11922,0.00135
1620.15484,0.00134
1619.19046,0.00132
1618.22608,0.00131
1617.26171,0.00132
1616.29733,0.00133
1615.33295,0.00135
1614.36857,0.00137
1613.40419,0.00140
1612.43982,0.00143
1611.47544,0.00145
1610.51106,0.00147
1609.54668,0.00147
1608.58230,0.00146
1607.61793,0.00145
1606.65355,0.00144
1605.68917,0.00143
1604.72479,0.00141
1603.76041,0.00141
1602.79604,0.00140
1601.83166,0.00141
1600.86728,0.00141
1599.90290,0.00141
1598.93853,0.00141
1597.97415,0.00142
1597.00977,0.00142
1596.04539,0.00143
1595.08101,0.00143
1594.11664,0.00145
1593.15226,0.00148
1592.18788,0.00152
1591.22350,0.00154
1590.25912,0.00155
1589.29475,0.00155
1588.33037,0.00154
1587.36599,0.00152
1586.40161,0.00150
1585.43724,0.00147
1584.47286,0.00145
1583.50848,0.00144
1582.54410,0.00144
1581.57972,0.00146
1580.61535,0.00148
1579.65097,0.00151
1578.68659,0.00152
1577.72221,0.00152
1576.75783,0.00152
1575.79346,0.00153
1574.82908,0.00153
1573.86470,0.00153
1572.90032,0.00153
1571.93594,0.00153
1570.97157,0.00153
1570.00719,0.00154
1569.04281,0.00154
1568.07843,0.00154
1567.11406,0.00152
1566.14968,0.00149
1565.18530,0.00147
1564.22092,0.00146
1563.25654,0.00146
1562.29217,0.00146
1561.32779,0.00145
1560.36341,0.00144
1559.39903,0.00143
1558.43465,0.00141
1557.47028,0.00138
1556.50590,0.00134
1555.54152,0.00129
1554.57714,0.00126
1553.61276,0.00124
1552.64839,0.00123
1551.68401,0.00122
1550.71963,0.00121
1549.75525,0.00120
1548.79088,0.00118
1547.82650,0.00117
1546.86212,0.00116
1545.89774,0.00115
1544.93336,0.00115
1543.96899,0.00116
1543.00461,0.00117
1542.04023,0.00117
1541.07585,0.00116
1540.11147,0.00115
1539.14710,0.00113
1538.18272,0.00111
1537.21834,0.00109
1536.25396,0.00107
1535.28959,0.00107
1534.32521,0.00108
1533.36083,0.00109
1532.39645,0.00110
1531.43207,0.00110
1530.46770,0.00109
1529.50332,0.00108
1528.53894,0.00107
1527.57456,0.00106
1526.61018,0.00105
1525.64581,0.00104
1524.68143,0.00104
1523.71705,0.00105
1522.75267,0.00106
1521.78829,0.00106
1520.82392,0.00105
1519.85954,0.00105
1518.89516,0.00104
1517.93078,0.00105
1516.96641,0.00105
1516.00203,0.00105
1515.03765,0.00105
1514.07327,0.00106
1513.10889,0.00106
1512.14452,0.00107
1511.18014,0.00107
1510.21576,0.00107
1509.25138,0.00108
1508.28700,0.00109
1507.32263,0.00110
1506.35825,0.00112
1505.39387,0.00112
1504.42949,0.00113
1503.46512,0.00113
1502.50074,0.00112
1501.53636,0.00110
1500.57198,0.00109
1499.60760,0.00107
1498.64323,0.00107
1497.67885,0.00107
1496.71447,0.00107
1495.75009,0.00108
1494.78571,0.00108
1493.82134,0.00109
1492.85696,0.00110
1491.89258,0.00111
1490.92820,0.00111
1489.96382,0.00110
1488.99945,0.00109
1488.03507,0.00109
1487.07069,0.00109
1486.10631,0.00110
1485.14194,0.00110
1484.17756,0.00111
1483.21318,0.00114
1482.24880,0.00117
1481.28442,0.00119
1480.32005,0.00121
1479.35567,0.00123
1478.39129,0.00125
1477.42691,0.00127
1476.46253,0.00129
1475.49816,0.00131
1474.53378,0.00134
1473.56940,0.00137
1472.60502,0.00142
1471.64065,0.00147
1470.67627,0.00152
1469.71189,0.00158
1468.74751,0.00164
1467.78313,0.00169
1466.81876,0.00173
1465.85438,0.00176
1464.89000,0.00178
1463.92562,0.00178
1462.96124,0.00179
1461.99687,0.00182
1461.03249,0.00185
1460.06811,0.00189
1459.10373,0.00192
1458.13935,0.00194
1457.17498,0.00194
1456.21060,0.00193
1455.24622,0.00192
1454.28184,0.00190
1453.31747,0.00188
1452.35309,0.00187
1451.38871,0.00187
1450.42433,0.00189
1449.45995,0.00190
1448.49558,0.00190
1447.53120,0.00189
1446.56682,0.00188
1445.60244,0.00188
1444.63806,0.00188
1443.67369,0.00187
1442.70931,0.00187
1441.74493,0.00188
1440.78055,0.00189
1439.81618,0.00191
1438.85180,0.00193
1437.88742,0.00195
1436.92304,0.00196
1435.95866,0.00197
1434.99429,0.00198
1434.02991,0.00199
1433.06553,0.00200
1432.10115,0.00201
1431.13677,0.00201
1430.17240,0.00201
1429.20802,0.00201
1428.24364,0.00201
1427.27926,0.00200
1426.31488,0.00199
1425.35051,0.00198
1424.38613,0.00197
1423.42175,0.00198
1422.45737,0.00200
1421.49300,0.00202
1420.52862,0.00205
1419.56424,0.00208
1418.59986,0.00211
1417.63548,0.00212
1416.67111,0.00213
1415.70673,0.00213
1414.74235,0.00213
1413.77797,0.00213
1412.81359,0.00212
1411.84922,0.00211
1410.88484,0.00210
1409.92046,0.00210
1408.95608,0.00210
1407.99171,0.00210
1407.02733,0.00208
1406.06295,0.00206
1405.09857,0.00204
1404.13419,0.00204
1403.16982,0.00205
1402.20544,0.00205
1401.24106,0.00205
1400.27668,0.00205
1399.31230,0.00206
1398.34793,0.00207
1397.38355,0.00208
1396.41917,0.00207
1395.45479,0.00206
1394.49041,0.00204
1393.52604,0.00203
1392.56166,0.00204
1391.59728,0.00204
1390.63290,0.00204
1389.66853,0.00203
1388.70415,0.00200
1387.73977,0.00199
1386.77539,0.00198
1385.81101,0.00196
1384.84664,0.00193
1383.88226,0.00191
1382.91788,0.00190
1381.95350,0.00190
1380.98912,0.00191
1380.02475,0.00191
1379.06037,0.00192
1378.09599,0.00191
1377.13161,0.00190
1376.16724,0.00189
1375.20286,0.00187
1374.23848,0.00185
1373.27410,0.00182
1372.30972,0.00179
1371.34535,0.00176
1370.38097,0.00174
1369.41659,0.00171
1368.45221,0.00169
1367.48783,0.00166
1366.52346,0.00163
1365.55908,0.00160
1364.59470,0.00157
1363.63032,0.00155
1362.66594,0.00155
1361.70157,0.00154
1360.73719,0.00154
1359.77281,0.00155
1358.80843,0.00155
1357.84406,0.00155
1356.87968,0.00153
1355.91530,0.00151
1354.95092,0.00149
1353.98654,0.00147
1353.02217,0.00145
1352.05779,0.00143
1351.09341,0.00140
1350.12903,0.00137
1349.16465,0.00135
1348.20028,0.00133
1347.23590,0.00131
1346.27152,0.00130
1345.30714,0.00129
1344.34276,0.00129
1343.37839,0.00129
1342.41401,0.00128
1341.44963,0.00128
1340.48525,0.00127
1339.52088,0.00125
1338.55650,0.00122
1337.59212,0.00119
1336.62774,0.00117
1335.66336,0.00116
1334.69899,0.00115
1333.73461,0.00114
1332.77023,0.00112
1331.80585,0.00111
1330.84147,0.00110
1329.87710,0.00109
1328.91272,0.00108
1327.94834,0.00106
1326.98396,0.00105
1326.01959,0.00104
1325.05521,0.00103
1324.09083,0.00102
1323.12645,0.00102
1322.16207,0.00104
1321.19770,0.00106
1320.23332,0.00107
1319.26894,0.00108
1318.30456,0.00107
1317.34018,0.00106
1316.37581,0.00105
1315.41143,0.00103
1314.44705,0.00101
1313.48267,0.00100
1312.51829,0.00100
1311.55392,0.00101
1310.58954,0.00102
1309.62516,0.00103
1308.66078,0.00104
1307.69641,0.00104
1306.73203,0.00104
1305.76765,0.00103
1304.80327,0.00103
1303.83889,0.00102
1302.87452,0.00102
1301.91014,0.00101
1300.94576,0.00101
1299.98138,0.00101
1299.01700,0.00100
1298.05263,0.00099
1297.08825,0.00097
1296.12387,0.00096
1295.15949,0.00095
1294.19512,0.00094
1293.23074,0.00094
1292.26636,0.00095
1291.30198,0.00096
1290.33760,0.00097
1289.37323,0.00098
1288.40885,0.00100
1287.44447,0.00102
1286.48009,0.00104
1285.51571,0.00106
1284.55134,0.00108
1283.58696,0.00110
1282.62258,0.00112
1281.65820,0.00113
1280.69382,0.00113
1279.72945,0.00110
1278.76507,0.00108
1277.80069,0.00105
1276.83631,0.00104
1275.87194,0.00104
1274.90756,0.00104
1273.94318,0.00106
1272.97880,0.00107
1272.01442,0.00108
1271.05005,0.00109
1270.08567,0.00110
1269.12129,0.00112
1268.15691,0.00114
1267.19253,0.00117
1266.22816,0.00119
1265.26378,0.00120
1264.29940,0.00122
1263.33502,0.00124
1262.37065,0.00125
1261.40627,0.00124
1260.44189,0.00123
1259.47751,0.00121
1258.51313,0.00119
1257.54876,0.00117
1256.58438,0.00116
1255.62000,0.00114
1254.65562,0.00112
1253.69124,0.00111
1252.72687,0.00110
1251.76249,0.00109
1250.79811,0.00109
1249.83373,0.00109
1248.86935,0.00109
1247.90498,0.00110
1246.94060,0.00111
1245.97622,0.00112
1245.01184,0.00113
1244.04747,0.00113
1243.08309,0.00112
1242.11871,0.00111
1241.15433,0.00111
1240.18995,0.00110
1239.22558,0.00110
1238.26120,0.00110
1237.29682,0.00109
1236.33244,0.00109
1235.36806,0.00109
1234.40369,0.00109
1233.43931,0.00110
1232.47493,0.00111
1231.51055,0.00112
1230.54618,0.00114
1229.58180,0.00116
1228.61742,0.00118
1227.65304,0.00120
1226.68866,0.00121
1225.72429,0.00122
1224.75991,0.00122
1223.79553,0.00123
1222.83115,0.00125
1221.86677,0.00127
1220.90240,0.00129
1219.93802,0.00130
1218.97364,0.00131
1218.00926,0.00132
1217.04488,0.00134
1216.08051,0.00137
1215.11613,0.00141
1214.15175,0.00145
1213.18737,0.00149
1212.22300,0.00153
1211.25862,0.00157
1210.29424,0.00161
1209.32986,0.00165
1208.36548,0.00168
1207.40111,0.00171
1206.43673,0.00173
1205.47235,0.00176
1204.50797,0.00180
1203.54359,0.00185
1202.57922,0.00191
1201.61484,0.00198
1200.65046,0.00205
1199.68608,0.00212
1198.72171,0.00219
1197.75733,0.00226
1196.79295,0.00232
1195.82857,0.00237
1194.86419,0.00242
1193.89982,0.00246
1192.93544,0.00250
1191.97106,0.00255
1191.00668,0.00260
1190.04230,0.00266
1189.07793,0.00273
1188.11355,0.00282
1187.14917,0.00290
1186.18479,0.00300
1185.22041,0.00309
1184.25604,0.00318
1183.29166,0.00325
1182.32728,0.00332
1181.36290,0.00339
1180.39853,0.00345
1179.43415,0.00351
1178.46977,0.00356
1177.50539,0.00361
1176.54101,0.00366
1175.57664,0.00371
1174.61226,0.00378
1173.64788,0.00385
1172.68350,0.00392
1171.71912,0.00401
1170.75475,0.00411
1169.79037,0.00421
1168.82599,0.00431
1167.86161,0.00439
1166.89724,0.00447
1165.93286,0.00454
1164.96848,0.00462
1164.00410,0.00469
1163.03972,0.00476
1162.07535,0.00484
1161.11097,0.00492
1160.14659,0.00501
1159.18221,0.00510
1158.21783,0.00520
1157.25346,0.00528
1156.28908,0.00537
1155.32470,0.00546
1154.36032,0.00556
1153.39594,0.00567
1152.43157,0.00577
1151.46719,0.00587
1150.50281,0.00597
1149.53843,0.00606
1148.57406,0.00616
1147.60968,0.00625
1146.64530,0.00635
1145.68092,0.00645
1144.71654,0.00657
1143.75217,0.00668
1142.78779,0.00677
1141.82341,0.00686
1140.85903,0.00696
1139.89465,0.00706
1138.93028,0.00716
1137.96590,0.00725
1137.00152,0.00733
1136.03714,0.00741
1135.07276,0.00749
1134.10839,0.00758
1133.14401,0.00768
1132.17963,0.00776
1131.21525,0.00784
1130.25088,0.00793
1129.28650,0.00803
1128.32212,0.00814
1127.35774,0.00826
1126.39336,0.00837
1125.42899,0.00847
1124.46461,0.00855
1123.50023,0.00863
1122.53585,0.00870
1121.57147,0.00873
1120.60710,0.00874
1119.64272,0.00875
1118.67834,0.00876
1117.71396,0.00875
1116.74959,0.00874
1115.78521,0.00870
1114.82083,0.00864
1113.85645,0.00856
1112.89207,0.00849
1111.92770,0.00841
1110.96332,0.00831
1109.99894,0.00819
1109.03456,0.00807
1108.07018,0.00794
1107.10581,0.00778
1106.14143,0.00759
1105.17705,0.00738
1104.21267,0.00717
1103.24829,0.00695
1102.28392,0.00675
1101.31954,0.00656
1100.35516,0.00636
1099.39078,0.00616
1098.42641,0.00595
1097.46203,0.00572
1096.49765,0.00547
1095.53327,0.00519
1094.56889,0.00491
1093.60452,0.00464
1092.64014,0.00440
1091.67576,0.00417
1090.71138,0.00395
1089.74700,0.00374
1088.78263,0.00354
1087.81825,0.00335
1086.85387,0.00316
1085.88949,0.00297
1084.92512,0.00280
1083.96074,0.00262
1082.99636,0.00246
1082.03198,0.00232
1081.06760,0.00220
1080.10323,0.00209
1079.13885,0.00200
1078.17447,0.00194
1077.21009,0.00188
1076.24571,0.00183
1075.28134,0.00178
1074.31696,0.00173
1073.35258,0.00167
1072.38820,0.00161
1071.42382,0.00155
1070.45945,0.00151
1069.49507,0.00148
1068.53069,0.00145
1067.56631,0.00144
1066.60194,0.00143
1065.63756,0.00140
1064.67318,0.00136
1063.70880,0.00132
1062.74442,0.00127
1061.78005,0.00122
1060.81567,0.00118
1059.85129,0.00116
1058.88691,0.00116
1057.92253,0.00116
1056.95816,0.00115
1055.99378,0.00113
1055.02940,0.00110
1054.06502,0.00106
1053.10065,0.00103
1052.13627,0.00103
1051.17189,0.00103
1050.20751,0.00103
1049.24313,0.00104
1048.27876,0.00106
1047.31438,0.00109
1046.35000,0.00109
1045.38562,0.00108
1044.42124,0.00106
1043.45687,0.00104
1042.49249,0.00101
1041.52811,0.00100
1040.56373,0.00101
1039.59935,0.00102
1038.63498,0.00102
1037.67060,0.00101
1036.70622,0.00101
1035.74184,0.00099
1034.77747,0.00097
1033.81309,0.00094
1032.84871,0.00091
1031.88433,0.00087
1030.91995,0.00084
1029.95558,0.00083
1028.99120,0.00083
1028.02682,0.00086
1027.06244,0.00089
1026.09806,0.00092
1025.13369,0.00094
1024.16931,0.00098
1023.20493,0.00100
1022.24055,0.00102
1021.27618,0.00103
1020.31180,0.00103
1019.34742,0.00102
1018.38304,0.00100
1017.41866,0.00098
1016.45429,0.00097
1015.48991,0.00096
1014.52553,0.00097
1013.56115,0.00099
1012.59677,0.00101
1011.63240,0.00102
1010.66802,0.00101
1009.70364,0.00100
1008.73926,0.00099
1007.77488,0.00096
1006.81051,0.00095
1005.84613,0.00094
1004.88175,0.00095
1003.91737,0.00097
1002.95300,0.00102
1001.98862,0.00106
1001.02424,0.00109
1000.05986,0.00109
999.09548,0.00109
998.13111,0.00107
997.16673,0.00106
996.20235,0.00105
995.23797,0.00105
994.27359,0.00104
993.30922,0.00104
992.34484,0.00105
991.38046,0.00106
990.41608,0.00104
989.45171,0.00100
988.48733,0.00096
987.52295,0.00091
986.55857,0.00089
985.59419,0.00088
984.62982,0.00087
983.66544,0.00088
982.70106,0.00089
981.73668,0.00091
980.77230,0.00094
979.80793,0.00094
978.84355,0.00092
977.87917,0.00087
976.91479,0.00082
975.95041,0.00078
974.98604,0.00075
974.02166,0.00072
973.05728,0.00069
972.09290,0.00067
971.12853,0.00068
970.16415,0.00070
969.19977,0.00074
968.23539,0.00079
967.27101,0.00084
966.30664,0.00085
965.34226,0.00086
964.37788,0.00089
963.41350,0.00091
962.44912,0.00090
961.48475,0.00088
960.52037,0.00086
959.55599,0.00084
958.59161,0.00083
957.62724,0.00083
956.66286,0.00084
955.69848,0.00083
954.73410,0.00082
953.76972,0.00082
952.80535,0.00082
951.84097,0.00082
950.87659,0.00081
949.91221,0.00080
948.94783,0.00081
947.98346,0.00083
947.01908,0.00084
946.05470,0.00084
945.09032,0.00084
944.12594,0.00083
943.16157,0.00082
942.19719,0.00080
941.23281,0.00076
940.26843,0.00072
939.30406,0.00069
938.33968,0.00068
937.37530,0.00068
936.41092,0.00066
935.44654,0.00064
934.48217,0.00063
933.51779,0.00062
932.55341,0.00063
931.58903,0.00065
930.62465,0.00066
929.66028,0.00067
928.69590,0.00069
927.73152,0.00074
926.76714,0.00079
925.80276,0.00082
924.83839,0.00082
923.87401,0.00082
922.90963,0.00083
921.94525,0.00083
920.98088,0.00082
920.01650,0.00080
919.05212,0.00079
918.08774,0.00078
917.12336,0.00078
916.15899,0.00079
915.19461,0.00078
914.23023,0.00076
913.26585,0.00074
912.30147,0.00072
911.33710,0.00069
910.37272,0.00066
909.40834,0.00064
908.44396,0.00066
907.47959,0.00070
906.51521,0.00076
905.55083,0.00083
904.58645,0.00089
903.62207,0.00093
902.65770,0.00096
901.69332,0.00097
900.72894,0.00095
899.76456,0.00092
898.80018,0.00090
897.83581,0.00089
896.87143,0.00086
895.90705,0.00084
894.94267,0.00081
893.97829,0.00078
893.01392,0.00077
892.04954,0.00079
891.08516,0.00081
890.12078,0.00083
889.15641,0.00082
888.19203,0.00081
887.22765,0.00081
886.26327,0.00080
885.29889,0.00079
884.33452,0.00079
883.37014,0.00078
882.40576,0.00078
881.44138,0.00078
880.47700,0.00080
879.51263,0.00081
878.54825,0.00079
877.58387,0.00075
876.61949,0.00072
875.65512,0.00072
874.69074,0.00076
873.72636,0.00083
872.76198,0.00088
871.79760,0.00091
870.83323,0.00093
869.86885,0.00096
868.90447,0.00097
867.94009,0.00097
866.97571,0.00096
866.01134,0.00097
865.04696,0.00098
864.08258,0.00099
863.11820,0.00098
862.15382,0.00094
861.18945,0.00088
860.22507,0.00084
859.26069,0.00083
858.29631,0.00083
857.33194,0.00082
856.36756,0.00080
855.40318,0.00080
854.43880,0.00081
853.47442,0.00082
852.51005,0.00082
851.54567,0.00079
850.58129,0.00077
849.61691,0.00076
848.65253,0.00079
847.68816,0.00082
846.72378,0.00083
845.75940,0.00083
844.79502,0.00085
843.83065,0.00088
842.86627,0.00090
841.90189,0.00091
840.93751,0.00090
839.97313,0.00089
839.00876,0.00088
838.04438,0.00088
837.08000,0.00091
836.11562,0.00095
835.15124,0.00100
834.18687,0.00106
833.22249,0.00112
832.25811,0.00113
831.29373,0.00111
830.32935,0.00106
829.36498,0.00100
828.40060,0.00092
827.43622,0.00086
826.47184,0.00081
825.50747,0.00078
824.54309,0.00078
823.57871,0.00080
822.61433,0.00081
821.64995,0.00081
820.68558,0.00081
819.72120,0.00081
818.75682,0.00082
817.79244,0.00082
816.82806,0.00083
815.86369,0.00083
814.89931,0.00083
813.93493,0.00080
812.97055,0.00077
812.00618,0.00073
811.04180,0.00071
810.07742,0.00071
809.11304,0.00073
808.14866,0.00077
807.18429,0.00082
806.21991,0.00085
805.25553,0.00086
804.29115,0.00088
803.32677,0.00088
802.36240,0.00086
801.39802,0.00083
800.43364,0.00083
799.46926,0.00085
798.50488,0.00087
797.54051,0.00088
796.57613,0.00086
795.61175,0.00083
794.64737,0.00080
793.68300,0.00077
792.71862,0.00075
791.75424,0.00072
790.78986,0.00072
789.82548,0.00076
788.86111,0.00080
787.89673,0.00083
786.93235,0.00084
785.96797,0.00085
785.00359,0.00086
784.03922,0.00088
783.07484,0.00091
782.11046,0.00090
781.14608,0.00087
780.18171,0.00084
779.21733,0.00085
778.25295,0.00088
777.28857,0.00088
776.32419,0.00087
775.35982,0.00088
774.39544,0.00090
773.43106,0.00091
772.46668,0.00092
771.50230,0.00090
770.53793,0.00087
769.57355,0.00083
768.60917,0.00082
767.64479,0.00083
766.68041,0.00083
765.71604,0.00082
764.75166,0.00083
763.78728,0.00085
762.82290,0.00086
761.85853,0.00084
760.89415,0.00080
759.92977,0.00075
758.96539,0.00072
758.00101,0.00072
757.03664,0.00073
756.07226,0.00072
755.10788,0.00070
754.14350,0.00067
753.17912,0.00068
752.21475,0.00072
751.25037,0.00075
750.28599,0.00077
749.32161,0.00078
748.35724,0.00081
747.39286,0.00084
746.42848,0.00084
745.46410,0.00081
744.49972,0.00075
743.53535,0.00070
742.57097,0.00068
741.60659,0.00070
740.64221,0.00076
739.67783,0.00083
738.71346,0.00086
737.74908,0.00087
736.78470,0.00085
735.82032,0.00081
734.85594,0.00076
733.89157,0.00073
732.92719,0.00073
731.96281,0.00079
730.99843,0.00088
730.03406,0.00096
729.06968,0.00101
728.10530,0.00102
727.14092,0.00098
726.17654,0.00092
725.21217,0.00086
724.24779,0.00084
723.28341,0.00086
722.31903,0.00089
721.35465,0.00095
720.39028,0.00102
719.42590,0.00109
718.46152,0.00114
717.49714,0.00117
716.53276,0.00117
715.56839,0.00116
714.60401,0.00115
713.63963,0.00114
712.67525,0.00111
711.71088,0.00106
710.74650,0.00099
709.78212,0.00091
708.81774,0.00086
707.85336,0.00085
706.88899,0.00085
705.92461,0.00083
704.96023,0.00081
703.99585,0.00081
703.03147,0.00082
702.06710,0.00081
701.10272,0.00081
700.13834,0.00080
699.17396,0.00080
698.20959,0.00080
697.24521,0.00082
696.28083,0.00085
695.31645,0.00086
694.35207,0.00085
693.38770,0.00082
692.42332,0.00080
691.45894,0.00080
690.49456,0.00082
689.53018,0.00084
688.56581,0.00086
687.60143,0.00086
686.63705,0.00085
685.67267,0.00085
684.70829,0.00085
683.74392,0.00084
682.77954,0.00084
681.81516,0.00085
680.85078,0.00088
679.88641,0.00091
678.92203,0.00094
677.95765,0.00095
676.99327,0.00094
676.02889,0.00094
675.06452,0.00094
674.10014,0.00094
673.13576,0.00094
672.17138,0.00093
671.20700,0.00091
670.24263,0.00091
669.27825,0.00091
668.31387,0.00091
667.34949,0.00090
666.38512,0.00087
665.42074,0.00085
664.45636,0.00086
663.49198,0.00087
662.52760,0.00085
661.56323,0.00080
660.59885,0.00073
659.63447,0.00069
658.67009,0.00070
657.70571,0.00072
656.74134,0.00073
655.77696,0.00071
654.81258,0.00070
653.84820,0.00072
652.88382,0.00075
651.91945,0.00079
650.95507,0.00083
649.99069,0.00088
649.02631,0.00095
648.06194,0.00103
647.09756,0.00108
646.13318,0.00111
645.16880,0.00119
644.20442,0.00143
643.24005,0.00185
642.27567,0.00236
641.31129,0.00284
640.34691,0.00324
639.38253,0.00353
638.41816,0.00367
637.45378,0.00364
636.48940,0.00343
635.52502,0.00311
634.56065,0.00275
633.59627,0.00249
632.63189,0.00236
631.66751,0.00233
630.70313,0.00238
629.73876,0.00252
628.77438,0.00268
627.81000,0.00282
626.84562,0.00304
625.88124,0.00336
624.91687,0.00367
623.95249,0.00386
622.98811,0.00382
622.02373,0.00342
621.05935,0.00260
620.09498,0.00151
619.13060,0.00045
618.16622,-0.00022
617.20184,-0.00033
616.23747,0.00005
615.27309,0.00070
614.30871,0.00136
613.34433,0.00187
612.37995,0.00232
611.41558,0.00262
610.45120,0.00246
609.48682,0.00182
608.52244,0.00097
607.55806,0.00026
606.59369,0.00013
605.62931,0.00064
604.66493,0.00136
603.70055,0.00192
602.73618,0.00228
601.77180,0.00257
600.80742,0.00285
599.84304,0.00294
598.87866,0.00267
597.91429,0.00214
596.94991,0.00152
595.98553,0.00101
595.02115,0.00071
594.05677,0.00061
593.09240,0.00058
592.12802,0.00060
591.16364,0.00068
590.19926,0.00079
589.23488,0.00087
588.27051,0.00092
587.30613,0.00096
586.34175,0.00102
585.37737,0.00109
584.41300,0.00114
583.44862,0.00115
582.48424,0.00111
581.51986,0.00105
580.55548,0.00095
579.59111,0.00085
578.62673,0.00076
577.66235,0.00073
576.69797,0.00075
575.73359,0.00076
574.76922,0.00074
573.80484,0.00070
572.84046,0.00066
571.87608,0.00065
570.91171,0.00063
569.94733,0.00057
568.98295,0.00051
568.01857,0.00050
567.05419,0.00057
566.08982,0.00071
565.12544,0.00083
564.16106,0.00088
563.19668,0.00086
562.23230,0.00081
561.26793,0.00075
560.30355,0.00072
559.33917,0.00071
558.37479,0.00071
557.41041,0.00073
556.44604,0.00077
555.48166,0.00081
554.51728,0.00081
553.55290,0.00075
552.58853,0.00065
551.62415,0.00055
550.65977,0.00046
549.69539,0.00039
548.73101,0.00042
547.76664,0.00053
546.80226,0.00068
545.83788,0.00086
544.87350,0.00103
543.90912,0.00118
542.94475,0.00126
541.98037,0.00125
541.01599,0.00120
540.05161,0.00117
539.08724,0.00114
538.12286,0.00111
537.15848,0.00106
536.19410,0.00101
535.22972,0.00095
534.26535,0.00093
533.30097,0.00096
532.33659,0.00102
531.37221,0.00106
530.40783,0.00106
529.44346,0.00105
528.47908,0.00105
527.51470,0.00102
526.55032,0.00092
525.58594,0.00076
524.62157,0.00058
523.65719,0.00045
522.69281,0.00041
521.72843,0.00047
520.76406,0.00062
519.79968,0.00080
518.83530,0.00090
517.87092,0.00092
516.90654,0.00095
515.94217,0.00098
514.97779,0.00098
514.01341,0.00096
513.04903,0.00094
512.08465,0.00092
511.12028,0.00088
510.15590,0.00084
509.19152,0.00080
508.22714,0.00071
507.26276,0.00056
506.29839,0.00044
505.33401,0.00042
504.36963,0.00047
503.40525,0.00052
502.44088,0.00056
501.47650,0.00060
500.51212,0.00065
499.54774,0.00067
498.58336,0.00067
497.61899,0.00064
496.65461,0.00059
495.69023,0.00057
494.72585,0.00060
493.76147,0.00067
492.79710,0.00074
491.83272,0.00075
490.86834,0.00067
489.90396,0.00056
488.93959,0.00051
487.97521,0.00047
487.01083,0.00038
486.04645,0.00024
485.08207,0.00015
484.11770,0.00015
483.15332,0.00023
482.18894,0.00033
481.22456,0.00043
480.26018,0.00050
479.29581,0.00056
478.33143,0.00065
477.36705,0.00079
476.40267,0.00091
475.43829,0.00093
474.47392,0.00091
473.50954,0.00090
472.54516,0.00091
471.58078,0.00088
470.61641,0.00078
469.65203,0.00065
468.68765,0.00056
467.72327,0.00056
466.75889,0.00062
465.79452,0.00069
464.83014,0.00074
463.86576,0.00076
462.90138,0.00076
461.93700,0.00077
460.97263,0.00079
460.00825,0.00078
459.04387,0.00074
458.07949,0.00072
457.11512,0.00077
456.15074,0.00087
455.18636,0.00095
454.22198,0.00099
453.25760,0.00098
452.29323,0.00095
451.32885,0.00095
450.36447,0.00098
449.40009,0.00101
448.43571,0.00102
447.47134,0.00101
446.50696,0.00101
445.54258,0.00101
444.57820,0.00100
443.61382,0.00096
442.64945,0.00090
441.68507,0.00084
440.72069,0.00083
439.75631,0.00086
438.79194,0.00089
437.82756,0.00090
436.86318,0.00089
435.89880,0.00088
434.93442,0.00087
433.97005,0.00087
433.00567,0.00086
432.04129,0.00083
431.07691,0.00081
430.11253,0.00080
429.14816,0.00079
428.18378,0.00075
427.21940,0.00071
426.25502,0.00069
425.29065,0.00068
424.32627,0.00067
423.36189,0.00067
422.39751,0.00068
421.43313,0.00069
420.46876,0.00072
419.50438,0.00075
418.54000,0.00077
417.57562,0.00077
416.61124,0.00077
415.64687,0.00078
414.68249,0.00079
413.71811,0.00078
412.75373,0.00074
411.78935,0.00069
410.82498,0.00065
409.86060,0.00061
408.89622,0.00058
407.93184,0.00054
406.96747,0.00050
406.00309,0.00052
405.03871,0.00056
404.07433,0.00060
403.10995,0.00062
402.14558,0.00065
401.18120,0.00070
400.21682,0.00074
399.25244,0.00078