3998.31069,0.0371258
3997.34631,0.0371258
3996.38194,0.0371258
3995.41756,0.0371258
3994.45318,0.0371258
3993.48880,0.0371258
3992.52442,0.0371258
3991.56005,0.0370850
3990.59567,0.0370295
3989.63129,0.0370024
3988.66691,0.0370308
3987.70253,0.0370407
3986.73816,0.0370212
3985.77378,0.0370582
3984.80940,0.0371102
3983.84502,0.0371535
3982.88065,0.0371787
3981.91627,0.0372009
3980.95189,0.0372025
3979.98751,0.0371514
3979.02313,0.0371518
3978.05876,0.0371911
3977.09438,0.0372305
3976.13000,0.0372639
3975.16562,0.0372650
3974.20124,0.0372880
3973.23687,0.0373262
3972.27249,0.0373665
3971.30811,0.0374026
3970.34373,0.0373789
3969.37935,0.0372633
3968.41498,0.0371051
3967.45060,0.0369952
3966.48622,0.0369159
3965.52184,0.0368253
3964.55747,0.0367652
3963.59309,0.0367767
3962.62871,0.0368194
3961.66433,0.0368747
3960.69995,0.0369608
3959.73558,0.0370238
3958.77120,0.0370411
3957.80682,0.0370239
3956.84244,0.0369941
3955.87806,0.0370078
3954.91369,0.0370349
3953.94931,0.0370057
3952.98493,0.0369935
3952.02055,0.0370061
3951.05618,0.0369245
3950.09180,0.0368314
3949.12742,0.0367953
3948.16304,0.0368126
3947.19866,0.0369374
3946.23429,0.0370731
3945.26991,0.0371277
3944.30553,0.0371525
3943.34115,0.0372070
3942.37677,0.0372298
3941.41240,0.0372050
3940.44802,0.0371716
3939.48364,0.0370813
3938.51926,0.0370164
3937.55488,0.0370352
3936.59051,0.0371223
3935.62613,0.0372468
3934.66175,0.0373160
3933.69737,0.0373497
3932.73300,0.0373794
3931.76862,0.0373985
3930.80424,0.0373512
3929.83986,0.0372821
3928.87548,0.0372919
3927.91111,0.0372828
3926.94673,0.0372417
3925.98235,0.0372152
3925.01797,0.0371840
3924.05359,0.0371460
3923.08922,0.0371117
3922.12484,0.0371212
3921.16046,0.0371399
3920.19608,0.0371315
3919.23171,0.0371584
3918.26733,0.0372857
3917.30295,0.0374501
3916.33857,0.0375589
3915.37419,0.0376340
3914.40982,0.0376583
3913.44544,0.0375621
3912.48106,0.0373919
3911.51668,0.0372237
3910.55230,0.0370976
3909.58793,0.0370535
3908.62355,0.0370454
3907.65917,0.0371800
3906.69479,0.0375100
3905.73041,0.0377803
3904.76604,0.0379708
3903.80166,0.0381323
3902.83728,0.0381445
3901.87290,0.0379799
3900.90853,0.0377381
3899.94415,0.0374911
3898.97977,0.0372291
3898.01539,0.0369891
3897.05101,0.0368277
3896.08664,0.0369385
3895.12226,0.0372398
3894.15788,0.0374293
3893.19350,0.0375345
3892.22912,0.0375436
3891.26475,0.0375608
3890.30037,0.0376674
3889.33599,0.0377338
3888.37161,0.0377126
3887.40724,0.0375131
3886.44286,0.0372735
3885.47848,0.0372493
3884.51410,0.0374368
3883.54972,0.0375773
3882.58535,0.0375235
3881.62097,0.0373197
3880.65659,0.0370396
3879.69221,0.0369740
3878.72783,0.0370919
3877.76346,0.0371221
3876.79908,0.0369837
3875.83470,0.0367958
3874.87032,0.0369295
3873.90594,0.0373479
3872.94157,0.0377359
3871.97719,0.0379337
3871.01281,0.0379680
3870.04843,0.0380336
3869.08406,0.0381131
3868.11968,0.0381256
3867.15530,0.0381013
3866.19092,0.0379976
3865.22654,0.0377690
3864.26217,0.0375433
3863.29779,0.0374422
3862.33341,0.0373910
3861.36903,0.0371603
3860.40465,0.0367727
3859.44028,0.0367917
3858.47590,0.0373060
3857.51152,0.0379907
3856.54714,0.0387105
3855.58276,0.0393478
3854.61839,0.0397865
3853.65401,0.0399158
3852.68963,0.0397203
3851.72525,0.0392959
3850.76088,0.0387239
3849.79650,0.0379187
3848.83212,0.0371282
3847.86774,0.0367882
3846.90336,0.0366535
3845.93899,0.0366448
3844.97461,0.0366920
3844.01023,0.0366902
3843.04585,0.0369870
3842.08147,0.0374138
3841.11710,0.0377028
3840.15272,0.0380016
3839.18834,0.0383212
3838.22396,0.0385046
3837.25959,0.0385267
3836.29521,0.0384074
3835.33083,0.0381195
3834.36645,0.0377487
3833.40207,0.0372691
3832.43770,0.0368946
3831.47332,0.0368530
3830.50894,0.0367476
3829.54456,0.0364946
3828.58018,0.0363159
3827.61581,0.0362235
3826.65143,0.0363109
3825.68705,0.0366162
3824.72267,0.0369817
3823.75829,0.0372333
3822.79392,0.0372585
3821.82954,0.0372208
3820.86516,0.0374354
3819.90078,0.0377374
3818.93641,0.0378324
3817.97203,0.0377130
3817.00765,0.0374435
3816.04327,0.0372376
3815.07889,0.0372193
3814.11452,0.0371292
3813.15014,0.0368719
3812.18576,0.0366471
3811.22138,0.0364974
3810.25700,0.0365524
3809.29263,0.0368157
3808.32825,0.0369248
3807.36387,0.0369985
3806.39949,0.0373136
3805.43512,0.0376774
3804.47074,0.0378703
3803.50636,0.0378100
3802.54198,0.0375817
3801.57760,0.0374313
3800.61323,0.0374519
3799.64885,0.0374102
3798.68447,0.0372029
3797.72009,0.0368865
3796.75571,0.0364743
3795.79134,0.0362570
3794.82696,0.0363381
3793.86258,0.0363229
3792.89820,0.0360865
3791.93382,0.0358046
3790.96945,0.0355967
3790.00507,0.0355194
3789.04069,0.0355200
3788.07631,0.0355480
3787.11194,0.0356423
3786.14756,0.0357329
3785.18318,0.0358088
3784.21880,0.0359980
3783.25442,0.0362366
3782.29005,0.0363838
3781.32567,0.0364609
3780.36129,0.0364815
3779.39691,0.0364601
3778.43253,0.0364882
3777.46816,0.0364521
3776.50378,0.0362884
3775.53940,0.0361797
3774.57502,0.0361557
3773.61065,0.0362135
3772.64627,0.0363151
3771.68189,0.0363751
3770.71751,0.0364804
3769.75313,0.0366215
3768.78876,0.0367014
3767.82438,0.0367534
3766.86000,0.0367613
3765.89562,0.0366227
3764.93124,0.0364637
3763.96687,0.0364339
3763.00249,0.0364568
3762.03811,0.0364571
3761.07373,0.0363797
3760.10935,0.0362945
3759.14498,0.0362025
3758.18060,0.0361013
3757.21622,0.0362304
3756.25184,0.0364337
3755.28747,0.0366119
3754.32309,0.0370188
3753.35871,0.0375528
3752.39433,0.0379102
3751.42995,0.0378941
3750.46558,0.0377529
3749.50120,0.0379369
3748.53682,0.0382225
3747.57244,0.0382477
3746.60806,0.0381295
3745.64369,0.0380442
3744.67931,0.0378067
3743.71493,0.0374790
3742.75055,0.0372887
3741.78618,0.0370650
3740.82180,0.0367023
3739.85742,0.0363536
3738.89304,0.0362866
3737.92866,0.0366960
3736.96429,0.0372388
3735.99991,0.0375610
3735.03553,0.0376688
3734.07115,0.0376447
3733.10677,0.0374757
3732.14240,0.0371716
3731.17802,0.0369030
3730.21364,0.0367238
3729.24926,0.0365414
3728.28488,0.0363929
3727.32051,0.0362609
3726.35613,0.0361954
3725.39175,0.0362578
3724.42737,0.0363061
3723.46300,0.0363143
3722.49862,0.0362415
3721.53424,0.0360479
3720.56986,0.0358918
3719.60548,0.0357711
3718.64111,0.0355621
3717.67673,0.0354453
3716.71235,0.0356132
3715.74797,0.0358847
3714.78359,0.0360967
3713.81922,0.0363323
3712.85484,0.0366059
3711.89046,0.0367751
3710.92608,0.0367638
3709.96171,0.0366397
3708.99733,0.0364129
3708.03295,0.0360447
3707.06857,0.0357289
3706.10419,0.0357094
3705.13982,0.0358280
3704.17544,0.0358423
3703.21106,0.0358169
3702.24668,0.0358264
3701.28230,0.0358309
3700.31793,0.0358016
3699.35355,0.0357501
3698.38917,0.0356313
3697.42479,0.0354218
3696.46041,0.0353099
3695.49604,0.0354017
3694.53166,0.0356373
3693.56728,0.0360557
3692.60290,0.0365756
3691.63853,0.0370035
3690.67415,0.0373113
3689.70977,0.0374952
3688.74539,0.0375163
3687.78101,0.0373718
3686.81664,0.0370207
3685.85226,0.0366101
3684.88788,0.0363135
3683.92350,0.0360419
3682.95912,0.0358008
3681.99475,0.0357486
3681.03037,0.0359319
3680.06599,0.0362812
3679.10161,0.0366906
3678.13724,0.0369744
3677.17286,0.0370799
3676.20848,0.0372730
3675.24410,0.0376191
3674.27972,0.0379815
3673.31535,0.0382469
3672.35097,0.0382589
3671.38659,0.0380546
3670.42221,0.0378360
3669.45783,0.0377600
3668.49346,0.0377369
3667.52908,0.0375572
3666.56470,0.0372274
3665.60032,0.0369735
3664.63594,0.0370376
3663.67157,0.0372351
3662.70719,0.0373330
3661.74281,0.0375531
3660.77843,0.0379311
3659.81406,0.0382770
3658.84968,0.0385218
3657.88530,0.0386953
3656.92092,0.0388883
3655.95654,0.0390484
3654.99217,0.0392094
3654.02779,0.0394966
3653.06341,0.0398324
3652.09903,0.0401538
3651.13465,0.0405269
3650.17028,0.0410039
3649.20590,0.0413799
3648.24152,0.0415035
3647.27714,0.0414961
3646.31276,0.0414101
3645.34839,0.0412819
3644.38401,0.0411213
3643.41963,0.0409982
3642.45525,0.0410578
3641.49088,0.0412190
3640.52650,0.0414163
3639.56212,0.0416523
3638.59774,0.0418731
3637.63336,0.0420643
3636.66899,0.0421894
3635.70461,0.0422358
3634.74023,0.0423467
3633.77585,0.0426930
3632.81147,0.0432197
3631.84710,0.0437697
3630.88272,0.0442694
3629.91834,0.0446176
3628.95396,0.0448068
3627.98959,0.0449247
3627.02521,0.0449126
3626.06083,0.0447176
3625.09645,0.0444472
3624.13207,0.0442858
3623.16770,0.0443843
3622.20332,0.0447120
3621.23894,0.0450528
3620.27456,0.0452534
3619.31018,0.0453280
3618.34581,0.0453477
3617.38143,0.0454025
3616.41705,0.0453864
3615.45267,0.0451743
3614.48829,0.0449847
3613.52392,0.0449886
3612.55954,0.0451244
3611.59516,0.0452699
3610.63078,0.0453583
3609.66641,0.0453572
3608.70203,0.0452902
3607.73765,0.0452736
3606.77327,0.0452977
3605.80889,0.0453571
3604.84452,0.0453600
3603.88014,0.0452615
3602.91576,0.0452294
3601.95138,0.0451996
3600.98700,0.0451777
3600.02263,0.0451756
3599.05825,0.0451014
3598.09387,0.0450744
3597.12949,0.0451385
3596.16512,0.0452151
3595.20074,0.0452562
3594.23636,0.0453874
3593.27198,0.0456191
3592.30760,0.0458280
3591.34323,0.0460239
3590.37885,0.0461376
3589.41447,0.0462188
3588.45009,0.0462510
3587.48571,0.0461497
3586.52134,0.0460325
3585.55696,0.0458850
3584.59258,0.0456955
3583.62820,0.0455598
3582.66382,0.0455497
3581.69945,0.0456411
3580.73507,0.0457565
3579.77069,0.0458888
3578.80631,0.0460145
3577.84194,0.0460989
3576.87756,0.0461146
3575.91318,0.0460675
3574.94880,0.0459886
3573.98442,0.0459390
3573.02005,0.0459943
3572.05567,0.0461375
3571.09129,0.0463030
3570.12691,0.0464451
3569.16253,0.0465894
3568.19816,0.0467749
3567.23378,0.0469667
3566.26940,0.0470645
3565.30502,0.0470612
3564.34065,0.0470071
3563.37627,0.0468877
3562.41189,0.0467870
3561.44751,0.0467460
3560.48313,0.0467104
3559.51876,0.0466516
3558.55438,0.0465951
3557.59000,0.0466284
3556.62562,0.0467365
3555.66124,0.0468699
3554.69687,0.0469910
3553.73249,0.0471186
3552.76811,0.0472964
3551.80373,0.0474853
3550.83935,0.0476902
3549.87498,0.0478927
3548.91060,0.0480512
3547.94622,0.0481566
3546.98184,0.0482592
3546.01747,0.0483723
3545.05309,0.0484115
3544.08871,0.0484177
3543.12433,0.0484691
3542.15995,0.0485890
3541.19558,0.0487504
3540.23120,0.0489110
3539.26682,0.0490487
3538.30244,0.0491325
3537.33806,0.0491989
3536.37369,0.0492563
3535.40931,0.0493139
3534.44493,0.0493637
3533.48055,0.0493970
3532.51618,0.0494812
3531.55180,0.0496100
3530.58742,0.0497827
3529.62304,0.0499827
3528.65866,0.0501768
3527.69429,0.0503437
3526.72991,0.0504429
3525.76553,0.0505329
3524.80115,0.0506536
3523.83677,0.0507946
3522.87240,0.0509319
3521.90802,0.0510480
3520.94364,0.0511688
3519.97926,0.0513003
3519.01488,0.0514618
3518.05051,0.0516356
3517.08613,0.0517736
3516.12175,0.0518638
3515.15737,0.0519023
3514.19300,0.0519503
3513.22862,0.0520764
3512.26424,0.0521958
3511.29986,0.0522549
3510.33548,0.0523547
3509.37111,0.0525098
3508.40673,0.0526918
3507.44235,0.0528890
3506.47797,0.0530636
3505.51359,0.0532328
3504.54922,0.0533856
3503.58484,0.0534909
3502.62046,0.0535722
3501.65608,0.0536362
3500.69171,0.0536290
3499.72733,0.0535850
3498.76295,0.0535966
3497.79857,0.0536148
3496.83419,0.0536264
3495.86982,0.0536829
3494.90544,0.0537599
3493.94106,0.0538417
3492.97668,0.0539119
3492.01230,0.0539741
3491.04793,0.0540886
3490.08355,0.0542433
3489.11917,0.0543677
3488.15479,0.0544843
3487.19041,0.0546194
3486.22604,0.0547145
3485.26166,0.0547586
3484.29728,0.0547977
3483.33290,0.0548285
3482.36853,0.0548179
3481.40415,0.0547996
3480.43977,0.0548698
3479.47539,0.0550666
3478.51101,0.0552738
3477.54664,0.0554033
3476.58226,0.0555057
3475.61788,0.0555897
3474.65350,0.0556690
3473.68912,0.0557589
3472.72475,0.0558093
3471.76037,0.0558467
3470.79599,0.0559132
3469.83161,0.0559861
3468.86724,0.0560895
3467.90286,0.0562490
3466.93848,0.0564089
3465.97410,0.0565254
3465.00972,0.0565831
3464.04535,0.0566224
3463.08097,0.0567148
3462.11659,0.0568297
3461.15221,0.0569189
3460.18783,0.0569896
3459.22346,0.0570623
3458.25908,0.0571249
3457.29470,0.0571744
3456.33032,0.0572422
3455.36594,0.0573086
3454.40157,0.0573301
3453.43719,0.0572721
3452.47281,0.0572120
3451.50843,0.0572548
3450.54406,0.0573203
3449.57968,0.0573275
3448.61530,0.0573175
3447.65092,0.0573658
3446.68654,0.0574731
3445.72217,0.0575573
3444.75779,0.0575862
3443.79341,0.0576070
3442.82903,0.0576650
3441.86465,0.0577188
3440.90028,0.0577527
3439.93590,0.0577816
3438.97152,0.0577473
3438.00714,0.0576948
3437.04276,0.0577152
3436.07839,0.0577662
3435.11401,0.0577998
3434.14963,0.0577830
3433.18525,0.0577362
3432.22088,0.0577462
3431.25650,0.0577843
3430.29212,0.0577911
3429.32774,0.0577794
3428.36336,0.0578040
3427.39899,0.0578778
3426.43461,0.0579373
3425.47023,0.0580091
3424.50585,0.0581018
3423.54147,0.0581611
3422.57710,0.0581956
3421.61272,0.0582303
3420.64834,0.0582703
3419.68396,0.0582494
3418.71959,0.0581709
3417.75521,0.0581392
3416.79083,0.0581760
3415.82645,0.0581920
3414.86207,0.0581163
3413.89770,0.0580310
3412.93332,0.0579875
3411.96894,0.0579601
3411.00456,0.0579641
3410.04018,0.0579774
3409.07581,0.0579854
3408.11143,0.0580154
3407.14705,0.0580772
3406.18267,0.0581498
3405.21829,0.0581989
3404.25392,0.0582327
3403.28954,0.0582582
3402.32516,0.0582318
3401.36078,0.0581807
3400.39641,0.0581385
3399.43203,0.0580975
3398.46765,0.0581151
3397.50327,0.0581782
3396.53889,0.0582437
3395.57452,0.0582750
3394.61014,0.0582351
3393.64576,0.0582147
3392.68138,0.0582506
3391.71700,0.0582793
3390.75263,0.0582715
3389.78825,0.0582467
3388.82387,0.0582203
3387.85949,0.0582173
3386.89512,0.0582868
3385.93074,0.0583700
3384.96636,0.0584220
3384.00198,0.0584572
3383.03760,0.0584886
3382.07323,0.0585456
3381.10885,0.0585564
3380.14447,0.0585018
3379.18009,0.0584742
3378.21571,0.0584505
3377.25134,0.0583610
3376.28696,0.0582596
3375.32258,0.0582194
3374.35820,0.0582280
3373.39382,0.0582348
3372.42945,0.0581978
3371.46507,0.0581390
3370.50069,0.0580795
3369.53631,0.0580155
3368.57194,0.0579841
3367.60756,0.0579803
3366.64318,0.0579536
3365.67880,0.0579195
3364.71442,0.0579318
3363.75005,0.0579869
3362.78567,0.0580427
3361.82129,0.0580527
3360.85691,0.0580032
3359.89253,0.0579373
3358.92816,0.0578957
3357.96378,0.0578853
3356.99940,0.0578922
3356.03502,0.0578853
3355.07065,0.0578574
3354.10627,0.0578522
3353.14189,0.0578401
3352.17751,0.0578024
3351.21313,0.0577640
3350.24876,0.0576902
3349.28438,0.0576261
3348.32000,0.0575971
3347.35562,0.0575934
3346.39124,0.0576083
3345.42687,0.0576082
3344.46249,0.0576330
3343.49811,0.0576619
3342.53373,0.0576774
3341.56935,0.0576966
3340.60498,0.0577231
3339.64060,0.0577544
3338.67622,0.0577515
3337.71184,0.0577495
3336.74747,0.0577237
3335.78309,0.0576652
3334.81871,0.0576032
3333.85433,0.0574999
3332.88995,0.0574025
3331.92558,0.0573307
3330.96120,0.0572871
3329.99682,0.0572847
3329.03244,0.0572982
3328.06806,0.0573164
3327.10369,0.0573234
3326.13931,0.0573223
3325.17493,0.0573190
3324.21055,0.0573229
3323.24618,0.0573199
3322.28180,0.0573097
3321.31742,0.0572994
3320.35304,0.0572792
3319.38866,0.0572692
3318.42429,0.0572388
3317.45991,0.0571646
3316.49553,0.0570582
3315.53115,0.0569359
3314.56677,0.0568247
3313.60240,0.0567359
3312.63802,0.0566570
3311.67364,0.0565695
3310.70926,0.0565121
3309.74488,0.0564708
3308.78051,0.0564285
3307.81613,0.0564361
3306.85175,0.0564664
3305.88737,0.0564675
3304.92300,0.0564533
3303.95862,0.0564629
3302.99424,0.0564779
3302.02986,0.0564830
3301.06548,0.0564729
3300.10111,0.0564276
3299.13673,0.0563782
3298.17235,0.0563336
3297.20797,0.0562962
3296.24359,0.0562716
3295.27922,0.0562463
3294.31484,0.0562160
3293.35046,0.0562126
3292.38608,0.0562721
3291.42171,0.0563342
3290.45733,0.0563778
3289.49295,0.0564223
3288.52857,0.0564197
3287.56419,0.0563767
3286.59982,0.0563188
3285.63544,0.0562207
3284.67106,0.0561007
3283.70668,0.0559976
3282.74230,0.0559055
3281.77793,0.0558520
3280.81355,0.0558523
3279.84917,0.0558396
3278.88479,0.0557943
3277.92041,0.0557502
3276.95604,0.0557182
3275.99166,0.0557246
3275.02728,0.0557471
3274.06290,0.0557283
3273.09853,0.0556993
3272.13415,0.0556706
3271.16977,0.0556580
3270.20539,0.0557042
3269.24101,0.0557387
3268.27664,0.0557177
3267.31226,0.0556666
3266.34788,0.0555969
3265.38350,0.0555403
3264.41912,0.0555042
3263.45475,0.0554220
3262.49037,0.0552831
3261.52599,0.0551440
3260.56161,0.0550102
3259.59724,0.0549110
3258.63286,0.0548403
3257.66848,0.0548041
3256.70410,0.0548602
3255.73972,0.0549436
3254.77535,0.0550008
3253.81097,0.0550554
3252.84659,0.0551043
3251.88221,0.0551137
3250.91783,0.0551015
3249.95346,0.0550721
3248.98908,0.0549878
3248.02470,0.0548948
3247.06032,0.0548217
3246.09594,0.0547950
3245.13157,0.0547909
3244.16719,0.0547547
3243.20281,0.0547152
3242.23843,0.0546545
3241.27406,0.0545909
3240.30968,0.0545406
3239.34530,0.0544950
3238.38092,0.0544769
3237.41654,0.0544672
3236.45217,0.0544487
3235.48779,0.0544169
3234.52341,0.0543651
3233.55903,0.0542862
3232.59465,0.0542326
3231.63028,0.0542112
3230.66590,0.0542051
3229.70152,0.0542504
3228.73714,0.0543058
3227.77276,0.0543387
3226.80839,0.0543162
3225.84401,0.0542477
3224.87963,0.0541857
3223.91525,0.0541387
3222.95088,0.0541060
3221.98650,0.0540423
3221.02212,0.0539662
3220.05774,0.0539119
3219.09336,0.0538969
3218.12899,0.0539088
3217.16461,0.0539032
3216.20023,0.0538647
3215.23585,0.0537458
3214.27147,0.0536243
3213.30710,0.0535465
3212.34272,0.0534564
3211.37834,0.0533701
3210.41396,0.0532889
3209.44959,0.0532137
3208.48521,0.0531442
3207.52083,0.0531197
3206.55645,0.0531421
3205.59207,0.0531602
3204.62770,0.0531506
3203.66332,0.0530965
3202.69894,0.0530462
3201.73456,0.0530024
3200.77018,0.0529389
3199.80581,0.0528851
3198.84143,0.0528858
3197.87705,0.0528928
3196.91267,0.0528319
3195.94829,0.0527524
3194.98392,0.0526657
3194.01954,0.0526009
3193.05516,0.0525671
3192.09078,0.0525304
3191.12641,0.0525364
3190.16203,0.0525480
3189.19765,0.0525481
3188.23327,0.0525644
3187.26889,0.0525600
3186.30452,0.0525157
3185.34014,0.0524447
3184.37576,0.0523610
3183.41138,0.0522981
3182.44700,0.0522729
3181.48263,0.0522195
3180.51825,0.0521574
3179.55387,0.0521198
3178.58949,0.0520607
3177.62512,0.0520110
3176.66074,0.0519459
3175.69636,0.0518421
3174.73198,0.0517747
3173.76760,0.0517253
3172.80323,0.0516558
3171.83885,0.0515928
3170.87447,0.0514944
3169.91009,0.0513552
3168.94571,0.0512415
3167.98134,0.0511561
3167.01696,0.0511258
3166.05258,0.0511471
3165.08820,0.0511887
3164.12382,0.0512818
3163.15945,0.0513581
3162.19507,0.0513412
3161.23069,0.0513052
3160.26631,0.0512628
3159.30194,0.0511530
3158.33756,0.0510443
3157.37318,0.0509700
3156.40880,0.0508866
3155.44442,0.0508024
3154.48005,0.0507308
3153.51567,0.0507157
3152.55129,0.0507263
3151.58691,0.0506839
3150.62253,0.0506099
3149.65816,0.0505644
3148.69378,0.0505540
3147.72940,0.0505409
3146.76502,0.0505719
3145.80065,0.0506522
3144.83627,0.0506964
3143.87189,0.0506883
3142.90751,0.0506599
3141.94313,0.0506301
3140.97876,0.0505642
3140.01438,0.0504679
3139.05000,0.0503673
3138.08562,0.0502665
3137.12124,0.0501837
3136.15687,0.0500852
3135.19249,0.0500050
3134.22811,0.0499873
3133.26373,0.0499476
3132.29935,0.0498499
3131.33498,0.0497524
3130.37060,0.0496748
3129.40622,0.0496028
3128.44184,0.0495650
3127.47747,0.0495541
3126.51309,0.0495455
3125.54871,0.0495470
3124.58433,0.0495151
3123.61995,0.0494656
3122.65558,0.0494348
3121.69120,0.0493543
3120.72682,0.0492411
3119.76244,0.0491505
3118.79806,0.0490643
3117.83369,0.0490183
3116.86931,0.0490219
3115.90493,0.0490359
3114.94055,0.0490734
3113.97618,0.0491065
3113.01180,0.0490937
3112.04742,0.0490717
3111.08304,0.0490211
3110.11866,0.0489078
3109.15429,0.0487936
3108.18991,0.0486881
3107.22553,0.0485911
3106.26115,0.0485328
3105.29677,0.0484929
3104.33240,0.0484741
3103.36802,0.0484560
3102.40364,0.0483980
3101.43926,0.0483272
3100.47488,0.0482811
3099.51051,0.0482481
3098.54613,0.0482359
3097.58175,0.0482672
3096.61737,0.0482983
3095.65300,0.0482889
3094.68862,0.0482288
3093.72424,0.0481688
3092.75986,0.0481028
3091.79548,0.0479595
3090.83111,0.0478099
3089.86673,0.0476707
3088.90235,0.0475454
3087.93797,0.0475072
3086.97359,0.0475305
3086.00922,0.0475638
3085.04484,0.0475669
3084.08046,0.0475523
3083.11608,0.0475402
3082.15171,0.0475332
3081.18733,0.0475132
3080.22295,0.0474830
3079.25857,0.0474811
3078.29419,0.0473929
3077.32982,0.0472367
3076.36544,0.0471418
3075.40106,0.0470608
3074.43668,0.0470048
3073.47230,0.0470148
3072.50793,0.0470515
3071.54355,0.0470426
3070.57917,0.0469842
3069.61479,0.0469506
3068.65041,0.0469605
3067.68604,0.0469447
3066.72166,0.0468213
3065.75728,0.0466706
3064.79290,0.0465553
3063.82853,0.0464604
3062.86415,0.0464309
3061.89977,0.0463982
3060.93539,0.0463065
3059.97101,0.0462092
3059.00664,0.0461476
3058.04226,0.0461396
3057.07788,0.0461588
3056.11350,0.0461668
3055.14912,0.0461409
3054.18475,0.0460915
3053.22037,0.0460265
3052.25599,0.0459464
3051.29161,0.0458429
3050.32724,0.0456901
3049.36286,0.0455422
3048.39848,0.0454412
3047.43410,0.0453664
3046.46972,0.0453341
3045.50535,0.0453279
3044.54097,0.0452866
3043.57659,0.0452170
3042.61221,0.0451624
3041.64783,0.0451150
3040.68346,0.0450536
3039.71908,0.0449802
3038.75470,0.0449155
3037.79032,0.0448953
3036.82594,0.0449127
3035.86157,0.0449430
3034.89719,0.0450106
3033.93281,0.0450756
3032.96843,0.0450573
3032.00406,0.0450084
3031.03968,0.0449739
3030.07530,0.0449057
3029.11092,0.0447830
3028.14654,0.0446116
3027.18217,0.0444488
3026.21779,0.0443549
3025.25341,0.0443209
3024.28903,0.0443199
3023.32465,0.0443198
3022.36028,0.0442902
3021.39590,0.0442407
3020.43152,0.0442132
3019.46714,0.0441924
3018.50276,0.0441267
3017.53839,0.0440095
3016.57401,0.0438625
3015.60963,0.0437376
3014.64525,0.0436869
3013.68088,0.0437122
3012.71650,0.0437525
3011.75212,0.0437583
3010.78774,0.0437553
3009.82336,0.0437655
3008.85899,0.0437750
3007.89461,0.0437489
3006.93023,0.0436855
3005.96585,0.0436186
3005.00147,0.0435327
3004.03710,0.0434403
3003.07272,0.0434023
3002.10834,0.0433923
3001.14396,0.0433320
3000.17959,0.0432511
2999.21521,0.0432095
2998.25083,0.0431738
2997.28645,0.0431152
2996.32207,0.0430337
2995.35770,0.0429600
2994.39332,0.0429220
2993.42894,0.0428882
2992.46456,0.0428695
2991.50018,0.0428776
2990.53581,0.0428632
2989.57143,0.0428080
2988.60705,0.0427693
2987.64267,0.0427819
2986.67829,0.0427793
2985.71392,0.0427304
2984.74954,0.0426601
2983.78516,0.0425867
2982.82078,0.0425344
2981.85641,0.0424992
2980.89203,0.0424713
2979.92765,0.0424238
2978.96327,0.0423476
2977.99889,0.0422841
2977.03452,0.0422554
2976.07014,0.0422479
2975.10576,0.0422188
2974.14138,0.0421723
2973.17700,0.0421322
2972.21263,0.0420798
2971.24825,0.0420281
2970.28387,0.0419843
2969.31949,0.0419235
2968.35512,0.0418552
2967.39074,0.0418221
2966.42636,0.0418301
2965.46198,0.0418524
2964.49760,0.0418689
2963.53323,0.0418717
2962.56885,0.0418829
2961.60447,0.0418856
2960.64009,0.0418595
2959.67571,0.0418302
2958.71134,0.0417919
2957.74696,0.0417550
2956.78258,0.0417472
2955.81820,0.0417476
2954.85382,0.0417265
2953.88945,0.0416963
2952.92507,0.0416631
2951.96069,0.0416198
2950.99631,0.0415689
2950.03194,0.0414896
2949.06756,0.0414079
2948.10318,0.0413407
2947.13880,0.0412593
2946.17442,0.0411977
2945.21005,0.0411732
2944.24567,0.0411636
2943.28129,0.0411826
2942.31691,0.0412507
2941.35253,0.0413172
2940.38816,0.0413406
2939.42378,0.0413510
2938.45940,0.0413527
2937.49502,0.0413452
2936.53065,0.0413188
2935.56627,0.0412778
2934.60189,0.0412540
2933.63751,0.0412345
2932.67313,0.0412312
2931.70876,0.0412780
2930.74438,0.0413417
2929.78000,0.0413417
2928.81562,0.0412914
2927.85124,0.0412561
2926.88687,0.0412269
2925.92249,0.0411869
2924.95811,0.0411338
2923.99373,0.0410916
2923.02935,0.0410565
2922.06498,0.0410151
2921.10060,0.0410031
2920.13622,0.0409976
2919.17184,0.0409634
2918.20747,0.0409046
2917.24309,0.0408470
2916.27871,0.0408110
2915.31433,0.0407790
2914.34995,0.0407365
2913.38558,0.0406933
2912.42120,0.0406687
2911.45682,0.0406652
2910.49244,0.0406945
2909.52806,0.0407123
2908.56369,0.0406665
2907.59931,0.0406073
2906.63493,0.0405452
2905.67055,0.0404695
2904.70618,0.0404162
2903.74180,0.0403920
2902.77742,0.0403569
2901.81304,0.0403091
2900.84866,0.0403063
2899.88429,0.0403521
2898.91991,0.0404018
2897.95553,0.0404073
2896.99115,0.0403727
2896.02677,0.0403327
2895.06240,0.0402708
2894.09802,0.0401978
2893.13364,0.0401537
2892.16926,0.0401225
2891.20488,0.0400660
2890.24051,0.0400283
2889.27613,0.0400493
2888.31175,0.0400700
2887.34737,0.0400619
2886.38300,0.0400426
2885.41862,0.0400036
2884.45424,0.0399466
2883.48986,0.0399110
2882.52548,0.0398836
2881.56111,0.0398426
2880.59673,0.0398275
2879.63235,0.0398369
2878.66797,0.0398577
2877.70359,0.0398683
2876.73922,0.0398531
2875.77484,0.0398499
2874.81046,0.0398537
2873.84608,0.0398277
2872.88171,0.0397923
2871.91733,0.0397852
2870.95295,0.0397742
2869.98857,0.0397668
2869.02419,0.0397954
2868.05982,0.0398090
2867.09544,0.0398034
2866.13106,0.0398002
2865.16668,0.0398177
2864.20230,0.0398711
2863.23793,0.0399132
2862.27355,0.0399151
2861.30917,0.0398906
2860.34479,0.0398597
2859.38041,0.0398309
2858.41604,0.0398142
2857.45166,0.0398070
2856.48728,0.0397892
2855.52290,0.0397725
2854.55853,0.0397807
2853.59415,0.0398120
2852.62977,0.0398308
2851.66539,0.0398127
2850.70101,0.0397630
2849.73664,0.0397001
2848.77226,0.0396358
2847.80788,0.0395516
2846.84350,0.0394657
2845.87912,0.0394173
2844.91475,0.0393949
2843.95037,0.0393910
2842.98599,0.0394118
2842.02161,0.0394168
2841.05724,0.0393870
2840.09286,0.0393529
2839.12848,0.0393300
2838.16410,0.0393160
2837.19972,0.0392764
2836.23535,0.0392219
2835.27097,0.0392125
2834.30659,0.0392496
2833.34221,0.0392928
2832.37783,0.0393231
2831.41346,0.0393479
2830.44908,0.0393403
2829.48470,0.0393012
2828.52032,0.0392537
2827.55594,0.0391981
2826.59157,0.0391524
2825.62719,0.0390964
2824.66281,0.0390458
2823.69843,0.0390180
2822.73406,0.0389794
2821.76968,0.0389338
2820.80530,0.0388908
2819.84092,0.0388639
2818.87654,0.0388390
2817.91217,0.0388046
2816.94779,0.0387621
2815.98341,0.0387203
2815.01903,0.0387029
2814.05465,0.0386764
2813.09028,0.0386545
2812.12590,0.0386511
2811.16152,0.0386405
2810.19714,0.0386517
2809.23276,0.0386821
2808.26839,0.0387075
2807.30401,0.0387067
2806.33963,0.0386617
2805.37525,0.0385844
2804.41088,0.0385054
2803.44650,0.0384444
2802.48212,0.0384036
2801.51774,0.0383943
2800.55336,0.0383886
2799.58899,0.0383911
2798.62461,0.0384388
2797.66023,0.0384898
2796.69585,0.0385111
2795.73147,0.0385027
2794.76710,0.0384612
2793.80272,0.0384017
2792.83834,0.0383463
2791.87396,0.0383074
2790.90959,0.0382817
2789.94521,0.0382518
2788.98083,0.0382142
2788.01645,0.0381932
2787.05207,0.0381834
2786.08770,0.0381620
2785.12332,0.0381409
2784.15894,0.0381278
2783.19456,0.0381086
2782.23018,0.0380839
2781.26581,0.0380642
2780.30143,0.0380408
2779.33705,0.0380103
2778.37267,0.0379892
2777.40829,0.0379830
2776.44392,0.0379820
2775.47954,0.0379639
2774.51516,0.0379150
2773.55078,0.0378691
2772.58641,0.0378491
2771.62203,0.0378309
2770.65765,0.0378112
2769.69327,0.0377951
2768.72889,0.0377599
2767.76452,0.0377110
2766.80014,0.0376806
2765.83576,0.0376551
2764.87138,0.0376152
2763.90700,0.0375698
2762.94263,0.0375177
2761.97825,0.0374789
2761.01387,0.0374481
2760.04949,0.0374004
2759.08512,0.0373673
2758.12074,0.0373574
2757.15636,0.0373460
2756.19198,0.0373308
2755.22760,0.0373241
2754.26323,0.0373171
2753.29885,0.0372916
2752.33447,0.0372581
2751.37009,0.0372140
2750.40571,0.0371558
2749.44134,0.0370923
2748.47696,0.0370358
2747.51258,0.0370053
2746.54820,0.0369846
2745.58382,0.0369660
2744.61945,0.0369538
2743.65507,0.0369382
2742.69069,0.0369272
2741.72631,0.0369080
2740.76194,0.0368793
2739.79756,0.0368766
2738.83318,0.0368999
2737.86880,0.0369267
2736.90442,0.0369324
2735.94005,0.0369074
2734.97567,0.0368746
2734.01129,0.0368412
2733.04691,0.0367952
2732.08253,0.0367403
2731.11816,0.0366962
2730.15378,0.0366551
2729.18940,0.0366065
2728.22502,0.0365737
2727.26065,0.0365529
2726.29627,0.0365210
2725.33189,0.0364799
2724.36751,0.0364556
2723.40313,0.0364403
2722.43876,0.0364092
2721.47438,0.0363825
2720.51000,0.0363495
2719.54562,0.0363004
2718.58124,0.0362537
2717.61687,0.0362095
2716.65249,0.0361807
2715.68811,0.0361673
2714.72373,0.0361575
2713.75935,0.0361574
2712.79498,0.0361713
2711.83060,0.0361813
2710.86622,0.0361825
2709.90184,0.0361737
2708.93747,0.0361401
2707.97309,0.0361049
2707.00871,0.0360621
2706.04433,0.0360034
2705.07995,0.0359573
2704.11558,0.0359136
2703.15120,0.0358629
2702.18682,0.0358149
2701.22244,0.0357828
2700.25806,0.0357693
2699.29369,0.0357663
2698.32931,0.0357645
2697.36493,0.0357765
2696.40055,0.0358027
2695.43618,0.0357798
2694.47180,0.0357200
2693.50742,0.0356767
2692.54304,0.0356362
2691.57866,0.0355841
2690.61429,0.0355138
2689.64991,0.0354466
2688.68553,0.0354026
2687.72115,0.0353740
2686.75677,0.0353551
2685.79240,0.0353512
2684.82802,0.0353561
2683.86364,0.0353374
2682.89926,0.0353081
2681.93488,0.0352955
2680.97051,0.0352908
2680.00613,0.0352784
2679.04175,0.0352572
2678.07737,0.0352479
2677.11300,0.0352507
2676.14862,0.0352589
2675.18424,0.0352683
2674.21986,0.0352589
2673.25548,0.0352292
2672.29111,0.0351837
2671.32673,0.0351221
2670.36235,0.0350586
2669.39797,0.0349908
2668.43359,0.0349134
2667.46922,0.0348538
2666.50484,0.0348185
2665.54046,0.0347974
2664.57608,0.0347915
2663.61171,0.0347953
2662.64733,0.0347892
2661.68295,0.0347596
2660.71857,0.0347241
2659.75419,0.0346933
2658.78982,0.0346685
2657.82544,0.0346326
2656.86106,0.0345815
2655.89668,0.0345354
2654.93230,0.0344723
2653.96793,0.0344087
2653.00355,0.0343675
2652.03917,0.0343264
2651.07479,0.0342584
2650.11041,0.0341572
2649.14604,0.0340731
2648.18166,0.0340072
2647.21728,0.0339461
2646.25290,0.0339039
2645.28853,0.0338783
2644.32415,0.0338728
2643.35977,0.0338697
2642.39539,0.0338764
2641.43101,0.0338701
2640.46664,0.0338329
2639.50226,0.0337881
2638.53788,0.0337219
2637.57350,0.0336527
2636.60912,0.0335762
2635.64475,0.0334980
2634.68037,0.0334504
2633.71599,0.0334171
2632.75161,0.0333958
2631.78724,0.0333806
2630.82286,0.0333618
2629.85848,0.0333350
2628.89410,0.0333239
2627.92972,0.0333279
2626.96535,0.0333171
2626.00097,0.0333177
2625.03659,0.0333092
2624.07221,0.0332709
2623.10783,0.0332194
2622.14346,0.0331648
2621.17908,0.0331430
2620.21470,0.0331551
2619.25032,0.0331602
2618.28594,0.0331226
2617.32157,0.0330755
2616.35719,0.0330604
2615.39281,0.0330479
2614.42843,0.0330210
2613.46406,0.0329768
2612.49968,0.0328991
2611.53530,0.0327882
2610.57092,0.0326852
2609.60654,0.0326154
2608.64217,0.0325535
2607.67779,0.0324874
2606.71341,0.0324134
2605.74903,0.0323530
2604.78465,0.0323417
2603.82028,0.0323421
2602.85590,0.0323173
2601.89152,0.0323031
2600.92714,0.0322947
2599.96276,0.0322607
2598.99839,0.0322213
2598.03401,0.0321910
2597.06963,0.0321844
2596.10525,0.0322070
2595.14088,0.0322234
2594.17650,0.0322152
2593.21212,0.0321900
2592.24774,0.0321234
2591.28336,0.0320068
2590.31899,0.0319011
2589.35461,0.0318457
2588.39023,0.0318219
2587.42585,0.0317923
2586.46147,0.0317785
2585.49710,0.0318304
2584.53272,0.0319233
2583.56834,0.0320107
2582.60396,0.0320252
2581.63959,0.0319531
2580.67521,0.0318686
2579.71083,0.0317744
2578.74645,0.0316856
2577.78207,0.0316845
2576.81770,0.0317135
2575.85332,0.0316725
2574.88894,0.0316174
2573.92456,0.0315710
2572.96018,0.0315182
2571.99581,0.0314819
2571.03143,0.0314255
2570.06705,0.0313948
2569.10267,0.0314241
2568.13829,0.0314258
2567.17392,0.0314275
2566.20954,0.0314997
2565.24516,0.0315760
2564.28078,0.0315660
2563.31641,0.0314865
2562.35203,0.0314146
2561.38765,0.0313813
2560.42327,0.0313643
2559.45889,0.0313448
2558.49452,0.0313354
2557.53014,0.0313314
2556.56576,0.0312852
2555.60138,0.0312162
2554.63700,0.0311934
2553.67263,0.0311875
2552.70825,0.0311339
2551.74387,0.0310384
2550.77949,0.0309451
2549.81512,0.0308455
2548.85074,0.0307523
2547.88636,0.0307226
2546.92198,0.0307163
2545.95760,0.0307058
2544.99323,0.0306652
2544.02885,0.0306050
2543.06447,0.0306308
2542.10009,0.0306909
2541.13571,0.0306920
2540.17134,0.0306564
2539.20696,0.0306359
2538.24258,0.0306566
2537.27820,0.0306888
2536.31382,0.0307020
2535.34945,0.0306994
2534.38507,0.0307013
2533.42069,0.0306873
2532.45631,0.0306690
2531.49194,0.0306689
2530.52756,0.0306180
2529.56318,0.0305009
2528.59880,0.0304306
2527.63442,0.0304489
2526.67005,0.0304395
2525.70567,0.0303780
2524.74129,0.0303297
2523.77691,0.0303293
2522.81253,0.0303492
2521.84816,0.0303254
2520.88378,0.0303021
2519.91940,0.0302831
2518.95502,0.0302645
2517.99065,0.0302674
2517.02627,0.0303014
2516.06189,0.0303881
2515.09751,0.0304277
2514.13313,0.0304149
2513.16876,0.0303733
2512.20438,0.0302924
2511.24000,0.0302141
2510.27562,0.0301032
2509.31124,0.0300025
2508.34687,0.0299686
2507.38249,0.0299885
2506.41811,0.0300060
2505.45373,0.0300291
2504.48935,0.0301043
2503.52498,0.0301094
2502.56060,0.0300259
2501.59622,0.0299097
2500.63184,0.0297892
2499.66747,0.0297125
2498.70309,0.0296343
2497.73871,0.0295681
2496.77433,0.0295443
2495.80995,0.0295557
2494.84558,0.0296218
2493.88120,0.0297329
2492.91682,0.0298035
2491.95244,0.0297839
2490.98806,0.0297742
2490.02369,0.0297750
2489.05931,0.0297187
2488.09493,0.0296645
2487.13055,0.0296415
2486.16618,0.0296173
2485.20180,0.0296003
2484.23742,0.0296183
2483.27304,0.0296651
2482.30866,0.0297028
2481.34429,0.0296799
2480.37991,0.0296413
2479.41553,0.0296592
2478.45115,0.0296395
2477.48677,0.0295318
2476.52240,0.0294322
2475.55802,0.0293678
2474.59364,0.0293280
2473.62926,0.0292925
2472.66488,0.0292143
2471.70051,0.0291652
2470.73613,0.0291990
2469.77175,0.0292259
2468.80737,0.0292371
2467.84300,0.0292858
2466.87862,0.0293209
2465.91424,0.0293054
2464.94986,0.0292715
2463.98548,0.0292283
2463.02111,0.0291816
2462.05673,0.0291021
2461.09235,0.0290086
2460.12797,0.0289882
2459.16359,0.0289832
2458.19922,0.0289489
2457.23484,0.0289351
2456.27046,0.0289418
2455.30608,0.0289383
2454.34171,0.0288694
2453.37733,0.0287661
2452.41295,0.0287153
2451.44857,0.0287314
2450.48419,0.0287555
2449.51982,0.0287601
2448.55544,0.0287809
2447.59106,0.0287719
2446.62668,0.0287583
2445.66230,0.0287906
2444.69793,0.0287884
2443.73355,0.0287506
2442.76917,0.0286893
2441.80479,0.0286260
2440.84041,0.0286252
2439.87604,0.0286536
2438.91166,0.0286671
2437.94728,0.0286708
2436.98290,0.0286776
2436.01853,0.0286471
2435.05415,0.0285841
2434.08977,0.0285358
2433.12539,0.0284879
2432.16101,0.0284790
2431.19664,0.0284838
2430.23226,0.0284811
2429.26788,0.0285223
2428.30350,0.0285841
2427.33912,0.0286942
2426.37475,0.0288080
2425.41037,0.0288209
2424.44599,0.0287385
2423.48161,0.0286396
2422.51724,0.0286081
2421.55286,0.0285881
2420.58848,0.0285315
2419.62410,0.0284608
2418.65972,0.0284078
2417.69535,0.0283863
2416.73097,0.0283720
2415.76659,0.0283840
2414.80221,0.0283792
2413.83783,0.0283325
2412.87346,0.0282955
2411.90908,0.0283174
2410.94470,0.0283663
2409.98032,0.0283426
2409.01594,0.0283010
2408.05157,0.0282740
2407.08719,0.0282336
2406.12281,0.0282095
2405.15843,0.0282088
2404.19406,0.0282179
2403.22968,0.0282136
2402.26530,0.0282262
2401.30092,0.0282349
2400.33654,0.0282245
2399.37217,0.0282097
2398.40779,0.0281890
2397.44341,0.0281881
2396.47903,0.0281527
2395.51465,0.0281276
2394.55028,0.0281482
2393.58590,0.0281581
2392.62152,0.0281686
2391.65714,0.0281532
2390.69276,0.0281171
2389.72839,0.0280753
2388.76401,0.0280725
2387.79963,0.0281284
2386.83525,0.0281842
2385.87088,0.0282281
2384.90650,0.0282448
2383.94212,0.0282973
2382.97774,0.0284212
2382.01336,0.0286072
2381.04899,0.0288903
2380.08461,0.0292106
2379.12023,0.0295659
2378.15585,0.0300330
2377.19147,0.0306263
2376.22710,0.0312866
2375.26272,0.0319366
2374.29834,0.0325696
2373.33396,0.0332076
2372.36959,0.0338729
2371.40521,0.0345482
2370.44083,0.0351872
2369.47645,0.0357888
2368.51207,0.0363231
2367.54770,0.0367605
2366.58332,0.0371343
2365.61894,0.0374295
2364.65456,0.0376253
2363.69018,0.0377587
2362.72581,0.0378669
2361.76143,0.0379510
2360.79705,0.0379711
2359.83267,0.0379230
2358.86829,0.0378049
2357.90392,0.0375890
2356.93954,0.0372315
2355.97516,0.0367012
2355.01078,0.0360011
2354.04641,0.0350689
2353.08203,0.0339794
2352.11765,0.0329607
2351.15327,0.0321288
2350.18889,0.0315573
2349.22452,0.0313187
2348.26014,0.0314386
2347.29576,0.0318375
2346.33138,0.0324239
2345.36700,0.0331392
2344.40263,0.0338653
2343.43825,0.0344601
2342.47387,0.0347989
2341.50949,0.0349359
2340.54512,0.0349920
2339.58074,0.0349817
2338.61636,0.0349421
2337.65198,0.0348994
2336.68760,0.0348495
2335.72323,0.0347746
2334.75885,0.0346840
2333.79447,0.0345868
2332.83009,0.0344758
2331.86571,0.0343633
2330.90134,0.0342195
2329.93696,0.0340594
2328.97258,0.0338896
2328.00820,0.0336882
2327.04382,0.0334906
2326.07945,0.0332962
2325.11507,0.0330564
2324.15069,0.0327533
2323.18631,0.0324425
2322.22194,0.0321299
2321.25756,0.0318005
2320.29318,0.0314665
2319.32880,0.0311203
2318.36442,0.0307882
2317.40005,0.0304618
2316.43567,0.0301706
2315.47129,0.0299362
2314.50691,0.0296888
2313.54253,0.0294033
2312.57816,0.0291218
2311.61378,0.0288965
2310.64940,0.0286819
2309.68502,0.0284695
2308.72065,0.0282871
2307.75627,0.0280984
2306.79189,0.0278938
2305.82751,0.0276790
2304.86313,0.0275215
2303.89876,0.0274120
2302.93438,0.0272943
2301.97000,0.0272217
2301.00562,0.0271889
2300.04124,0.0271478
2299.07687,0.0271162
2298.11249,0.0271044
2297.14811,0.0270610
2296.18373,0.0269885
2295.21935,0.0268552
2294.25498,0.0266381
2293.29060,0.0264585
2292.32622,0.0263187
2291.36184,0.0261712
2290.39747,0.0260620
2289.43309,0.0260138
2288.46871,0.0260133
2287.50433,0.0260641
2286.53995,0.0260936
2285.57558,0.0260372
2284.61120,0.0259802
2283.64682,0.0258711
2282.68244,0.0257033
2281.71806,0.0255291
2280.75369,0.0253658
2279.78931,0.0253147
2278.82493,0.0253124
2277.86055,0.0253765
2276.89618,0.0255387
2275.93180,0.0257373
2274.96742,0.0258838
2274.00304,0.0259298
2273.03866,0.0259405
2272.07429,0.0258080
2271.10991,0.0256312
2270.14553,0.0254674
2269.18115,0.0253438
2268.21677,0.0253265
2267.25240,0.0251684
2266.28802,0.0250171
2265.32364,0.0250101
2264.35926,0.0251017
2263.39488,0.0251594
2262.43051,0.0250376
2261.46613,0.0249093
2260.50175,0.0247901
2259.53737,0.0248087
2258.57300,0.0248381
2257.60862,0.0248340
2256.64424,0.0249690
2255.67986,0.0249894
2254.71548,0.0250290
2253.75111,0.0251150
2252.78673,0.0250855
2251.82235,0.0249247
2250.85797,0.0246489
2249.89359,0.0243957
2248.92922,0.0241991
2247.96484,0.0242007
2247.00046,0.0242414
2246.03608,0.0243540
2245.07171,0.0245965
2244.10733,0.0246677
2243.14295,0.0248331
2242.17857,0.0250151
2241.21419,0.0249213
2240.24982,0.0247892
2239.28544,0.0246539
2238.32106,0.0244891
2237.35668,0.0244232
2236.39230,0.0245307
2235.42793,0.0246204
2234.46355,0.0246800
2233.49917,0.0247318
2232.53479,0.0247605
2231.57041,0.0249083
2230.60604,0.0249854
2229.64166,0.0248942
2228.67728,0.0248514
2227.71290,0.0248370
2226.74853,0.0248225
2225.78415,0.0248081
2224.81977,0.0247937
2223.85539,0.0247792
2222.89101,0.0247648
2221.92664,0.0247504
2220.96226,0.0247359
2219.99788,0.0247215
2219.03350,0.0247071
2218.06912,0.0246926
2217.10475,0.0246782
2216.14037,0.0246638
2215.17599,0.0246493
2214.21161,0.0246349
2213.24724,0.0246204
2212.28286,0.0246060
2211.31848,0.0245916
2210.35410,0.0245771
2209.38972,0.0245627
2208.42535,0.0245483
2207.46097,0.0245338
2206.49659,0.0245194
2205.53221,0.0245050
2204.56783,0.0244905
2203.60346,0.0244761
2202.63908,0.0244617
2201.67470,0.0244472
2200.71032,0.0244328
2199.74594,0.0244184
2198.78157,0.0244039
2197.81719,0.0243895
2196.85281,0.0243750
2195.88843,0.0243606
2194.92406,0.0243462
2193.95968,0.0243317
2192.99530,0.0243173
2192.03092,0.0243029
2191.06654,0.0242884
2190.10217,0.0242740
2189.13779,0.0242596
2188.17341,0.0242451
2187.20903,0.0242307
2186.24465,0.0242163
2185.28028,0.0242018
2184.31590,0.0241874
2183.35152,0.0241730
2182.38714,0.0241585
2181.42276,0.0241441
2180.45839,0.0241297
2179.49401,0.0241152
2178.52963,0.0241008
2177.56525,0.0240863
2176.60088,0.0240719
2175.63650,0.0240575
2174.67212,0.0240430
2173.70774,0.0240286
2172.74336,0.0240142
2171.77899,0.0239997
2170.81461,0.0239853
2169.85023,0.0239709
2168.88585,0.0239564
2167.92147,0.0239420
2166.95710,0.0239276
2165.99272,0.0239131
2165.02834,0.0238987
2164.06396,0.0238843
2163.09959,0.0238698
2162.13521,0.0238554
2161.17083,0.0238409
2160.20645,0.0238265
2159.24207,0.0238121
2158.27770,0.0237976
2157.31332,0.0237832
2156.34894,0.0237688
2155.38456,0.0237543
2154.42018,0.0237399
2153.45581,0.0237255
2152.49143,0.0237110
2151.52705,0.0236966
2150.56267,0.0236822
2149.59829,0.0236677
2148.63392,0.0236533
2147.66954,0.0236389
2146.70516,0.0236244
2145.74078,0.0236100
2144.77641,0.0235956
2143.81203,0.0235811
2142.84765,0.0235667
2141.88327,0.0235522
2140.91889,0.0235378
2139.95452,0.0235234
2138.99014,0.0235089
2138.02576,0.0234945
2137.06138,0.0234801
2136.09700,0.0234656
2135.13263,0.0234512
2134.16825,0.0234368
2133.20387,0.0234223
2132.23949,0.0234079
2131.27512,0.0233935
2130.31074,0.0233790
2129.34636,0.0233646
2128.38198,0.0233502
2127.41760,0.0233357
2126.45323,0.0233213
2125.48885,0.0233069
2124.52447,0.0232924
2123.56009,0.0232780
2122.59571,0.0232635
2121.63134,0.0232491
2120.66696,0.0232347
2119.70258,0.0232202
2118.73820,0.0232058
2117.77382,0.0231914
2116.80945,0.0231769
2115.84507,0.0231625
2114.88069,0.0231481
2113.91631,0.0231336
2112.95194,0.0231192
2111.98756,0.0231048
2111.02318,0.0230903
2110.05880,0.0230759
2109.09442,0.0230615
2108.13005,0.0230470
2107.16567,0.0230326
2106.20129,0.0230181
2105.23691,0.0230037
2104.27253,0.0229893
2103.30816,0.0229748
2102.34378,0.0229604
2101.37940,0.0229460
2100.41502,0.0229315
2099.45065,0.0229171
2098.48627,0.0229027
2097.52189,0.0228882
2096.55751,0.0228738
2095.59313,0.0228594
2094.62876,0.0228449
2093.66438,0.0228305
2092.70000,0.0228161
2091.73562,0.0228016
2090.77124,0.0227872
2089.80687,0.0227727
2088.84249,0.0227583
2087.87811,0.0227439
2086.91373,0.0227294
2085.94935,0.0227150
2084.98498,0.0227006
2084.02060,0.0226861
2083.05622,0.0226717
2082.09184,0.0226573
2081.12747,0.0226428
2080.16309,0.0226284
2079.19871,0.0226140
2078.23433,0.0225995
2077.26995,0.0225851
2076.30558,0.0225707
2075.34120,0.0225562
2074.37682,0.0225418
2073.41244,0.0225274
2072.44806,0.0225129
2071.48369,0.0224985
2070.51931,0.0224840
2069.55493,0.0224696
2068.59055,0.0224552
2067.62618,0.0224407
2066.66180,0.0224263
2065.69742,0.0224119
2064.73304,0.0223974
2063.76866,0.0223830
2062.80429,0.0223686
2061.83991,0.0223541
2060.87553,0.0223397
2059.91115,0.0223253
2058.94677,0.0223108
2057.98240,0.0222964
2057.01802,0.0222820
2056.05364,0.0222675
2055.08926,0.0222531
2054.12488,0.0222387
2053.16051,0.0222242
2052.19613,0.0222098
2051.23175,0.0221953
2050.26737,0.0221809
2049.30300,0.0221665
2048.33862,0.0221520
2047.37424,0.0221376
2046.40986,0.0221232
2045.44548,0.0221087
2044.48111,0.0220943
2043.51673,0.0220799
2042.55235,0.0220654
2041.58797,0.0220510
2040.62359,0.0220366
2039.65922,0.0220221
2038.69484,0.0220077
2037.73046,0.0219933
2036.76608,0.0219788
2035.80171,0.0219644
2034.83733,0.0219499
2033.87295,0.0219355
2032.90857,0.0219211
2031.94419,0.0219066
2030.97982,0.0218922
2030.01544,0.0218778
2029.05106,0.0218633
2028.08668,0.0218489
2027.12230,0.0218345
2026.15793,0.0218200
2025.19355,0.0218056
2024.22917,0.0217912
2023.26479,0.0217767
2022.30041,0.0217623
2021.33604,0.0217479
2020.37166,0.0217334
2019.40728,0.0217190
2018.44290,0.0217046
2017.47853,0.0216901
2016.51415,0.0216757
2015.54977,0.0216612
2014.58539,0.0216468
2013.62101,0.0216324
2012.65664,0.0216179
2011.69226,0.0216035
2010.72788,0.0215891
2009.76350,0.0215746
2008.79912,0.0215602
2007.83475,0.0215458
2006.87037,0.0215313
2005.90599,0.0215169
2004.94161,0.0215025
2003.97724,0.0214880
2003.01286,0.0214736
2002.04848,0.0214592
2001.08410,0.0214447
2000.11972,0.0214303
1999.15535,0.0214159
1998.19097,0.0214014
1997.22659,0.0213870
1996.26221,0.0213725
1995.29783,0.0213581
1994.33346,0.0213437
1993.36908,0.0213292
1992.40470,0.0213148
1991.44032,0.0213004
1990.47594,0.0212859
1989.51157,0.0212715
1988.54719,0.0212571
1987.58281,0.0212426
1986.61843,0.0212282
1985.65406,0.0212138
1984.68968,0.0211993
1983.72530,0.0211849
1982.76092,0.0211705
1981.79654,0.0211560
1980.83217,0.0211416
1979.86779,0.0211271
1978.90341,0.0211127
1977.93903,0.0210983
1976.97465,0.0210838
1976.01028,0.0210694
1975.04590,0.0210550
1974.08152,0.0210405
1973.11714,0.0210261
1972.15276,0.0210117
1971.18839,0.0209972
1970.22401,0.0209828
1969.25963,0.0209684
1968.29525,0.0209539
1967.33088,0.0209395
1966.36650,0.0209251
1965.40212,0.0209106
1964.43774,0.0208962
1963.47336,0.0208818
1962.50899,0.0208673
1961.54461,0.0208529
1960.58023,0.0208384
1959.61585,0.0208240
1958.65147,0.0208096
1957.68710,0.0207951
1956.72272,0.0207807
1955.75834,0.0207663
1954.79396,0.0207518
1953.82959,0.0207374
1952.86521,0.0207230
1951.90083,0.0207085
1950.93645,0.0206941
1949.97207,0.0206797
1949.00770,0.0206652
1948.04332,0.0206508
1947.07894,0.0206364
1946.11456,0.0206219
1945.15018,0.0206075
1944.18581,0.0205930
1943.22143,0.0205786
1942.25705,0.0205642
1941.29267,0.0205497
1940.32829,0.0205353
1939.36392,0.0205209
1938.39954,0.0205064
1937.43516,0.0204739
1936.47078,0.0204692
1935.50641,0.0205283
1934.54203,0.0204891
1933.57765,0.0204099
1932.61327,0.0204526
1931.64889,0.0204457
1930.68452,0.0203287
1929.72014,0.0201782
1928.75576,0.0200618
1927.79138,0.0200496
1926.82700,0.0201415
1925.86263,0.0202973
1924.89825,0.0204231
1923.93387,0.0204686
1922.96949,0.0204817
1922.00512,0.0206846
1921.04074,0.0209951
1920.07636,0.0210259
1919.11198,0.0208516
1918.14760,0.0207147
1917.18323,0.0206866
1916.21885,0.0206931
1915.25447,0.0206548
1914.29009,0.0205876
1913.32571,0.0204740
1912.36134,0.0203862
1911.39696,0.0204080
1910.43258,0.0204415
1909.46820,0.0203504
1908.50382,0.0201968
1907.53945,0.0201069
1906.57507,0.0201315
1905.61069,0.0202051
1904.64631,0.0201661
1903.68194,0.0200653
1902.71756,0.0200703
1901.75318,0.0202333
1900.78880,0.0203955
1899.82442,0.0204097
1898.86005,0.0203767
1897.89567,0.0203815
1896.93129,0.0204280
1895.96691,0.0204932
1895.00253,0.0205951
1894.03816,0.0206874
1893.07378,0.0206535
1892.10940,0.0205134
1891.14502,0.0203863
1890.18065,0.0203520
1889.21627,0.0203100
1888.25189,0.0202666
1887.28751,0.0202715
1886.32313,0.0202206
1885.35876,0.0201501
1884.39438,0.0201709
1883.43000,0.0202731
1882.46562,0.0202916
1881.50124,0.0201828
1880.53687,0.0200315
1879.57249,0.0198875
1878.60811,0.0197871
1877.64373,0.0197255
1876.67935,0.0197256
1875.71498,0.0196916
1874.75060,0.0196841
1873.78622,0.0198512
1872.82184,0.0200704
1871.85747,0.0202597
1870.89309,0.0203781
1869.92871,0.0204718
1868.96433,0.0205592
1867.99995,0.0205436
1867.03558,0.0204425
1866.07120,0.0203221
1865.10682,0.0202059
1864.14244,0.0200767
1863.17806,0.0200207
1862.21369,0.0200422
1861.24931,0.0200631
1860.28493,0.0201113
1859.32055,0.0201746
1858.35618,0.0202340
1857.39180,0.0202493
1856.42742,0.0202173
1855.46304,0.0201665
1854.49866,0.0201323
1853.53429,0.0201244
1852.56991,0.0201116
1851.60553,0.0201104
1850.64115,0.0201119
1849.67677,0.0202481
1848.71240,0.0205360
1847.74802,0.0208071
1846.78364,0.0210396
1845.81926,0.0212057
1844.85488,0.0213126
1843.89051,0.0213495
1842.92613,0.0213371
1841.96175,0.0213130
1840.99737,0.0212259
1840.03300,0.0211024
1839.06862,0.0209786
1838.10424,0.0209553
1837.13986,0.0209742
1836.17548,0.0209090
1835.21111,0.0208970
1834.24673,0.0209676
1833.28235,0.0210688
1832.31797,0.0211462
1831.35359,0.0211856
1830.38922,0.0213011
1829.42484,0.0214715
1828.46046,0.0216204
1827.49608,0.0217035
1826.53171,0.0217147
1825.56733,0.0216895
1824.60295,0.0216383
1823.63857,0.0216344
1822.67419,0.0216582
1821.70982,0.0216322
1820.74544,0.0215475
1819.78106,0.0214282
1818.81668,0.0213898
1817.85230,0.0214165
1816.88793,0.0214240
1815.92355,0.0214508
1814.95917,0.0215175
1813.99479,0.0216021
1813.03041,0.0216555
1812.06604,0.0217020
1811.10166,0.0217676
1810.13728,0.0218123
1809.17290,0.0218101
1808.20853,0.0217594
1807.24415,0.0217405
1806.27977,0.0217647
1805.31539,0.0218277
1804.35101,0.0219613
1803.38664,0.0220969
1802.42226,0.0221916
1801.45788,0.0222648
1800.49350,0.0223391
1799.52912,0.0223501
1798.56475,0.0223082
1797.60037,0.0223533
1796.63599,0.0225005
1795.67161,0.0227260
1794.70724,0.0229587
1793.74286,0.0231450
1792.77848,0.0232939
1791.81410,0.0233539
1790.84972,0.0233481
1789.88535,0.0233475
1788.92097,0.0233264
1787.95659,0.0232301
1786.99221,0.0231683
1786.02783,0.0232908
1785.06346,0.0235102
1784.09908,0.0237225
1783.13470,0.0239102
1782.17032,0.0240250
1781.20594,0.0241087
1780.24157,0.0241810
1779.27719,0.0241788
1778.31281,0.0242522
1777.34843,0.0245443
1776.38406,0.0249595
1775.41968,0.0253753
1774.45530,0.0257279
1773.49092,0.0260821
1772.52654,0.0264461
1771.56217,0.0267214
1770.59779,0.0268667
1769.63341,0.0269021
1768.66903,0.0267871
1767.70465,0.0265594
1766.74028,0.0265759
1765.77590,0.0268692
1764.81152,0.0271335
1763.84714,0.0272804
1762.88276,0.0273499
1761.91839,0.0275603
1760.95401,0.0278763
1759.98963,0.0280995
1759.02525,0.0282631
1758.06088,0.0282912
1757.09650,0.0282791
1756.13212,0.0285015
1755.16774,0.0289136
1754.20336,0.0292887
1753.23899,0.0295654
1752.27461,0.0297936
1751.31023,0.0299805
1750.34585,0.0301665
1749.38147,0.0302848
1748.41710,0.0303022
1747.45272,0.0302494
1746.48834,0.0300526
1745.52396,0.0299633
1744.55959,0.0301754
1743.59521,0.0304033
1742.63083,0.0305608
1741.66645,0.0306355
1740.70207,0.0305476
1739.73770,0.0305534
1738.77332,0.0308804
1737.80894,0.0313744
1736.84456,0.0317879
1735.88018,0.0320184
1734.91581,0.0321068
1733.95143,0.0321543
1732.98705,0.0321698
1732.02267,0.0319818
1731.05829,0.0315643
1730.09392,0.0309629
1729.12954,0.0303100
1728.16516,0.0299744
1727.20078,0.0299744
1726.23641,0.0299895
1725.27203,0.0298522
1724.30765,0.0296191
1723.34327,0.0295489
1722.37889,0.0297927
1721.41452,0.0301631
1720.45014,0.0304800
1719.48576,0.0307727
1718.52138,0.0309643
1717.55700,0.0309981
1716.59263,0.0309034
1715.62825,0.0306304
1714.66387,0.0301978
1713.69949,0.0295903
1712.73512,0.0289214
1711.77074,0.0284932
1710.80636,0.0283834
1709.84198,0.0283497
1708.87760,0.0283342
1707.91323,0.0283278
1706.94885,0.0280658
1705.98447,0.0278655
1705.02009,0.0281452
1704.05571,0.0286053
1703.09134,0.0288533
1702.12696,0.0287510
1701.16258,0.0287816
1700.19820,0.0291225
1699.23382,0.0293668
1698.26945,0.0293479
1697.30507,0.0290267
1696.34069,0.0283671
1695.37631,0.0275058
1694.41194,0.0269158
1693.44756,0.0267055
1692.48318,0.0263685
1691.51880,0.0256180
1690.55442,0.0249120
1689.59005,0.0250778
1688.62567,0.0258029
1687.66129,0.0264005
1686.69691,0.0267544
1685.73253,0.0269056
1684.76816,0.0269188
1683.80378,0.0267729
1682.83940,0.0264385
1681.87502,0.0258698
1680.91065,0.0251944
1679.94627,0.0246269
1678.98189,0.0243327
1678.01751,0.0244180
1677.05313,0.0245986
1676.08876,0.0246602
1675.12438,0.0246276
1674.16000,0.0247102
1673.19562,0.0248610
1672.23124,0.0248536
1671.26687,0.0247103
1670.30249,0.0244443
1669.33811,0.0242398
1668.37373,0.0242135
1667.40935,0.0242041
1666.44498,0.0241244
1665.48060,0.0240135
1664.51622,0.0239081
1663.55184,0.0238502
1662.58747,0.0239385
1661.62309,0.0239610
1660.65871,0.0237915
1659.69433,0.0235120
1658.72995,0.0233932
1657.76558,0.0239344
1656.80120,0.0249345
1655.83682,0.0259173
1654.87244,0.0265788
1653.90806,0.0269307
1652.94369,0.0270697
1651.97931,0.0269902
1651.01493,0.0268749
1650.05055,0.0266087
1649.08618,0.0260800
1648.12180,0.0255025
1647.15742,0.0252622
1646.19304,0.0255292
1645.22866,0.0257606
1644.26429,0.0256863
1643.29991,0.0254488
1642.33553,0.0251425
1641.37115,0.0249450
1640.40677,0.0252289
1639.44240,0.0259415
1638.47802,0.0266079
1637.51364,0.0270836
1636.54926,0.0274175
1635.58488,0.0276284
1634.62051,0.0277024
1633.65613,0.0276674
1632.69175,0.0275836
1631.72737,0.0274566
1630.76300,0.0272867
1629.79862,0.0272367
1628.83424,0.0276227
1627.86986,0.0281706
1626.90548,0.0285863
1625.94111,0.0289350
1624.97673,0.0292099
1624.01235,0.0293813
1623.04797,0.0293664
1622.08359,0.0295445
1621.11922,0.0300802
1620.15484,0.0305779
1619.19046,0.0309219
1618.22608,0.0311550
1617.26171,0.0314225
1616.29733,0.0316373
1615.33295,0.0316857
1614.36857,0.0316457
1613.40419,0.0315129
1612.43982,0.0312920
1611.47544,0.0310919
1610.51106,0.0312345
1609.54668,0.0315913
1608.58230,0.0318281
1607.61793,0.0320141
1606.65355,0.0321947
1605.68917,0.0323670
1604.72479,0.0325084
1603.76041,0.0326540
1602.79604,0.0328290
1601.83166,0.0329967
1600.86728,0.0331749
1599.90290,0.0333707
1598.93853,0.0335771
1597.97415,0.0337748
1597.00977,0.0339691
1596.04539,0.0341574
1595.08101,0.0343519
1594.11664,0.0345430
1593.15226,0.0347117
1592.18788,0.0348677
1591.22350,0.0350074
1590.25912,0.0351349
1589.29475,0.0352443
1588.33037,0.0353608
1587.36599,0.0354582
1586.40161,0.0355366
1585.43724,0.0355893
1584.47286,0.0356145
1583.50848,0.0355950
1582.54410,0.0354487
1581.57972,0.0355090
1580.61535,0.0359164
1579.65097,0.0363332
1578.68659,0.0366229
1577.72221,0.0367816
1576.75783,0.0367697
1575.79346,0.0365768
1574.82908,0.0363942
1573.86470,0.0362233
1572.90032,0.0359190
1571.93594,0.0354313
1570.97157,0.0348670
1570.00719,0.0346481
1569.04281,0.0346494
1568.07843,0.0344635
1567.11406,0.0340391
1566.14968,0.0334622
1565.18530,0.0330366
1564.22092,0.0329800
1563.25654,0.0334623
1562.29217,0.0342199
1561.32779,0.0346703
1560.36341,0.0347668
1559.39903,0.0347707
1558.43465,0.0346916
1557.47028,0.0342987
1556.50590,0.0335116
1555.54152,0.0324364
1554.57714,0.0313574
1553.61276,0.0305851
1552.64839,0.0300733
1551.68401,0.0297434
1550.71963,0.0294758
1549.75525,0.0291228
1548.79088,0.0287670
1547.82650,0.0286153
1546.86212,0.0286185
1545.89774,0.0285416
1544.93336,0.0286118
1543.96899,0.0290831
1543.00461,0.0296306
1542.04023,0.0299153
1541.07585,0.0298390
1540.11147,0.0294410
1539.14710,0.0289708
1538.18272,0.0285542
1537.21834,0.0279848
1536.25396,0.0273452
1535.28959,0.0267448
1534.32521,0.0261406
1533.36083,0.0258469
1532.39645,0.0258359
1531.43207,0.0257527
1530.46770,0.0256109
1529.50332,0.0254294
1528.53894,0.0251689
1527.57456,0.0249951
1526.61018,0.0251251
1525.64581,0.0254889
1524.68143,0.0258285
1523.71705,0.0259336
1522.75267,0.0259110
1521.78829,0.0259204
1520.82392,0.0258354
1519.85954,0.0256687
1518.89516,0.0254094
1517.93078,0.0250030
1516.96641,0.0245307
1516.00203,0.0240970
1515.03765,0.0239023
1514.07327,0.0238346
1513.10889,0.0236547
1512.14452,0.0235517
1511.18014,0.0238890
1510.21576,0.0245674
1509.25138,0.0251518
1508.28700,0.0254869
1507.32263,0.0255644
1506.35825,0.0254776
1505.39387,0.0252133
1504.42949,0.0247582
1503.46512,0.0242338
1502.50074,0.0235750
1501.53636,0.0231008
1500.57198,0.0231377
1499.60760,0.0234866
1498.64323,0.0238552
1497.67885,0.0240007
1496.71447,0.0239501
1495.75009,0.0238773
1494.78571,0.0238421
1493.82134,0.0237716
1492.85696,0.0237259
1491.89258,0.0237547
1490.92820,0.0237435
1489.96382,0.0238516
1488.99945,0.0240212
1488.03507,0.0240140
1487.07069,0.0238959
1486.10631,0.0237312
1485.14194,0.0235823
1484.17756,0.0235236
1483.21318,0.0235094
1482.24880,0.0234837
1481.28442,0.0235743
1480.32005,0.0237482
1479.35567,0.0238519
1478.39129,0.0240245
1477.42691,0.0243645
1476.46253,0.0248103
1475.49816,0.0252355
1474.53378,0.0255639
1473.56940,0.0257759
1472.60502,0.0258240
1471.64065,0.0256932
1470.67627,0.0254992
1469.71189,0.0254680
1468.74751,0.0254620
1467.78313,0.0254063
1466.81876,0.0254936
1465.85438,0.0256684
1464.89000,0.0258647
1463.92562,0.0259535
1462.96124,0.0259781
1461.99687,0.0262966
1461.03249,0.0268684
1460.06811,0.0274093
1459.10373,0.0278864
1458.13935,0.0283580
1457.17498,0.0286701
1456.21060,0.0287633
1455.24622,0.0286509
1454.28184,0.0283169
1453.31747,0.0279376
1452.35309,0.0276009
1451.38871,0.0274327
1450.42433,0.0276293
1449.45995,0.0279627
1448.49558,0.0281711
1447.53120,0.0283097
1446.56682,0.0284367
1445.60244,0.0285486
1444.63806,0.0286394
1443.67369,0.0285909
1442.70931,0.0285232
1441.74493,0.0287874
1440.78055,0.0292933
1439.81618,0.0297400
1438.85180,0.0300777
1437.88742,0.0303307
1436.92304,0.0304854
1435.95866,0.0305791
1434.99429,0.0306512
1434.02991,0.0306912
1433.06553,0.0306332
1432.10115,0.0304719
1431.13677,0.0303954
1430.17240,0.0305614
1429.20802,0.0308041
1428.24364,0.0309634
1427.27926,0.0310891
1426.31488,0.0311099
1425.35051,0.0310791
1424.38613,0.0312891
1423.42175,0.0316942
1422.45737,0.0320951
1421.49300,0.0324132
1420.52862,0.0326342
1419.56424,0.0327423
1418.59986,0.0327488
1417.63548,0.0327231
1416.67111,0.0326390
1415.70673,0.0324644
1414.74235,0.0322021
1413.77797,0.0320279
1412.81359,0.0321111
1411.84922,0.0322285
1410.88484,0.0322894
1409.92046,0.0323856
1408.95608,0.0324911
1407.99171,0.0325779
1407.02733,0.0326439
1406.06295,0.0326794
1405.09857,0.0326973
1404.13419,0.0327714
1403.16982,0.0328861
1402.20544,0.0329876
1401.24106,0.0330473
1400.27668,0.0330985
1399.31230,0.0332563
1398.34793,0.0334632
1397.38355,0.0336177
1396.41917,0.0336959
1395.45479,0.0336916
1394.49041,0.0335918
1393.52604,0.0334687
1392.56166,0.0334893
1391.59728,0.0335841
1390.63290,0.0336369
1389.66853,0.0336554
1388.70415,0.0337117
1387.73977,0.0338447
1386.77539,0.0339179
1385.81101,0.0339117
1384.84664,0.0338638
1383.88226,0.0337733
1382.91788,0.0336734
1381.95350,0.0336134
1380.98912,0.0336607
1380.02475,0.0337451
1379.06037,0.0338450
1378.09599,0.0339799
1377.13161,0.0341020
1376.16724,0.0342033
1375.20286,0.0342536
1374.23848,0.0342818
1373.27410,0.0343117
1372.30972,0.0343236
1371.34535,0.0343236
1370.38097,0.0342835
1369.41659,0.0342124
1368.45221,0.0341952
1367.48783,0.0342791
1366.52346,0.0344035
1365.55908,0.0345141
1364.59470,0.0345966
1363.63032,0.0346572
1362.66594,0.0347221
1361.70157,0.0347691
1360.73719,0.0347809
1359.77281,0.0347717
1358.80843,0.0347388
1357.84406,0.0346923
1356.87968,0.0346784
1355.91530,0.0347049
1354.95092,0.0347432
1353.98654,0.0347840
1353.02217,0.0348163
1352.05779,0.0348588
1351.09341,0.0349038
1350.12903,0.0349295
1349.16465,0.0349594
1348.20028,0.0349916
1347.23590,0.0350126
1346.27152,0.0350228
1345.30714,0.0350511
1344.34276,0.0351182
1343.37839,0.0352032
1342.41401,0.0352962
1341.44963,0.0354033
1340.48525,0.0355157
1339.52088,0.0356031
1338.55650,0.0356622
1337.59212,0.0357026
1336.62774,0.0357215
1335.66336,0.0357237
1334.69899,0.0357238
1333.73461,0.0357469
1332.77023,0.0357955
1331.80585,0.0358605
1330.84147,0.0359284
1329.87710,0.0359918
1328.91272,0.0360646
1327.94834,0.0361389
1326.98396,0.0362047
1326.01959,0.0362760
1325.05521,0.0363728
1324.09083,0.0364897
1323.12645,0.0366054
1322.16207,0.0367192
1321.19770,0.0368321
1320.23332,0.0369456
1319.26894,0.0370555
1318.30456,0.0371585
1317.34018,0.0372677
1316.37581,0.0373685
1315.41143,0.0374568
1314.44705,0.0375586
1313.48267,0.0376755
1312.51829,0.0377964
1311.55392,0.0379027
1310.58954,0.0379964
1309.62516,0.0381009
1308.66078,0.0382167
1307.69641,0.0383457
1306.73203,0.0384870
1305.76765,0.0386396
1304.80327,0.0388081
1303.83889,0.0389817
1302.87452,0.0391480
1301.91014,0.0393114
1300.94576,0.0394753
1299.98138,0.0396116
1299.01700,0.0397257
1298.05263,0.0398416
1297.08825,0.0399518
1296.12387,0.0400725
1295.15949,0.0402082
1294.19512,0.0403548
1293.23074,0.0405277
1292.26636,0.0407140
1291.30198,0.0408864
1290.33760,0.0410498
1289.37323,0.0412080
1288.40885,0.0413415
1287.44447,0.0414579
1286.48009,0.0415721
1285.51571,0.0416900
1284.55134,0.0418125
1283.58696,0.0419301
1282.62258,0.0420552
1281.65820,0.0422026
1280.69382,0.0423512
1279.72945,0.0424724
1278.76507,0.0425857
1277.80069,0.0427137
1276.83631,0.0428380
1275.87194,0.0429461
1274.90756,0.0430556
1273.94318,0.0431803
1272.97880,0.0432891
1272.01442,0.0433773
1271.05005,0.0434680
1270.08567,0.0435537
1269.12129,0.0436275
1268.15691,0.0436981
1267.19253,0.0437858
1266.22816,0.0438838
1265.26378,0.0439766
1264.29940,0.0440643
1263.33502,0.0441569
1262.37065,0.0442554
1261.40627,0.0443292
1260.44189,0.0443913
1259.47751,0.0444584
1258.51313,0.0445090
1257.54876,0.0445434
1256.58438,0.0445825
1255.62000,0.0446374
1254.65562,0.0446887
1253.69124,0.0447420
1252.72687,0.0448036
1251.76249,0.0448570
1250.79811,0.0449015
1249.83373,0.0449319
1248.86935,0.0449596
1247.90498,0.0449843
1246.94060,0.0449964
1245.97622,0.0450055
1245.01184,0.0450214
1244.04747,0.0450460
1243.08309,0.0450603
1242.11871,0.0450748
1241.15433,0.0450942
1240.18995,0.0450980
1239.22558,0.0450939
1238.26120,0.0450856
1237.29682,0.0450709
1236.33244,0.0450533
1235.36806,0.0450464
1234.40369,0.0450478
1233.43931,0.0450422
1232.47493,0.0450360
1231.51055,0.0450238
1230.54618,0.0450097
1229.58180,0.0449984
1228.61742,0.0449755
1227.65304,0.0449420
1226.68866,0.0448955
1225.72429,0.0448298
1224.75991,0.0447564
1223.79553,0.0446891
1222.83115,0.0446148
1221.86677,0.0445268
1220.90240,0.0444387
1219.93802,0.0443500
1218.97364,0.0442597
1218.00926,0.0441662
1217.04488,0.0440695
1216.08051,0.0439685
1215.11613,0.0438593
1214.15175,0.0437438
1213.18737,0.0436317
1212.22300,0.0435319
1211.25862,0.0434319
1210.29424,0.0433327
1209.32986,0.0432368
1208.36548,0.0431437
1207.40111,0.0430638
1206.43673,0.0429925
1205.47235,0.0429327
1204.50797,0.0428666
1203.54359,0.0427881
1202.57922,0.0427165
1201.61484,0.0426444
1200.65046,0.0425660
1199.68608,0.0424699
1198.72171,0.0423595
1197.75733,0.0422531
1196.79295,0.0421651
1195.82857,0.0421002
1194.86419,0.0420442
1193.89982,0.0420113
1192.93544,0.0420017
1191.97106,0.0419984
1191.00668,0.0419972
1190.04230,0.0419859
1189.07793,0.0419644
1188.11355,0.0419294
1187.14917,0.0418841
1186.18479,0.0418387
1185.22041,0.0417830
1184.25604,0.0417162
1183.29166,0.0416571
1182.32728,0.0416276
1181.36290,0.0416238
1180.39853,0.0416179
1179.43415,0.0416051
1178.46977,0.0415916
1177.50539,0.0415712
1176.54101,0.0415406
1175.57664,0.0414982
1174.61226,0.0414445
1173.64788,0.0413843
1172.68350,0.0413326
1171.71912,0.0412883
1170.75475,0.0412365
1169.79037,0.0411913
1168.82599,0.0411529
1167.86161,0.0411174
1166.89724,0.0410824
1165.93286,0.0410339
1164.96848,0.0409854
1164.00410,0.0409362
1163.03972,0.0408785
1162.07535,0.0408098
1161.11097,0.0407280
1160.14659,0.0406357
1159.18221,0.0405324
1158.21783,0.0404348
1157.25346,0.0403456
1156.28908,0.0402615
1155.32470,0.0401805
1154.36032,0.0401063
1153.39594,0.0400387
1152.43157,0.0399618
1151.46719,0.0398861
1150.50281,0.0397932
1149.53843,0.0396772
1148.57406,0.0395653
1147.60968,0.0394485
1146.64530,0.0393345
1145.68092,0.0392273
1144.71654,0.0391202
1143.75217,0.0390275
1142.78779,0.0389509
1141.82341,0.0388698
1140.85903,0.0387876
1139.89465,0.0387268
1138.93028,0.0386719
1137.96590,0.0386143
1137.00152,0.0385627
1136.03714,0.0385184
1135.07276,0.0384890
1134.10839,0.0384687
1133.14401,0.0384497
1132.17963,0.0384340
1131.21525,0.0384071
1130.25088,0.0383607
1129.28650,0.0383195
1128.32212,0.0382886
1127.35774,0.0382524
1126.39336,0.0382067
1125.42899,0.0381591
1124.46461,0.0381250
1123.50023,0.0381023
1122.53585,0.0380826
1121.57147,0.0380584
1120.60710,0.0380338
1119.64272,0.0380022
1118.67834,0.0379595
1117.71396,0.0379291
1116.74959,0.0379031
1115.78521,0.0378839
1114.82083,0.0378887
1113.85645,0.0379147
1112.89207,0.0379555
1111.92770,0.0380109
1110.96332,0.0380824
1109.99894,0.0381356
1109.03456,0.0381705
1108.07018,0.0382019
1107.10581,0.0382193
1106.14143,0.0382373
1105.17705,0.0382509
1104.21267,0.0382601
1103.24829,0.0382698
1102.28392,0.0382731
1101.31954,0.0382753
1100.35516,0.0383026
1099.39078,0.0383655
1098.42641,0.0384081
1097.46203,0.0384316
1096.49765,0.0384727
1095.53327,0.0385178
1094.56889,0.0385597
1093.60452,0.0385876
1092.64014,0.0386156
1091.67576,0.0386519
1090.71138,0.0386880
1089.74700,0.0387358
1088.78263,0.0387961
1087.81825,0.0388633
1086.85387,0.0389093
1085.88949,0.0389449
1084.92512,0.0390065
1083.96074,0.0390785
1082.99636,0.0391456
1082.03198,0.0391997
1081.06760,0.0392644
1080.10323,0.0393463
1079.13885,0.0394188
1078.17447,0.0394906
1077.21009,0.0395427
1076.24571,0.0395749
1075.28134,0.0396118
1074.31696,0.0396596
1073.35258,0.0397348
1072.38820,0.0398199
1071.42382,0.0398973
1070.45945,0.0399662
1069.49507,0.0400425
1068.53069,0.0401332
1067.56631,0.0402061
1066.60194,0.0402667
1065.63756,0.0403115
1064.67318,0.0403365
1063.70880,0.0403590
1062.74442,0.0403828
1061.78005,0.0404383
1060.81567,0.0405038
1059.85129,0.0405497
1058.88691,0.0405946
1057.92253,0.0406390
1056.95816,0.0406862
1055.99378,0.0407167
1055.02940,0.0407154
1054.06502,0.0406866
1053.10065,0.0406274
1052.13627,0.0405494
1051.17189,0.0404574
1050.20751,0.0403524
1049.24313,0.0402153
1048.27876,0.0400507
1047.31438,0.0398854
1046.35000,0.0397076
1045.38562,0.0395314
1044.42124,0.0393601
1043.45687,0.0391681
1042.49249,0.0389570
1041.52811,0.0387367
1040.56373,0.0385106
1039.59935,0.0382707
1038.63498,0.0380145
1037.67060,0.0377452
1036.70622,0.0374833
1035.74184,0.0372425
1034.77747,0.0370072
1033.81309,0.0367846
1032.84871,0.0365776
1031.88433,0.0363714
1030.91995,0.0361544
1029.95558,0.0359287
1028.99120,0.0357033
1028.02682,0.0354777
1027.06244,0.0352570
1026.09806,0.0350349
1025.13369,0.0348209
1024.16931,0.0346275
1023.20493,0.0344294
1022.24055,0.0342266
1021.27618,0.0340435
1020.31180,0.0338660
1019.34742,0.0336659
1018.38304,0.0334667
1017.41866,0.0332930
1016.45429,0.0331369
1015.48991,0.0329883
1014.52553,0.0328314
1013.56115,0.0326764
1012.59677,0.0325309
1011.63240,0.0323876
1010.66802,0.0322536
1009.70364,0.0321402
1008.73926,0.0320463
1007.77488,0.0319476
1006.81051,0.0318458
1005.84613,0.0317651
1004.88175,0.0316970
1003.91737,0.0316133
1002.95300,0.0315131
1001.98862,0.0314228
1001.02424,0.0313404
1000.05986,0.0312460
999.09548,0.0311502
998.13111,0.0310863
997.16673,0.0310451
996.20235,0.0309897
995.23797,0.0309293
994.27359,0.0308901
993.30922,0.0308760
992.34484,0.0308659
991.38046,0.0308356
990.41608,0.0307837
989.45171,0.0307144
988.48733,0.0306147
987.52295,0.0305061
986.55857,0.0304306
985.59419,0.0303628
984.62982,0.0302888
983.66544,0.0302292
982.70106,0.0301784
981.73668,0.0301186
980.77230,0.0300445
979.80793,0.0299623
978.84355,0.0298566
977.87917,0.0297349
976.91479,0.0296170
975.95041,0.0295112
974.98604,0.0294328
974.02166,0.0293660
973.05728,0.0292933
972.09290,0.0292107
971.12853,0.0291203
970.16415,0.0290179
969.19977,0.0289233
968.23539,0.0288403
967.27101,0.0287308
966.30664,0.0286238
965.34226,0.0285343
964.37788,0.0284494
963.41350,0.0283658
962.44912,0.0282650
961.48475,0.0281487
960.52037,0.0280199
959.55599,0.0279044
958.59161,0.0277832
957.62724,0.0276344
956.66286,0.0275069
955.69848,0.0274139
954.73410,0.0273395
953.76972,0.0272619
952.80535,0.0271833
951.84097,0.0270941
950.87659,0.0269913
949.91221,0.0269142
948.94783,0.0268468
947.98346,0.0267539
947.01908,0.0266144
946.05470,0.0264613
945.09032,0.0263428
944.12594,0.0262349
943.16157,0.0261268
942.19719,0.0260213
941.23281,0.0259162
940.26843,0.0258286
939.30406,0.0257789
938.33968,0.0257454
937.37530,0.0256907
936.41092,0.0256132
935.44654,0.0255155
934.48217,0.0254190
933.51779,0.0253306
932.55341,0.0252449
931.58903,0.0251658
930.62465,0.0250807
929.66028,0.0250026
928.69590,0.0249405
927.73152,0.0248854
926.76714,0.0248264
925.80276,0.0247663
924.83839,0.0247011
923.87401,0.0246218
922.90963,0.0245662
921.94525,0.0245306
920.98088,0.0245000
920.01650,0.0244715
919.05212,0.0244266
918.08774,0.0243825
917.12336,0.0243376
916.15899,0.0243037
915.19461,0.0242639
914.23023,0.0241872
913.26585,0.0241156
912.30147,0.0240553
911.33710,0.0240106
910.37272,0.0240022
909.40834,0.0240206
908.44396,0.0240251
907.47959,0.0240097
906.51521,0.0240173
905.55083,0.0240200
904.58645,0.0240046
903.62207,0.0239662
902.65770,0.0238991
901.69332,0.0238507
900.72894,0.0238188
899.76456,0.0238177
898.80018,0.0238655
897.83581,0.0239371
896.87143,0.0240074
895.90705,0.0240820
894.94267,0.0241916
893.97829,0.0242931
893.01392,0.0243583
892.04954,0.0243829
891.08516,0.0243425
890.12078,0.0242885
889.15641,0.0242734
888.19203,0.0242719
887.22765,0.0242663
886.26327,0.0242853
885.29889,0.0243109
884.33452,0.0243415
883.37014,0.0244092
882.40576,0.0244786
881.44138,0.0245299
880.47700,0.0245543
879.51263,0.0245552
878.54825,0.0245722
877.58387,0.0246159
876.61949,0.0246639
875.65512,0.0247028
874.69074,0.0247539
873.72636,0.0247913
872.76198,0.0247961
871.79760,0.0248103
870.83323,0.0248503
869.86885,0.0248980
868.90447,0.0249194
867.94009,0.0249298
866.97571,0.0249642
866.01134,0.0250168
865.04696,0.0250626
864.08258,0.0250861
863.11820,0.0251068
862.15382,0.0251113
861.18945,0.0250954
860.22507,0.0251091
859.26069,0.0251362
858.29631,0.0251341
857.33194,0.0251194
856.36756,0.0251112
855.40318,0.0251092
854.43880,0.0250924
853.47442,0.0250586
852.51005,0.0250343
851.54567,0.0250108
850.58129,0.0249977
849.61691,0.0250069
848.65253,0.0250219
847.68816,0.0250438
846.72378,0.0250730
845.75940,0.0251193
844.79502,0.0251569
843.83065,0.0251570
842.86627,0.0251282
841.90189,0.0250715
840.93751,0.0249934
839.97313,0.0249075
839.00876,0.0248585
838.04438,0.0248349
837.08000,0.0247910
836.11562,0.0247604
835.15124,0.0247543
834.18687,0.0247508
833.22249,0.0247180
832.25811,0.0246515
831.29373,0.0245894
830.32935,0.0245055
829.36498,0.0243793
828.40060,0.0242900
827.43622,0.0242777
826.47184,0.0242734
825.50747,0.0242436
824.54309,0.0242167
823.57871,0.0242036
822.61433,0.0241714
821.64995,0.0241215
820.68558,0.0241124
819.72120,0.0241278
818.75682,0.0241198
817.79244,0.0240830
816.82806,0.0240515
815.86369,0.0240581
814.89931,0.0240726
813.93493,0.0240604
812.97055,0.0240239
812.00618,0.0239842
811.04180,0.0239333
810.07742,0.0238954
809.11304,0.0238961
808.14866,0.0238866
807.18429,0.0238806
806.21991,0.0238647
805.25553,0.0237995
804.29115,0.0237446
803.32677,0.0237027
802.36240,0.0236372
801.39802,0.0235890
800.43364,0.0235662
799.46926,0.0235423
798.50488,0.0235271
797.54051,0.0235167
796.57613,0.0235186
795.61175,0.0235294
794.64737,0.0235024
793.68300,0.0234283
792.71862,0.0233565
791.75424,0.0233155
790.78986,0.0232745
789.82548,0.0232454
788.86111,0.0232330
787.89673,0.0232285
786.93235,0.0232452
785.96797,0.0232722
785.00359,0.0233080
784.03922,0.0233137
783.07484,0.0233172
782.11046,0.0233544
781.14608,0.0233862
780.18171,0.0234038
779.21733,0.0233726
778.25295,0.0233355
777.28857,0.0233265
776.32419,0.0233207
775.35982,0.0233264
774.39544,0.0233228
773.43106,0.0233122
772.46668,0.0232903
771.50230,0.0232907
770.53793,0.0233067
769.57355,0.0232851
768.60917,0.0232518
767.64479,0.0232229
766.68041,0.0232307
765.71604,0.0232604
764.75166,0.0232956
763.78728,0.0233471
762.82290,0.0233645
761.85853,0.0233620
760.89415,0.0233741
759.92977,0.0233831
758.96539,0.0233548
758.00101,0.0232882
757.03664,0.0232208
756.07226,0.0231813
755.10788,0.0231703
754.14350,0.0231766
753.17912,0.0232353
752.21475,0.0233112
751.25037,0.0233209
750.28599,0.0233288
749.32161,0.0233860
748.35724,0.0234172
747.39286,0.0234256
746.42848,0.0234370
745.46410,0.0234433
744.49972,0.0234706
743.53535,0.0234639
742.57097,0.0234562
741.60659,0.0235287
740.64221,0.0236015
739.67783,0.0236226
738.71346,0.0236381
737.74908,0.0236689
736.78470,0.0236788
735.82032,0.0236977
734.85594,0.0237242
733.89157,0.0237174
732.92719,0.0237215
731.96281,0.0237348
730.99843,0.0237808
730.03406,0.0238607
729.06968,0.0239185
728.10530,0.0239541
727.14092,0.0239855
726.17654,0.0240359
725.21217,0.0240943
724.24779,0.0241733
723.28341,0.0242715
722.31903,0.0243389
721.35465,0.0243884
720.39028,0.0244275
719.42590,0.0244266
718.46152,0.0243831
717.49714,0.0243243
716.53276,0.0242684
715.56839,0.0242296
714.60401,0.0242314
713.63963,0.0242731
712.67525,0.0243455
711.71088,0.0244337
710.74650,0.0244993
709.78212,0.0245270
708.81774,0.0245352
707.85336,0.0245401
706.88899,0.0245327
705.92461,0.0244952
704.96023,0.0244506
703.99585,0.0244316
703.03147,0.0244387
702.06710,0.0244314
701.10272,0.0243948
700.13834,0.0243840
699.17396,0.0244099
698.20959,0.0244390
697.24521,0.0244399
696.28083,0.0244186
695.31645,0.0244043
694.35207,0.0244044
693.38770,0.0244526
692.42332,0.0245533
691.45894,0.0246633
690.49456,0.0247191
689.53018,0.0247445
688.56581,0.0248230
687.60143,0.0249445
686.63705,0.0250633
685.67267,0.0251160
684.70829,0.0251120
683.74392,0.0250917
682.77954,0.0250824
681.81516,0.0251028
680.85078,0.0251045
679.88641,0.0250739
678.92203,0.0250037
677.95765,0.0249577
676.99327,0.0249469
676.02889,0.0249354
675.06452,0.0247854
674.10014,0.0244173
673.13576,0.0247394
672.17138,0.0259287
671.20700,0.0270997
670.24263,0.0279422
669.27825,0.0284343
668.31387,0.0286260
667.34949,0.0285450
666.38512,0.0281719
665.42074,0.0275020
664.45636,0.0265344
663.49198,0.0253749
662.52760,0.0244458
661.56323,0.0245116
660.59885,0.0250511
659.63447,0.0252198
658.67009,0.0252334
657.70571,0.0252647
656.74134,0.0253217
655.77696,0.0253525
654.81258,0.0253230
653.84820,0.0252910
652.88382,0.0252546
651.91945,0.0252481
650.95507,0.0252544
649.99069,0.0252624
649.02631,0.0252496
648.06194,0.0251985
647.09756,0.0251429
646.13318,0.0251081
645.16880,0.0250948
644.20442,0.0250561
643.24005,0.0250404
642.27567,0.0250627
641.31129,0.0251049
640.34691,0.0251671
639.38253,0.0252050
638.41816,0.0252275
637.45378,0.0252399
636.48940,0.0252488
635.52502,0.0252230
634.56065,0.0251538
633.59627,0.0250477
632.63189,0.0248242
631.66751,0.0245969
630.70313,0.0245443
629.73876,0.0245128
628.77438,0.0241407
627.81000,0.0234188
626.84562,0.0231108
625.88124,0.0235644
624.91687,0.0242463
623.95249,0.0249400
622.98811,0.0256226
622.02373,0.0259926
621.05935,0.0261427
620.09498,0.0262977
619.13060,0.0267048
618.16622,0.0271477
617.20184,0.0270286
616.23747,0.0264157
615.27309,0.0259807
614.30871,0.0261463
613.34433,0.0263781
612.37995,0.0266377
611.41558,0.0271049
610.45120,0.0273346
609.48682,0.0273673
608.52244,0.0274506
607.55806,0.0280499
606.59369,0.0289701
605.62931,0.0295372
604.66493,0.0295425
603.70055,0.0291534
602.73618,0.0289874
601.77180,0.0289257
600.80742,0.0288867
599.84304,0.0289156
598.87866,0.0285823
597.91429,0.0279734
596.94991,0.0274683
595.98553,0.0272604
595.02115,0.0272835
594.05677,0.0274428
593.09240,0.0275982
592.12802,0.0276489
591.16364,0.0277450
590.19926,0.0279448
589.23488,0.0281144
588.27051,0.0281139
587.30613,0.0279531
586.34175,0.0277353
585.37737,0.0274845
584.41300,0.0272701
583.44862,0.0272252
582.48424,0.0273325
581.51986,0.0274734
580.55548,0.0275836
579.59111,0.0276297
578.62673,0.0275971
577.66235,0.0274768
576.69797,0.0272694
575.73359,0.0270019
574.76922,0.0267163
573.80484,0.0265068
572.84046,0.0264069
571.87608,0.0263301
570.91171,0.0262478
569.94733,0.0261924
568.98295,0.0261812
568.01857,0.0261568
567.05419,0.0260630
566.08982,0.0259810
565.12544,0.0258982
564.16106,0.0257961
563.19668,0.0257635
562.23230,0.0257858
561.26793,0.0257874
560.30355,0.0257184
559.33917,0.0256822
558.37479,0.0256940
557.41041,0.0256838
556.44604,0.0256882
555.48166,0.0256482
554.51728,0.0255968
553.55290,0.0255193
552.58853,0.0254328
551.62415,0.0254509
550.65977,0.0254826
549.69539,0.0255480
548.73101,0.0256413
547.76664,0.0256697
546.80226,0.0256361
545.83788,0.0256057
544.87350,0.0255612
543.90912,0.0254027
542.94475,0.0252619
541.98037,0.0251389
541.01599,0.0249944
540.05161,0.0249278
539.08724,0.0249195
538.12286,0.0249319
537.15848,0.0249009
536.19410,0.0249476
535.22972,0.0251085
534.26535,0.0252024
533.30097,0.0251988
532.33659,0.0252015
531.37221,0.0252652
530.40783,0.0252524
529.44346,0.0251697
528.47908,0.0250710
527.51470,0.0249329
526.55032,0.0247493
525.58594,0.0245320
524.62157,0.0244576
523.65719,0.0244657
522.69281,0.0244609
521.72843,0.0245280
520.76406,0.0246534
519.79968,0.0248099
518.83530,0.0249425
517.87092,0.0250721
516.90654,0.0251725
515.94217,0.0252042
514.97779,0.0251848
514.01341,0.0250654
513.04903,0.0249813
512.08465,0.0250138
511.12028,0.0250076
510.15590,0.0249014
509.19152,0.0247447
508.22714,0.0246003
507.26276,0.0245394
506.29839,0.0245784
505.33401,0.0246816
504.36963,0.0247660
503.40525,0.0247832
502.44088,0.0248162
501.47650,0.0249017
500.51212,0.0249633
499.54774,0.0248857
498.58336,0.0246865
497.61899,0.0244945
496.65461,0.0243497
495.69023,0.0243078
494.72585,0.0243569
493.76147,0.0243893
492.79710,0.0243760
491.83272,0.0243702
490.86834,0.0243929
489.90396,0.0244196
488.93959,0.0244565
487.97521,0.0244632
487.01083,0.0244626
486.04645,0.0245200
485.08207,0.0245736
484.11770,0.0245269
483.15332,0.0243883
482.18894,0.0242437
481.22456,0.0241462
480.26018,0.0241216
479.29581,0.0240704
478.33143,0.0240194
477.36705,0.0241138
476.40267,0.0242376
475.43829,0.0243276
474.47392,0.0244364
473.50954,0.0245601
472.54516,0.0245965
471.58078,0.0245081
470.61641,0.0244515
469.65203,0.0244399
468.68765,0.0244367
467.72327,0.0243950
466.75889,0.0242912
465.79452,0.0241993
464.83014,0.0240037
463.86576,0.0237494
462.90138,0.0236919
461.93700,0.0238290
460.97263,0.0239896
460.00825,0.0240833
459.04387,0.0241682
458.07949,0.0242445
457.11512,0.0242765
456.15074,0.0242868
455.18636,0.0242626
454.22198,0.0241899
453.25760,0.0240152
452.29323,0.0238687
451.32885,0.0239046
450.36447,0.0239723
449.40009,0.0239883
448.43571,0.0239778
447.47134,0.0239693
446.50696,0.0239218
445.54258,0.0238202
444.57820,0.0237736
443.61382,0.0237308
442.64945,0.0236595
441.68507,0.0236006
440.72069,0.0236016
439.75631,0.0236924
438.79194,0.0237570
437.82756,0.0237577
436.86318,0.0237539
435.89880,0.0237693
434.93442,0.0236936
433.97005,0.0235219
433.00567,0.0233630
432.04129,0.0231745
431.07691,0.0230473
430.11253,0.0230117
429.14816,0.0229889
428.18378,0.0230554
427.21940,0.0231413
426.25502,0.0231019
425.29065,0.0230345
424.32627,0.0230958
423.36189,0.0232504
422.39751,0.0234395
421.43313,0.0235888
420.46876,0.0236193
419.50438,0.0235743
418.54000,0.0234596
417.57562,0.0232627
416.61124,0.0230609
415.64687,0.0228131
414.68249,0.0224274
413.71811,0.0221203
412.75373,0.0220475
411.78935,0.0220896
410.82498,0.0221349
409.86060,0.0220976
408.89622,0.0220112
407.93184,0.0219336
406.96747,0.0219259
406.00309,0.0219188
405.03871,0.0218229
404.07433,0.0218229
403.10995,0.0218229
402.14558,0.0218229
401.18120,0.0218229
400.21682,0.0218229
399.25244,0.0218229
