3998.31069,-0.0153997
3997.34631,-0.0153997
3996.38194,-0.0153997
3995.41756,-0.0153997
3994.45318,-0.0153997
3993.48880,-0.0153997
3992.52442,-0.0153997
3991.56005,-0.0154074
3990.59567,-0.0153901
3989.63129,-0.0153609
3988.66691,-0.0152860
3987.70253,-0.0152332
3986.73816,-0.0153054
3985.77378,-0.0154220
3984.80940,-0.0154865
3983.84502,-0.0154595
3982.88065,-0.0154055
3981.91627,-0.0153717
3980.95189,-0.0153745
3979.98751,-0.0154147
3979.02313,-0.0154082
3978.05876,-0.0153778
3977.09438,-0.0153082
3976.13000,-0.0152305
3975.16562,-0.0151992
3974.20124,-0.0151535
3973.23687,-0.0151127
3972.27249,-0.0150266
3971.30811,-0.0149250
3970.34373,-0.0149151
3969.37935,-0.0149801
3968.41498,-0.0150718
3967.45060,-0.0151525
3966.48622,-0.0152322
3965.52184,-0.0152700
3964.55747,-0.0152641
3963.59309,-0.0152285
3962.62871,-0.0151721
3961.66433,-0.0151139
3960.69995,-0.0149936
3959.73558,-0.0148726
3958.77120,-0.0148159
3957.80682,-0.0148269
3956.84244,-0.0149035
3955.87806,-0.0149657
3954.91369,-0.0149935
3953.94931,-0.0150263
3952.98493,-0.0150575
3952.02055,-0.0150755
3951.05618,-0.0151102
3950.09180,-0.0151168
3949.12742,-0.0150851
3948.16304,-0.0150388
3947.19866,-0.0149685
3946.23429,-0.0149534
3945.26991,-0.0149759
3944.30553,-0.0149897
3943.34115,-0.0149915
3942.37677,-0.0149962
3941.41240,-0.0150159
3940.44802,-0.0150185
3939.48364,-0.0150640
3938.51926,-0.0151155
3937.55488,-0.0151015
3936.59051,-0.0150278
3935.62613,-0.0149356
3934.66175,-0.0148706
3933.69737,-0.0148075
3932.73300,-0.0147848
3931.76862,-0.0147675
3930.80424,-0.0147524
3929.83986,-0.0147330
3928.87548,-0.0146492
3927.91111,-0.0146130
3926.94673,-0.0146037
3925.98235,-0.0145501
3925.01797,-0.0144539
3924.05359,-0.0143257
3923.08922,-0.0142095
3922.12484,-0.0141163
3921.16046,-0.0140957
3920.19608,-0.0141235
3919.23171,-0.0141279
3918.26733,-0.0140539
3917.30295,-0.0139577
3916.33857,-0.0139513
3915.37419,-0.0139597
3914.40982,-0.0139526
3913.44544,-0.0139884
3912.48106,-0.0140562
3911.51668,-0.0141323
3910.55230,-0.0141984
3909.58793,-0.0142250
3908.62355,-0.0142033
3907.65917,-0.0140554
3906.69479,-0.0137825
3905.73041,-0.0135971
3904.76604,-0.0134920
3903.80166,-0.0133552
3902.83728,-0.0132823
3901.87290,-0.0133620
3900.90853,-0.0135265
3899.94415,-0.0136878
3898.97977,-0.0138542
3898.01539,-0.0140008
3897.05101,-0.0140827
3896.08664,-0.0139858
3895.12226,-0.0137957
3894.15788,-0.0137175
3893.19350,-0.0136728
3892.22912,-0.0136703
3891.26475,-0.0136712
3890.30037,-0.0135989
3889.33599,-0.0135404
3888.37161,-0.0135347
3887.40724,-0.0136592
3886.44286,-0.0138154
3885.47848,-0.0137728
3884.51410,-0.0135410
3883.54972,-0.0133522
3882.58535,-0.0133255
3881.62097,-0.0134703
3880.65659,-0.0137230
3879.69221,-0.0137933
3878.72783,-0.0136774
3877.76346,-0.0136331
3876.79908,-0.0137856
3875.83470,-0.0139695
3874.87032,-0.0138198
3873.90594,-0.0133822
3872.94157,-0.0129501
3871.97719,-0.0127175
3871.01281,-0.0126587
3870.04843,-0.0125935
3869.08406,-0.0125196
3868.11968,-0.0124925
3867.15530,-0.0125431
3866.19092,-0.0127323
3865.22654,-0.0130329
3864.26217,-0.0132551
3863.29779,-0.0132986
3862.33341,-0.0132794
3861.36903,-0.0134437
3860.40465,-0.0138135
3859.44028,-0.0138448
3858.47590,-0.0133926
3857.51152,-0.0128093
3856.54714,-0.0122183
3855.58276,-0.0116642
3854.61839,-0.0112611
3853.65401,-0.0110868
3852.68963,-0.0111779
3851.72525,-0.0114807
3850.76088,-0.0119537
3849.79650,-0.0127004
3848.83212,-0.0134519
3847.86774,-0.0138314
3846.90336,-0.0139878
3845.93899,-0.0139481
3844.97461,-0.0138117
3844.01023,-0.0136848
3843.04585,-0.0133275
3842.08147,-0.0128501
3841.11710,-0.0124775
3840.15272,-0.0121450
3839.18834,-0.0118726
3838.22396,-0.0117731
3837.25959,-0.0117933
3836.29521,-0.0119359
3835.33083,-0.0121858
3834.36645,-0.0124556
3833.40207,-0.0128350
3832.43770,-0.0131521
3831.47332,-0.0131954
3830.50894,-0.0132292
3829.54456,-0.0133801
3828.58018,-0.0135602
3827.61581,-0.0137605
3826.65143,-0.0138072
3825.68705,-0.0135470
3824.72267,-0.0131693
3823.75829,-0.0128870
3822.79392,-0.0127604
3821.82954,-0.0126079
3820.86516,-0.0122466
3819.90078,-0.0118974
3818.93641,-0.0117402
3817.97203,-0.0118122
3817.00765,-0.0121161
3816.04327,-0.0124326
3815.07889,-0.0125885
3814.11452,-0.0127506
3813.15014,-0.0130463
3812.18576,-0.0133038
3811.22138,-0.0134072
3810.25700,-0.0132645
3809.29263,-0.0129759
3808.32825,-0.0128726
3807.36387,-0.0127846
3806.39949,-0.0124560
3805.43512,-0.0120888
3804.47074,-0.0118613
3803.50636,-0.0118411
3802.54198,-0.0119657
3801.57760,-0.0120073
3800.61323,-0.0118903
3799.64885,-0.0118241
3798.68447,-0.0119650
3797.72009,-0.0122802
3796.75571,-0.0126814
3795.79134,-0.0129174
3794.82696,-0.0129131
3793.86258,-0.0129834
3792.89820,-0.0131718
3791.93382,-0.0133324
3790.96945,-0.0134258
3790.00507,-0.0133978
3789.04069,-0.0133145
3788.07631,-0.0132831
3787.11194,-0.0132974
3786.14756,-0.0133261
3785.18318,-0.0133141
3784.21880,-0.0131963
3783.25442,-0.0130534
3782.29005,-0.0129864
3781.32567,-0.0129056
3780.36129,-0.0128190
3779.39691,-0.0128013
3778.43253,-0.0127625
3777.46816,-0.0127182
3776.50378,-0.0127570
3775.53940,-0.0127901
3774.57502,-0.0127161
3773.61065,-0.0125708
3772.64627,-0.0124163
3771.68189,-0.0123113
3770.71751,-0.0122554
3769.75313,-0.0122127
3768.78876,-0.0122454
3767.82438,-0.0123529
3766.86000,-0.0124761
3765.89562,-0.0126210
3764.93124,-0.0127405
3763.96687,-0.0127785
3763.00249,-0.0127518
3762.03811,-0.0127042
3761.07373,-0.0126206
3760.10935,-0.0124801
3759.14498,-0.0124196
3758.18060,-0.0124111
3757.21622,-0.0122175
3756.25184,-0.0119716
3755.28747,-0.0117112
3754.32309,-0.0112505
3753.35871,-0.0107524
3752.39433,-0.0104474
3751.42995,-0.0104966
3750.46558,-0.0106852
3749.50120,-0.0105333
3748.53682,-0.0102626
3747.57244,-0.0102076
3746.60806,-0.0102380
3745.64369,-0.0102458
3744.67931,-0.0104345
3743.71493,-0.0107328
3742.75055,-0.0109299
3741.78618,-0.0111589
3740.82180,-0.0114561
3739.85742,-0.0117843
3738.89304,-0.0119504
3737.92866,-0.0116796
3736.96429,-0.0112520
3735.99991,-0.0109424
3735.03553,-0.0108195
3734.07115,-0.0109178
3733.10677,-0.0112307
3732.14240,-0.0116225
3731.17802,-0.0118606
3730.21364,-0.0119443
3729.24926,-0.0119442
3728.28488,-0.0119246
3727.32051,-0.0119629
3726.35613,-0.0119571
3725.39175,-0.0118353
3724.42737,-0.0117066
3723.46300,-0.0116745
3722.49862,-0.0117526
3721.53424,-0.0119296
3720.56986,-0.0120435
3719.60548,-0.0120647
3718.64111,-0.0121984
3717.67673,-0.0122541
3716.71235,-0.0120653
3715.74797,-0.0118483
3714.78359,-0.0116785
3713.81922,-0.0114569
3712.85484,-0.0111968
3711.89046,-0.0110634
3710.92608,-0.0110746
3709.96171,-0.0111423
3708.99733,-0.0112452
3708.03295,-0.0114272
3707.06857,-0.0116539
3706.10419,-0.0117049
3705.13982,-0.0116338
3704.17544,-0.0116466
3703.21106,-0.0116858
3702.24668,-0.0116899
3701.28230,-0.0117409
3700.31793,-0.0118635
3699.35355,-0.0119613
3698.38917,-0.0120681
3697.42479,-0.0121854
3696.46041,-0.0121635
3695.49604,-0.0120403
3694.53166,-0.0119058
3693.56728,-0.0116274
3692.60290,-0.0111806
3691.63853,-0.0107703
3690.67415,-0.0104651
3689.70977,-0.0103166
3688.74539,-0.0103521
3687.78101,-0.0105059
3686.81664,-0.0108481
3685.85226,-0.0112174
3684.88788,-0.0114484
3683.92350,-0.0117180
3682.95912,-0.0120360
3681.99475,-0.0121350
3681.03037,-0.0118915
3680.06599,-0.0114835
3679.10161,-0.0110870
3678.13724,-0.0108933
3677.17286,-0.0108907
3676.20848,-0.0107986
3675.24410,-0.0106499
3674.27972,-0.0105210
3673.31535,-0.0104316
3672.35097,-0.0105548
3671.38659,-0.0108661
3670.42221,-0.0111017
3669.45783,-0.0111393
3668.49346,-0.0111550
3667.52908,-0.0112948
3666.56470,-0.0115721
3665.60032,-0.0118083
3664.63594,-0.0118103
3663.67157,-0.0117916
3662.70719,-0.0118617
3661.74281,-0.0118154
3660.77843,-0.0116999
3659.81406,-0.0116192
3658.84968,-0.0115248
3657.88530,-0.0114452
3656.92092,-0.0113756
3655.95654,-0.0112986
3654.99217,-0.0111875
3654.02779,-0.0109931
3653.06341,-0.0107887
3652.09903,-0.0106012
3651.13465,-0.0103969
3650.17028,-0.0102021
3649.20590,-0.0101704
3648.24152,-0.0103397
3647.27714,-0.0105482
3646.31276,-0.0107945
3645.34839,-0.0110659
3644.38401,-0.0112822
3643.41963,-0.0114063
3642.45525,-0.0113790
3641.49088,-0.0112556
3640.52650,-0.0111067
3639.56212,-0.0110108
3638.59774,-0.0110074
3637.63336,-0.0110349
3636.66899,-0.0111145
3635.70461,-0.0112589
3634.74023,-0.0113166
3633.77585,-0.0111098
3632.81147,-0.0106789
3631.84710,-0.0102248
3630.88272,-0.0098551
3629.91834,-0.0096033
3628.95396,-0.0094857
3627.98959,-0.0094487
3627.02521,-0.0095227
3626.06083,-0.0097976
3625.09645,-0.0102106
3624.13207,-0.0105632
3623.16770,-0.0106342
3622.20332,-0.0104384
3621.23894,-0.0102112
3620.27456,-0.0100869
3619.31018,-0.0100548
3618.34581,-0.0100235
3617.38143,-0.0099792
3616.41705,-0.0100599
3615.45267,-0.0103054
3614.48829,-0.0105390
3613.52392,-0.0106216
3612.55954,-0.0105491
3611.59516,-0.0104079
3610.63078,-0.0103331
3609.66641,-0.0103376
3608.70203,-0.0103152
3607.73765,-0.0102215
3606.77327,-0.0101147
3605.80889,-0.0100655
3604.84452,-0.0101500
3603.88014,-0.0102930
3602.91576,-0.0103950
3601.95138,-0.0105569
3600.98700,-0.0106871
3600.02263,-0.0107323
3599.05825,-0.0107788
3598.09387,-0.0107024
3597.12949,-0.0104901
3596.16512,-0.0103019
3595.20074,-0.0101838
3594.23636,-0.0100163
3593.27198,-0.0098271
3592.30760,-0.0096793
3591.34323,-0.0095585
3590.37885,-0.0095448
3589.41447,-0.0095446
3588.45009,-0.0095481
3587.48571,-0.0096065
3586.52134,-0.0096546
3585.55696,-0.0097827
3584.59258,-0.0100347
3583.62820,-0.0102829
3582.66382,-0.0103847
3581.69945,-0.0104043
3580.73507,-0.0103513
3579.77069,-0.0102154
3578.80631,-0.0101685
3577.84194,-0.0101947
3576.87756,-0.0102244
3575.91318,-0.0102325
3574.94880,-0.0102609
3573.98442,-0.0103012
3573.02005,-0.0102642
3572.05567,-0.0101854
3571.09129,-0.0100304
3570.12691,-0.0098299
3569.16253,-0.0096169
3568.19816,-0.0094374
3567.23378,-0.0093796
3566.26940,-0.0093798
3565.30502,-0.0094412
3564.34065,-0.0095594
3563.37627,-0.0097213
3562.41189,-0.0098805
3561.44751,-0.0099933
3560.48313,-0.0101171
3559.51876,-0.0102254
3558.55438,-0.0102926
3557.59000,-0.0102830
3556.62562,-0.0102352
3555.66124,-0.0101916
3554.69687,-0.0101553
3553.73249,-0.0101773
3552.76811,-0.0101453
3551.80373,-0.0100297
3550.83935,-0.0099176
3549.87498,-0.0098008
3548.91060,-0.0096944
3547.94622,-0.0096141
3546.98184,-0.0095336
3546.01747,-0.0094868
3545.05309,-0.0095313
3544.08871,-0.0096349
3543.12433,-0.0097788
3542.15995,-0.0098806
3541.19558,-0.0098582
3540.23120,-0.0097894
3539.26682,-0.0097231
3538.30244,-0.0096686
3537.33806,-0.0096322
3536.37369,-0.0096397
3535.40931,-0.0097153
3534.44493,-0.0098365
3533.48055,-0.0099490
3532.51618,-0.0099982
3531.55180,-0.0100001
3530.58742,-0.0099285
3529.62304,-0.0098033
3528.65866,-0.0096829
3527.69429,-0.0095684
3526.72991,-0.0095217
3525.76553,-0.0095472
3524.80115,-0.0095963
3523.83677,-0.0096133
3522.87240,-0.0095731
3521.90802,-0.0095212
3520.94364,-0.0094691
3519.97926,-0.0094212
3519.01488,-0.0093756
3518.05051,-0.0093456
3517.08613,-0.0093181
3516.12175,-0.0093097
3515.15737,-0.0094012
3514.19300,-0.0094959
3513.22862,-0.0095136
3512.26424,-0.0095334
3511.29986,-0.0095704
3510.33548,-0.0096060
3509.37111,-0.0096364
3508.40673,-0.0096291
3507.44235,-0.0095697
3506.47797,-0.0094843
3505.51359,-0.0093819
3504.54922,-0.0093112
3503.58484,-0.0092931
3502.62046,-0.0092477
3501.65608,-0.0092231
3500.69171,-0.0092687
3499.72733,-0.0093037
3498.76295,-0.0093252
3497.79857,-0.0093670
3496.83419,-0.0094091
3495.86982,-0.0094033
3494.90544,-0.0093645
3493.94106,-0.0093431
3492.97668,-0.0093238
3492.01230,-0.0092988
3491.04793,-0.0092718
3490.08355,-0.0092380
3489.11917,-0.0091757
3488.15479,-0.0090800
3487.19041,-0.0090168
3486.22604,-0.0090428
3485.26166,-0.0091455
3484.29728,-0.0092618
3483.33290,-0.0093611
3482.36853,-0.0094471
3481.40415,-0.0095133
3480.43977,-0.0095436
3479.47539,-0.0095114
3478.51101,-0.0094305
3477.54664,-0.0093339
3476.58226,-0.0092317
3475.61788,-0.0091348
3474.65350,-0.0090651
3473.68912,-0.0090387
3472.72475,-0.0090555
3471.76037,-0.0090814
3470.79599,-0.0090985
3469.83161,-0.0091269
3468.86724,-0.0091053
3467.90286,-0.0090039
3466.93848,-0.0088967
3465.97410,-0.0088182
3465.00972,-0.0087560
3464.04535,-0.0086884
3463.08097,-0.0086294
3462.11659,-0.0085882
3461.15221,-0.0085748
3460.18783,-0.0086082
3459.22346,-0.0086468
3458.25908,-0.0086588
3457.29470,-0.0086362
3456.33032,-0.0085902
3455.36594,-0.0085429
3454.40157,-0.0085218
3453.43719,-0.0085612
3452.47281,-0.0086240
3451.50843,-0.0086344
3450.54406,-0.0086017
3449.57968,-0.0086092
3448.61530,-0.0086656
3447.65092,-0.0087131
3446.68654,-0.0087147
3445.72217,-0.0086998
3444.75779,-0.0087005
3443.79341,-0.0086529
3442.82903,-0.0085421
3441.86465,-0.0084254
3440.90028,-0.0083300
3439.93590,-0.0082548
3438.97152,-0.0082416
3438.00714,-0.0082904
3437.04276,-0.0083183
3436.07839,-0.0083365
3435.11401,-0.0083313
3434.14963,-0.0083337
3433.18525,-0.0083868
3432.22088,-0.0083847
3431.25650,-0.0083460
3430.29212,-0.0083296
3429.32774,-0.0083517
3428.36336,-0.0084051
3427.39899,-0.0084479
3426.43461,-0.0084725
3425.47023,-0.0084454
3424.50585,-0.0084015
3423.54147,-0.0083817
3422.57710,-0.0084112
3421.61272,-0.0084745
3420.64834,-0.0085237
3419.68396,-0.0086030
3418.71959,-0.0086756
3417.75521,-0.0086980
3416.79083,-0.0086512
3415.82645,-0.0085496
3414.86207,-0.0084914
3413.89770,-0.0084615
3412.93332,-0.0084386
3411.96894,-0.0084332
3411.00456,-0.0084336
3410.04018,-0.0084448
3409.07581,-0.0084707
3408.11143,-0.0084857
3407.14705,-0.0084295
3406.18267,-0.0083319
3405.21829,-0.0082367
3404.25392,-0.0081465
3403.28954,-0.0080965
3402.32516,-0.0080991
3401.36078,-0.0081080
3400.39641,-0.0081119
3399.43203,-0.0081567
3398.46765,-0.0081939
3397.50327,-0.0081896
3396.53889,-0.0081565
3395.57452,-0.0080945
3394.61014,-0.0080587
3393.64576,-0.0080306
3392.68138,-0.0079949
3391.71700,-0.0079910
3390.75263,-0.0079812
3389.78825,-0.0079207
3388.82387,-0.0078879
3387.85949,-0.0079313
3386.89512,-0.0079136
3385.93074,-0.0078385
3384.96636,-0.0078113
3384.00198,-0.0078022
3383.03760,-0.0077867
3382.07323,-0.0077753
3381.10885,-0.0078122
3380.14447,-0.0078393
3379.18009,-0.0077858
3378.21571,-0.0077470
3377.25134,-0.0077839
3376.28696,-0.0078447
3375.32258,-0.0078385
3374.35820,-0.0077957
3373.39382,-0.0077854
3372.42945,-0.0077910
3371.46507,-0.0078244
3370.50069,-0.0079002
3369.53631,-0.0080025
3368.57194,-0.0080428
3367.60756,-0.0080139
3366.64318,-0.0079952
3365.67880,-0.0079604
3364.71442,-0.0079006
3363.75005,-0.0078425
3362.78567,-0.0078237
3361.82129,-0.0078194
3360.85691,-0.0077812
3359.89253,-0.0077637
3358.92816,-0.0077921
3357.96378,-0.0078536
3356.99940,-0.0078608
3356.03502,-0.0077849
3355.07065,-0.0077140
3354.10627,-0.0076604
3353.14189,-0.0076525
3352.17751,-0.0076843
3351.21313,-0.0077158
3350.24876,-0.0077122
3349.28438,-0.0076628
3348.32000,-0.0076641
3347.35562,-0.0077270
3346.39124,-0.0078027
3345.42687,-0.0078343
3344.46249,-0.0077802
3343.49811,-0.0077086
3342.53373,-0.0076465
3341.56935,-0.0075713
3340.60498,-0.0074736
3339.64060,-0.0073759
3338.67622,-0.0072963
3337.71184,-0.0072587
3336.74747,-0.0073173
3335.78309,-0.0074072
3334.81871,-0.0074649
3333.85433,-0.0074879
3332.88995,-0.0074596
3331.92558,-0.0074284
3330.96120,-0.0074072
3329.99682,-0.0073632
3329.03244,-0.0073215
3328.06806,-0.0072875
3327.10369,-0.0072232
3326.13931,-0.0071710
3325.17493,-0.0071726
3324.21055,-0.0071684
3323.24618,-0.0071504
3322.28180,-0.0071442
3321.31742,-0.0071474
3320.35304,-0.0071644
3319.38866,-0.0071787
3318.42429,-0.0071854
3317.45991,-0.0071991
3316.49553,-0.0071943
3315.53115,-0.0071389
3314.56677,-0.0070956
3313.60240,-0.0070852
3312.63802,-0.0070543
3311.67364,-0.0070480
3310.70926,-0.0070792
3309.74488,-0.0071058
3308.78051,-0.0071262
3307.81613,-0.0071169
3306.85175,-0.0070898
3305.88737,-0.0070873
3304.92300,-0.0070792
3303.95862,-0.0070554
3302.99424,-0.0070694
3302.02986,-0.0070844
3301.06548,-0.0070653
3300.10111,-0.0070693
3299.13673,-0.0071000
3298.17235,-0.0071299
3297.20797,-0.0071294
3296.24359,-0.0070738
3295.27922,-0.0070031
3294.31484,-0.0069507
3293.35046,-0.0068816
3292.38608,-0.0067891
3291.42171,-0.0067089
3290.45733,-0.0066289
3289.49295,-0.0065882
3288.52857,-0.0066334
3287.56419,-0.0067005
3286.59982,-0.0067651
3285.63544,-0.0068374
3284.67106,-0.0068896
3283.70668,-0.0069078
3282.74230,-0.0068770
3281.77793,-0.0067977
3280.81355,-0.0067322
3279.84917,-0.0067130
3278.88479,-0.0067052
3277.92041,-0.0067113
3276.95604,-0.0067147
3275.99166,-0.0066667
3275.02728,-0.0066169
3274.06290,-0.0066083
3273.09853,-0.0066053
3272.13415,-0.0065846
3271.16977,-0.0065195
3270.20539,-0.0064428
3269.24101,-0.0064404
3268.27664,-0.0064777
3267.31226,-0.0064571
3266.34788,-0.0063810
3265.38350,-0.0063372
3264.41912,-0.0063360
3263.45475,-0.0063325
3262.49037,-0.0063806
3261.52599,-0.0064865
3260.56161,-0.0065587
3259.59724,-0.0065952
3258.63286,-0.0066442
3257.66848,-0.0066807
3256.70410,-0.0066451
3255.73972,-0.0065408
3254.77535,-0.0064431
3253.81097,-0.0063887
3252.84659,-0.0063319
3251.88221,-0.0062656
3250.91783,-0.0062318
3249.95346,-0.0062233
3248.98908,-0.0062241
3248.02470,-0.0062509
3247.06032,-0.0062850
3246.09594,-0.0062817
3245.13157,-0.0062509
3244.16719,-0.0062349
3243.20281,-0.0062594
3242.23843,-0.0062860
3241.27406,-0.0062780
3240.30968,-0.0062490
3239.34530,-0.0061942
3238.38092,-0.0061567
3237.41654,-0.0061663
3236.45217,-0.0061901
3235.48779,-0.0061946
3234.52341,-0.0061681
3233.55903,-0.0061400
3232.59465,-0.0061032
3231.63028,-0.0060756
3230.66590,-0.0060511
3229.70152,-0.0059917
3228.73714,-0.0059311
3227.77276,-0.0058871
3226.80839,-0.0059075
3225.84401,-0.0059656
3224.87963,-0.0059689
3223.91525,-0.0059263
3222.95088,-0.0058902
3221.98650,-0.0058884
3221.02212,-0.0058889
3220.05774,-0.0058906
3219.09336,-0.0058742
3218.12899,-0.0058399
3217.16461,-0.0058505
3216.20023,-0.0058784
3215.23585,-0.0058994
3214.27147,-0.0058730
3213.30710,-0.0057924
3212.34272,-0.0057624
3211.37834,-0.0057882
3210.41396,-0.0058149
3209.44959,-0.0058459
3208.48521,-0.0058461
3207.52083,-0.0057967
3206.55645,-0.0057747
3205.59207,-0.0057839
3204.62770,-0.0057745
3203.66332,-0.0057454
3202.69894,-0.0057183
3201.73456,-0.0057293
3200.77018,-0.0057556
3199.80581,-0.0057658
3198.84143,-0.0057875
3197.87705,-0.0058386
3196.91267,-0.0058706
3195.94829,-0.0058751
3194.98392,-0.0058861
3194.01954,-0.0058888
3193.05516,-0.0059100
3192.09078,-0.0059220
3191.12641,-0.0058998
3190.16203,-0.0058904
3189.19765,-0.0058694
3188.23327,-0.0058412
3187.26889,-0.0058381
3186.30452,-0.0058495
3185.34014,-0.0058382
3184.37576,-0.0057954
3183.41138,-0.0057436
3182.44700,-0.0057144
3181.48263,-0.0057188
3180.51825,-0.0056765
3179.55387,-0.0056035
3178.58949,-0.0055682
3177.62512,-0.0055525
3176.66074,-0.0055516
3175.69636,-0.0055646
3174.73198,-0.0055974
3173.76760,-0.0056392
3172.80323,-0.0056732
3171.83885,-0.0057073
3170.87447,-0.0057595
3169.91009,-0.0057987
3168.94571,-0.0057770
3167.98134,-0.0057297
3167.01696,-0.0056547
3166.05258,-0.0055673
3165.08820,-0.0055065
3164.12382,-0.0054485
3163.15945,-0.0054334
3162.19507,-0.0054748
3161.23069,-0.0055232
3160.26631,-0.0055836
3159.30194,-0.0056387
3158.33756,-0.0056264
3157.37318,-0.0055812
3156.40880,-0.0055667
3155.44442,-0.0055499
3154.48005,-0.0055196
3153.51567,-0.0054998
3152.55129,-0.0054903
3151.58691,-0.0054995
3150.62253,-0.0055308
3149.65816,-0.0055582
3148.69378,-0.0055569
3147.72940,-0.0055085
3146.76502,-0.0054007
3145.80065,-0.0052793
3144.83627,-0.0051992
3143.87189,-0.0051450
3142.90751,-0.0050727
3141.94313,-0.0050246
3140.97876,-0.0050347
3140.01438,-0.0050514
3139.05000,-0.0050931
3138.08562,-0.0051566
3137.12124,-0.0052097
3136.15687,-0.0052626
3135.19249,-0.0052693
3134.22811,-0.0052317
3133.26373,-0.0052129
3132.29935,-0.0052095
3131.33498,-0.0051786
3130.37060,-0.0051617
3129.40622,-0.0051747
3128.44184,-0.0051527
3127.47747,-0.0051385
3126.51309,-0.0051435
3125.54871,-0.0051257
3124.58433,-0.0051057
3123.61995,-0.0050727
3122.65558,-0.0050455
3121.69120,-0.0050620
3120.72682,-0.0050995
3119.76244,-0.0051394
3118.79806,-0.0051928
3117.83369,-0.0052231
3116.86931,-0.0051900
3115.90493,-0.0051249
3114.94055,-0.0050275
3113.97618,-0.0049169
3113.01180,-0.0048354
3112.04742,-0.0047701
3111.08304,-0.0047551
3110.11866,-0.0048072
3109.15429,-0.0048829
3108.18991,-0.0049636
3107.22553,-0.0050285
3106.26115,-0.0050480
3105.29677,-0.0050202
3104.33240,-0.0049677
3103.36802,-0.0049146
3102.40364,-0.0048795
3101.43926,-0.0048498
3100.47488,-0.0048251
3099.51051,-0.0048333
3098.54613,-0.0048411
3097.58175,-0.0048283
3096.61737,-0.0048187
3095.65300,-0.0048168
3094.68862,-0.0048259
3093.72424,-0.0048313
3092.75986,-0.0048357
3091.79548,-0.0048459
3090.83111,-0.0048507
3089.86673,-0.0048661
3088.90235,-0.0048740
3087.93797,-0.0048422
3086.97359,-0.0048077
3086.00922,-0.0048158
3085.04484,-0.0048352
3084.08046,-0.0048252
3083.11608,-0.0047950
3082.15171,-0.0047633
3081.18733,-0.0047498
3080.22295,-0.0047362
3079.25857,-0.0047135
3078.29419,-0.0047217
3077.32982,-0.0047311
3076.36544,-0.0047219
3075.40106,-0.0047453
3074.43668,-0.0047596
3073.47230,-0.0046944
3072.50793,-0.0045858
3071.54355,-0.0045076
3070.57917,-0.0044845
3069.61479,-0.0044691
3068.65041,-0.0044334
3067.68604,-0.0044200
3066.72166,-0.0044542
3065.75728,-0.0045242
3064.79290,-0.0046090
3063.82853,-0.0046575
3062.86415,-0.0046309
3061.89977,-0.0046017
3060.93539,-0.0046304
3059.97101,-0.0046677
3059.00664,-0.0046806
3058.04226,-0.0046553
3057.07788,-0.0045995
3056.11350,-0.0045428
3055.14912,-0.0044993
3054.18475,-0.0044781
3053.22037,-0.0044331
3052.25599,-0.0043539
3051.29161,-0.0043099
3050.32724,-0.0043326
3049.36286,-0.0043893
3048.39848,-0.0044373
3047.43410,-0.0044754
3046.46972,-0.0045014
3045.50535,-0.0045144
3044.54097,-0.0045389
3043.57659,-0.0045714
3042.61221,-0.0045794
3041.64783,-0.0045473
3040.68346,-0.0045056
3039.71908,-0.0044757
3038.75470,-0.0044373
3037.79032,-0.0043875
3036.82594,-0.0043526
3035.86157,-0.0043234
3034.89719,-0.0042730
3033.93281,-0.0042402
3032.96843,-0.0042538
3032.00406,-0.0042756
3031.03968,-0.0042934
3030.07530,-0.0043182
3029.11092,-0.0043537
3028.14654,-0.0044055
3027.18217,-0.0044425
3026.21779,-0.0044490
3025.25341,-0.0044498
3024.28903,-0.0044342
3023.32465,-0.0044088
3022.36028,-0.0043977
3021.39590,-0.0043865
3020.43152,-0.0043659
3019.46714,-0.0043561
3018.50276,-0.0043704
3017.53839,-0.0043824
3016.57401,-0.0043829
3015.60963,-0.0043701
3014.64525,-0.0043288
3013.68088,-0.0042670
3012.71650,-0.0042092
3011.75212,-0.0041698
3010.78774,-0.0041246
3009.82336,-0.0040887
3008.85899,-0.0040866
3007.89461,-0.0041059
3006.93023,-0.0041364
3005.96585,-0.0041329
3005.00147,-0.0041202
3004.03710,-0.0041370
3003.07272,-0.0041420
3002.10834,-0.0041367
3001.14396,-0.0041383
3000.17959,-0.0041399
2999.21521,-0.0041391
2998.25083,-0.0041518
2997.28645,-0.0041795
2996.32207,-0.0042027
2995.35770,-0.0041950
2994.39332,-0.0041339
2993.42894,-0.0040667
2992.46456,-0.0040115
2991.50018,-0.0039334
2990.53581,-0.0038552
2989.57143,-0.0038142
2988.60705,-0.0037987
2987.64267,-0.0037828
2986.67829,-0.0037888
2985.71392,-0.0038233
2984.74954,-0.0038591
2983.78516,-0.0038716
2982.82078,-0.0038523
2981.85641,-0.0038198
2980.89203,-0.0037779
2979.92765,-0.0037481
2978.96327,-0.0037399
2977.99889,-0.0037448
2977.03452,-0.0037546
2976.07014,-0.0037523
2975.10576,-0.0037717
2974.14138,-0.0038070
2973.17700,-0.0038261
2972.21263,-0.0038254
2971.24825,-0.0037893
2970.28387,-0.0037434
2969.31949,-0.0037170
2968.35512,-0.0037084
2967.39074,-0.0036914
2966.42636,-0.0036531
2965.46198,-0.0035956
2964.49760,-0.0035146
2963.53323,-0.0034313
2962.56885,-0.0033556
2961.60447,-0.0033060
2960.64009,-0.0032810
2959.67571,-0.0032655
2958.71134,-0.0032711
2957.74696,-0.0032699
2956.78258,-0.0032620
2955.81820,-0.0032753
2954.85382,-0.0032926
2953.88945,-0.0032846
2952.92507,-0.0032630
2951.96069,-0.0032499
2950.99631,-0.0032530
2950.03194,-0.0032783
2949.06756,-0.0032825
2948.10318,-0.0032754
2947.13880,-0.0032807
2946.17442,-0.0032566
2945.21005,-0.0032193
2944.24567,-0.0031849
2943.28129,-0.0031537
2942.31691,-0.0031118
2941.35253,-0.0030515
2940.38816,-0.0029996
2939.42378,-0.0029355
2938.45940,-0.0028525
2937.49502,-0.0027597
2936.53065,-0.0026890
2935.56627,-0.0026512
2934.60189,-0.0026002
2933.63751,-0.0025404
2932.67313,-0.0024716
2931.70876,-0.0023922
2930.74438,-0.0023123
2929.78000,-0.0022460
2928.81562,-0.0022005
2927.85124,-0.0021468
2926.88687,-0.0021030
2925.92249,-0.0020848
2924.95811,-0.0020864
2923.99373,-0.0021075
2923.02935,-0.0021555
2922.06498,-0.0022301
2921.10060,-0.0022782
2920.13622,-0.0023192
2919.17184,-0.0024025
2918.20747,-0.0024881
2917.24309,-0.0025403
2916.27871,-0.0025801
2915.31433,-0.0026325
2914.34995,-0.0026867
2913.38558,-0.0027226
2912.42120,-0.0027455
2911.45682,-0.0027844
2910.49244,-0.0028072
2909.52806,-0.0028093
2908.56369,-0.0028553
2907.59931,-0.0028969
2906.63493,-0.0028963
2905.67055,-0.0029042
2904.70618,-0.0029301
2903.74180,-0.0029596
2902.77742,-0.0029859
2901.81304,-0.0030062
2900.84866,-0.0030191
2899.88429,-0.0030238
2898.91991,-0.0030074
2897.95553,-0.0029852
2896.99115,-0.0029684
2896.02677,-0.0029336
2895.06240,-0.0029132
2894.09802,-0.0029311
2893.13364,-0.0029677
2892.16926,-0.0030095
2891.20488,-0.0030439
2890.24051,-0.0030660
2889.27613,-0.0030722
2888.31175,-0.0030687
2887.34737,-0.0030603
2886.38300,-0.0030402
2885.41862,-0.0030260
2884.45424,-0.0030458
2883.48986,-0.0030842
2882.52548,-0.0031320
2881.56111,-0.0031905
2880.59673,-0.0032225
2879.63235,-0.0032170
2878.66797,-0.0031839
2877.70359,-0.0031521
2876.73922,-0.0031366
2875.77484,-0.0031029
2874.81046,-0.0030592
2873.84608,-0.0030375
2872.88171,-0.0030458
2871.91733,-0.0030545
2870.95295,-0.0030472
2869.98857,-0.0030373
2869.02419,-0.0030075
2868.05982,-0.0029715
2867.09544,-0.0029510
2866.13106,-0.0029327
2865.16668,-0.0028928
2864.20230,-0.0028242
2863.23793,-0.0027690
2862.27355,-0.0027416
2861.30917,-0.0027152
2860.34479,-0.0026706
2859.38041,-0.0026107
2858.41604,-0.0025557
2857.45166,-0.0025041
2856.48728,-0.0024680
2855.52290,-0.0024634
2854.55853,-0.0024641
2853.59415,-0.0024649
2852.62977,-0.0024905
2851.66539,-0.0025518
2850.70101,-0.0026385
2849.73664,-0.0027094
2848.77226,-0.0027492
2847.80788,-0.0027804
2846.84350,-0.0028110
2845.87912,-0.0028277
2844.91475,-0.0028269
2843.95037,-0.0028328
2842.98599,-0.0028500
2842.02161,-0.0028791
2841.05724,-0.0029231
2840.09286,-0.0029755
2839.12848,-0.0030359
2838.16410,-0.0030749
2837.19972,-0.0031008
2836.23535,-0.0031320
2835.27097,-0.0031401
2834.30659,-0.0031200
2833.34221,-0.0030935
2832.37783,-0.0030771
2831.41346,-0.0030580
2830.44908,-0.0030300
2829.48470,-0.0029945
2828.52032,-0.0029755
2827.55594,-0.0029989
2826.59157,-0.0030323
2825.62719,-0.0030829
2824.66281,-0.0031418
2823.69843,-0.0031657
2822.73406,-0.0031699
2821.76968,-0.0031759
2820.80530,-0.0031782
2819.84092,-0.0031413
2818.87654,-0.0030659
2817.91217,-0.0029962
2816.94779,-0.0029672
2815.98341,-0.0029764
2815.01903,-0.0029913
2814.05465,-0.0030096
2813.09028,-0.0030232
2812.12590,-0.0030367
2811.16152,-0.0030547
2810.19714,-0.0030468
2809.23276,-0.0030238
2808.26839,-0.0030072
2807.30401,-0.0030065
2806.33963,-0.0030466
2805.37525,-0.0031236
2804.41088,-0.0031937
2803.44650,-0.0032493
2802.48212,-0.0032989
2801.51774,-0.0033269
2800.55336,-0.0033424
2799.58899,-0.0033192
2798.62461,-0.0032323
2797.66023,-0.0031451
2796.69585,-0.0030985
2795.73147,-0.0030685
2794.76710,-0.0030558
2793.80272,-0.0030675
2792.83834,-0.0030790
2791.87396,-0.0031007
2790.90959,-0.0031325
2789.94521,-0.0031369
2788.98083,-0.0031242
2788.01645,-0.0031101
2787.05207,-0.0030996
2786.08770,-0.0031004
2785.12332,-0.0030970
2784.15894,-0.0030842
2783.19456,-0.0030873
2782.23018,-0.0031091
2781.26581,-0.0031141
2780.30143,-0.0031037
2779.33705,-0.0030933
2778.37267,-0.0030732
2777.40829,-0.0030617
2776.44392,-0.0030652
2775.47954,-0.0030657
2774.51516,-0.0030632
2773.55078,-0.0030518
2772.58641,-0.0030388
2771.62203,-0.0030341
2770.65765,-0.0030222
2769.69327,-0.0030071
2768.72889,-0.0030077
2767.76452,-0.0030164
2766.80014,-0.0030185
2765.83576,-0.0030185
2764.87138,-0.0030111
2763.90700,-0.0030017
2762.94263,-0.0030138
2761.97825,-0.0030307
2761.01387,-0.0030482
2760.04949,-0.0030819
2759.08512,-0.0031210
2758.12074,-0.0031534
2757.15636,-0.0031702
2756.19198,-0.0031665
2755.22760,-0.0031384
2754.26323,-0.0031026
2753.29885,-0.0030760
2752.33447,-0.0030545
2751.37009,-0.0030411
2750.40571,-0.0030257
2749.44134,-0.0030144
2748.47696,-0.0030215
2747.51258,-0.0030253
2746.54820,-0.0030253
2745.58382,-0.0030301
2744.61945,-0.0030178
2743.65507,-0.0030008
2742.69069,-0.0030084
2741.72631,-0.0030212
2740.76194,-0.0030204
2739.79756,-0.0030024
2738.83318,-0.0029634
2737.86880,-0.0029250
2736.90442,-0.0029085
2735.94005,-0.0029114
2734.97567,-0.0029245
2734.01129,-0.0029293
2733.04691,-0.0029171
2732.08253,-0.0029250
2731.11816,-0.0029553
2730.15378,-0.0029720
2729.18940,-0.0029814
2728.22502,-0.0029875
2727.26065,-0.0029884
2726.29627,-0.0029885
2725.33189,-0.0029935
2724.36751,-0.0029992
2723.40313,-0.0029940
2722.43876,-0.0029836
2721.47438,-0.0029577
2720.51000,-0.0029426
2719.54562,-0.0029581
2718.58124,-0.0029611
2717.61687,-0.0029477
2716.65249,-0.0029354
2715.68811,-0.0029250
2714.72373,-0.0029149
2713.75935,-0.0029084
2712.79498,-0.0029008
2711.83060,-0.0028874
2710.86622,-0.0028734
2709.90184,-0.0028599
2708.93747,-0.0028713
2707.97309,-0.0029053
2707.00871,-0.0029330
2706.04433,-0.0029444
2705.07995,-0.0029393
2704.11558,-0.0029357
2703.15120,-0.0029371
2702.18682,-0.0029372
2701.22244,-0.0029298
2700.25806,-0.0029109
2699.29369,-0.0028829
2698.32931,-0.0028505
2697.36493,-0.0028167
2696.40055,-0.0027845
2695.43618,-0.0027855
2694.47180,-0.0028062
2693.50742,-0.0028156
2692.54304,-0.0028295
2691.57866,-0.0028503
2690.61429,-0.0028807
2689.64991,-0.0029058
2688.68553,-0.0029115
2687.72115,-0.0029052
2686.75677,-0.0028807
2685.79240,-0.0028442
2684.82802,-0.0028181
2683.86364,-0.0028220
2682.89926,-0.0028430
2681.93488,-0.0028566
2680.97051,-0.0028587
2680.00613,-0.0028487
2679.04175,-0.0028215
2678.07737,-0.0027865
2677.11300,-0.0027620
2676.14862,-0.0027340
2675.18424,-0.0026992
2674.21986,-0.0026813
2673.25548,-0.0026870
2672.29111,-0.0027165
2671.32673,-0.0027663
2670.36235,-0.0028171
2669.39797,-0.0028534
2668.43359,-0.0028745
2667.46922,-0.0028782
2666.50484,-0.0028802
2665.54046,-0.0028830
2664.57608,-0.0028606
2663.61171,-0.0028238
2662.64733,-0.0027882
2661.68295,-0.0027570
2660.71857,-0.0027449
2659.75419,-0.0027528
2658.78982,-0.0027654
2657.82544,-0.0027785
2656.86106,-0.0027916
2655.89668,-0.0027939
2654.93230,-0.0027867
2653.96793,-0.0027617
2653.00355,-0.0027223
2652.03917,-0.0026909
2651.07479,-0.0026716
2650.11041,-0.0026729
2649.14604,-0.0027014
2648.18166,-0.0027525
2647.21728,-0.0028072
2646.25290,-0.0028450
2645.28853,-0.0028479
2644.32415,-0.0028077
2643.35977,-0.0027480
2642.39539,-0.0026856
2641.43101,-0.0026406
2640.46664,-0.0026253
2639.50226,-0.0026303
2638.53788,-0.0026446
2637.57350,-0.0026700
2636.60912,-0.0027161
2635.64475,-0.0027580
2634.68037,-0.0027806
2633.71599,-0.0027723
2632.75161,-0.0027230
2631.78724,-0.0026623
2630.82286,-0.0026266
2629.85848,-0.0026182
2628.89410,-0.0026043
2627.92972,-0.0025824
2626.96535,-0.0025431
2626.00097,-0.0024985
2625.03659,-0.0024850
2624.07221,-0.0024835
2623.10783,-0.0024962
2622.14346,-0.0025063
2621.17908,-0.0024935
2620.21470,-0.0024826
2619.25032,-0.0025089
2618.28594,-0.0025791
2617.32157,-0.0026341
2616.35719,-0.0026559
2615.39281,-0.0026644
2614.42843,-0.0026728
2613.46406,-0.0026660
2612.49968,-0.0026234
2611.53530,-0.0025916
2610.57092,-0.0025978
2609.60654,-0.0026016
2608.64217,-0.0025578
2607.67779,-0.0025147
2606.71341,-0.0025141
2605.74903,-0.0025306
2604.78465,-0.0025671
2603.82028,-0.0026102
2602.85590,-0.0026529
2601.89152,-0.0026830
2600.92714,-0.0027131
2599.96276,-0.0027712
2598.99839,-0.0028179
2598.03401,-0.0027996
2597.06963,-0.0027065
2596.10525,-0.0026090
2595.14088,-0.0025347
2594.17650,-0.0024950
2593.21212,-0.0025005
2592.24774,-0.0024997
2591.28336,-0.0025209
2590.31899,-0.0025859
2589.35461,-0.0026354
2588.39023,-0.0026204
2587.42585,-0.0025696
2586.46147,-0.0025085
2585.49710,-0.0024155
2584.53272,-0.0023229
2583.56834,-0.0022464
2582.60396,-0.0022209
2581.63959,-0.0022490
2580.67521,-0.0022773
2579.71083,-0.0023404
2578.74645,-0.0024067
2577.78207,-0.0023989
2576.81770,-0.0023747
2575.85332,-0.0023857
2574.88894,-0.0023617
2573.92456,-0.0023112
2572.96018,-0.0023055
2571.99581,-0.0023191
2571.03143,-0.0023137
2570.06705,-0.0022705
2569.10267,-0.0022440
2568.13829,-0.0022864
2567.17392,-0.0023221
2566.20954,-0.0023004
2565.24516,-0.0022811
2564.28078,-0.0023039
2563.31641,-0.0023346
2562.35203,-0.0023751
2561.38765,-0.0024318
2560.42327,-0.0024702
2559.45889,-0.0024504
2558.49452,-0.0023749
2557.53014,-0.0023238
2556.56576,-0.0023235
2555.60138,-0.0023179
2554.63700,-0.0022766
2553.67263,-0.0022401
2552.70825,-0.0022262
2551.74387,-0.0021843
2550.77949,-0.0021276
2549.81512,-0.0021196
2548.85074,-0.0021557
2547.88636,-0.0021722
2546.92198,-0.0021433
2545.95760,-0.0021163
2544.99323,-0.0021842
2544.02885,-0.0023533
2543.06447,-0.0025177
2542.10009,-0.0026135
2541.13571,-0.0026341
2540.17134,-0.0026077
2539.20696,-0.0025653
2538.24258,-0.0025208
2537.27820,-0.0024723
2536.31382,-0.0024425
2535.34945,-0.0024291
2534.38507,-0.0023665
2533.42069,-0.0023275
2532.45631,-0.0023432
2531.49194,-0.0023220
2530.52756,-0.0022799
2529.56318,-0.0022561
2528.59880,-0.0022376
2527.63442,-0.0021930
2526.67005,-0.0021582
2525.70567,-0.0021867
2524.74129,-0.0022722
2523.77691,-0.0023230
2522.81253,-0.0022707
2521.84816,-0.0021895
2520.88378,-0.0021192
2519.91940,-0.0020601
2518.95502,-0.0019689
2517.99065,-0.0018766
2517.02627,-0.0018505
2516.06189,-0.0018146
2515.09751,-0.0018109
2514.13313,-0.0018929
2513.16876,-0.0020154
2512.20438,-0.0021029
2511.24000,-0.0021137
2510.27562,-0.0021272
2509.31124,-0.0021545
2508.34687,-0.0021410
2507.38249,-0.0020749
2506.41811,-0.0020521
2505.45373,-0.0020592
2504.48935,-0.0020238
2503.52498,-0.0020438
2502.56060,-0.0021155
2501.59622,-0.0022064
2500.63184,-0.0022650
2499.66747,-0.0022602
2498.70309,-0.0022750
2497.73871,-0.0022937
2496.77433,-0.0023117
2495.80995,-0.0023246
2494.84558,-0.0023026
2493.88120,-0.0022318
2492.91682,-0.0021344
2491.95244,-0.0020542
2490.98806,-0.0019500
2490.02369,-0.0018748
2489.05931,-0.0018695
2488.09493,-0.0018613
2487.13055,-0.0018617
2486.16618,-0.0019072
2485.20180,-0.0019705
2484.23742,-0.0020064
2483.27304,-0.0020181
2482.30866,-0.0020157
2481.34429,-0.0020106
2480.37991,-0.0020015
2479.41553,-0.0019584
2478.45115,-0.0019640
2477.48677,-0.0020607
2476.52240,-0.0021337
2475.55802,-0.0021665
2474.59364,-0.0021816
2473.62926,-0.0021712
2472.66488,-0.0021706
2471.70051,-0.0021463
2470.73613,-0.0021130
2469.77175,-0.0021040
2468.80737,-0.0020611
2467.84300,-0.0019877
2466.87862,-0.0019350
2465.91424,-0.0019275
2464.94986,-0.0019125
2463.98548,-0.0018756
2463.02111,-0.0018677
2462.05673,-0.0018978
2461.09235,-0.0019752
2460.12797,-0.0020639
2459.16359,-0.0021590
2458.19922,-0.0022344
2457.23484,-0.0022340
2456.27046,-0.0021948
2455.30608,-0.0021310
2454.34171,-0.0020894
2453.37733,-0.0020691
2452.41295,-0.0020097
2451.44857,-0.0019525
2450.48419,-0.0019364
2449.51982,-0.0019476
2448.55544,-0.0019470
2447.59106,-0.0019681
2446.62668,-0.0020179
2445.66230,-0.0020151
2444.69793,-0.0019809
2443.73355,-0.0019469
2442.76917,-0.0019212
2441.80479,-0.0019087
2440.84041,-0.0018961
2439.87604,-0.0019081
2438.91166,-0.0019248
2437.94728,-0.0019165
2436.98290,-0.0018929
2436.01853,-0.0019212
2435.05415,-0.0020149
2434.08977,-0.0020247
2433.12539,-0.0019485
2432.16101,-0.0018897
2431.19664,-0.0018494
2430.23226,-0.0018405
2429.26788,-0.0018357
2428.30350,-0.0017860
2427.33912,-0.0016881
2426.37475,-0.0015705
2425.41037,-0.0014917
2424.44599,-0.0014978
2423.48161,-0.0015363
2422.51724,-0.0015129
2421.55286,-0.0014942
2420.58848,-0.0015396
2419.62410,-0.0016170
2418.65972,-0.0017178
2417.69535,-0.0017820
2416.73097,-0.0017961
2415.76659,-0.0017992
2414.80221,-0.0017998
2413.83783,-0.0018347
2412.87346,-0.0019046
2411.90908,-0.0019249
2410.94470,-0.0018886
2409.98032,-0.0018423
2409.01594,-0.0017801
2408.05157,-0.0017576
2407.08719,-0.0017835
2406.12281,-0.0017857
2405.15843,-0.0017455
2404.19406,-0.0016992
2403.22968,-0.0016858
2402.26530,-0.0016837
2401.30092,-0.0016637
2400.33654,-0.0015869
2399.37217,-0.0014967
2398.40779,-0.0014667
2397.44341,-0.0014856
2396.47903,-0.0015564
2395.51465,-0.0016211
2394.55028,-0.0016633
2393.58590,-0.0016889
2392.62152,-0.0016798
2391.65714,-0.0016874
2390.69276,-0.0016707
2389.72839,-0.0015861
2388.76401,-0.0014692
2387.79963,-0.0013781
2386.83525,-0.0013311
2385.87088,-0.0012779
2384.90650,-0.0012190
2383.94212,-0.0011658
2382.97774,-0.0010885
2382.01336,-0.0009102
2381.04899,-0.0006279
2380.08461,-0.0003195
2379.12023,0.0000475
2378.15585,0.0005265
2377.19147,0.0011053
2376.22710,0.0017386
2375.26272,0.0023946
2374.29834,0.0030896
2373.33396,0.0037919
2372.36959,0.0044561
2371.40521,0.0051285
2370.44083,0.0057923
2369.47645,0.0063673
2368.51207,0.0068551
2367.54770,0.0072702
2366.58332,0.0076288
2365.61894,0.0079166
2364.65456,0.0081377
2363.69018,0.0083444
2362.72581,0.0085254
2361.76143,0.0086483
2360.79705,0.0086894
2359.83267,0.0086651
2358.86829,0.0085430
2357.90392,0.0082729
2356.93954,0.0078778
2355.97516,0.0073457
2355.01078,0.0066272
2354.04641,0.0056635
2353.08203,0.0045843
2352.11765,0.0036011
2351.15327,0.0027952
2350.18889,0.0022681
2349.22452,0.0020759
2348.26014,0.0022369
2347.29576,0.0026852
2346.33138,0.0033002
2345.36700,0.0040401
2344.40263,0.0047928
2343.43825,0.0053803
2342.47387,0.0057075
2341.50949,0.0058565
2340.54512,0.0059159
2339.58074,0.0059000
2338.61636,0.0058555
2337.65198,0.0058015
2336.68760,0.0057611
2335.72323,0.0057207
2334.75885,0.0056711
2333.79447,0.0056552
2332.83009,0.0056494
2331.86571,0.0055947
2330.90134,0.0054707
2329.93696,0.0053061
2328.97258,0.0051127
2328.00820,0.0049142
2327.04382,0.0047398
2326.07945,0.0045565
2325.11507,0.0043267
2324.15069,0.0040691
2323.18631,0.0038322
2322.22194,0.0035990
2321.25756,0.0033262
2320.29318,0.0029773
2319.32880,0.0025855
2318.36442,0.0022295
2317.40005,0.0019354
2316.43567,0.0017142
2315.47129,0.0015044
2314.50691,0.0012858
2313.54253,0.0010898
2312.57816,0.0009239
2311.61378,0.0007940
2310.64940,0.0006410
2309.68502,0.0004603
2308.72065,0.0002523
2307.75627,0.0000334
2306.79189,-0.0001263
2305.82751,-0.0002401
2304.86313,-0.0003540
2303.89876,-0.0004829
2302.93438,-0.0005539
2301.97000,-0.0005531
2301.00562,-0.0005473
2300.04124,-0.0005599
2299.07687,-0.0006034
2298.11249,-0.0006612
2297.14811,-0.0007636
2296.18373,-0.0009017
2295.21935,-0.0010085
2294.25498,-0.0010998
2293.29060,-0.0012034
2292.32622,-0.0012979
2291.36184,-0.0013826
2290.39747,-0.0014709
2289.43309,-0.0015058
2288.46871,-0.0014762
2287.50433,-0.0014018
2286.53995,-0.0013042
2285.57558,-0.0012131
2284.61120,-0.0011532
2283.64682,-0.0011852
2282.68244,-0.0012266
2281.71806,-0.0013045
2280.75369,-0.0014781
2279.78931,-0.0015916
2278.82493,-0.0016561
2277.86055,-0.0017086
2276.89618,-0.0016779
2275.93180,-0.0015439
2274.96742,-0.0014180
2274.00304,-0.0013831
2273.03866,-0.0014407
2272.07429,-0.0015918
2271.10991,-0.0016818
2270.14553,-0.0017708
2269.18115,-0.0018543
2268.21677,-0.0018349
2267.25240,-0.0019301
2266.28802,-0.0020352
2265.32364,-0.0019895
2264.35926,-0.0018837
2263.39488,-0.0018581
2262.43051,-0.0019390
2261.46613,-0.0019461
2260.50175,-0.0018791
2259.53737,-0.0017711
2258.57300,-0.0017339
2257.60862,-0.0017756
2256.64424,-0.0017738
2255.67986,-0.0017970
2254.71548,-0.0017255
2253.75111,-0.0015566
2252.78673,-0.0014221
2251.82235,-0.0013516
2250.85797,-0.0013286
2249.89359,-0.0013016
2248.92922,-0.0013081
2247.96484,-0.0012751
2247.00046,-0.0013014
2246.03608,-0.0013834
2245.07171,-0.0013515
2244.10733,-0.0013387
2243.14295,-0.0013181
2242.17857,-0.0012844
2241.21419,-0.0014040
2240.24982,-0.0016933
2239.28544,-0.0019932
2238.32106,-0.0022989
2237.35668,-0.0025226
2236.39230,-0.0025952
2235.42793,-0.0026455
2234.46355,-0.0026748
2233.49917,-0.0026064
2232.53479,-0.0024937
2231.57041,-0.0023538
2230.60604,-0.0022562
2229.64166,-0.0022610
2228.67728,-0.0023168
2227.71290,-0.0023134
2226.74853,-0.0023100
2225.78415,-0.0023065
2224.81977,-0.0023031
2223.85539,-0.0022997
2222.89101,-0.0022963
2221.92664,-0.0022928
2220.96226,-0.0022894
2219.99788,-0.0022860
2219.03350,-0.0022826
2218.06912,-0.0022791
2217.10475,-0.0022757
2216.14037,-0.0022723
2215.17599,-0.0022689
2214.21161,-0.0022654
2213.24724,-0.0022620
2212.28286,-0.0022586
2211.31848,-0.0022552
2210.35410,-0.0022517
2209.38972,-0.0022483
2208.42535,-0.0022449
2207.46097,-0.0022415
2206.49659,-0.0022380
2205.53221,-0.0022346
2204.56783,-0.0022312
2203.60346,-0.0022278
2202.63908,-0.0022243
2201.67470,-0.0022209
2200.71032,-0.0022175
2199.74594,-0.0022141
2198.78157,-0.0022106
2197.81719,-0.0022072
2196.85281,-0.0022038
2195.88843,-0.0022004
2194.92406,-0.0021969
2193.95968,-0.0021935
2192.99530,-0.0021901
2192.03092,-0.0021867
2191.06654,-0.0021832
2190.10217,-0.0021798
2189.13779,-0.0021764
2188.17341,-0.0021730
2187.20903,-0.0021695
2186.24465,-0.0021661
2185.28028,-0.0021627
2184.31590,-0.0021593
2183.35152,-0.0021558
2182.38714,-0.0021524
2181.42276,-0.0021490
2180.45839,-0.0021456
2179.49401,-0.0021421
2178.52963,-0.0021387
2177.56525,-0.0021353
2176.60088,-0.0021319
2175.63650,-0.0021284
2174.67212,-0.0021250
2173.70774,-0.0021216
2172.74336,-0.0021182
2171.77899,-0.0021147
2170.81461,-0.0021113
2169.85023,-0.0021079
2168.88585,-0.0021045
2167.92147,-0.0021010
2166.95710,-0.0020976
2165.99272,-0.0020942
2165.02834,-0.0020908
2164.06396,-0.0020873
2163.09959,-0.0020839
2162.13521,-0.0020805
2161.17083,-0.0020771
2160.20645,-0.0020736
2159.24207,-0.0020702
2158.27770,-0.0020668
2157.31332,-0.0020634
2156.34894,-0.0020599
2155.38456,-0.0020565
2154.42018,-0.0020531
2153.45581,-0.0020497
2152.49143,-0.0020462
2151.52705,-0.0020428
2150.56267,-0.0020394
2149.59829,-0.0020360
2148.63392,-0.0020325
2147.66954,-0.0020291
2146.70516,-0.0020257
2145.74078,-0.0020223
2144.77641,-0.0020188
2143.81203,-0.0020154
2142.84765,-0.0020120
2141.88327,-0.0020086
2140.91889,-0.0020051
2139.95452,-0.0020017
2138.99014,-0.0019983
2138.02576,-0.0019949
2137.06138,-0.0019914
2136.09700,-0.0019880
2135.13263,-0.0019846
2134.16825,-0.0019812
2133.20387,-0.0019777
2132.23949,-0.0019743
2131.27512,-0.0019709
2130.31074,-0.0019675
2129.34636,-0.0019640
2128.38198,-0.0019606
2127.41760,-0.0019572
2126.45323,-0.0019538
2125.48885,-0.0019503
2124.52447,-0.0019469
2123.56009,-0.0019435
2122.59571,-0.0019401
2121.63134,-0.0019366
2120.66696,-0.0019332
2119.70258,-0.0019298
2118.73820,-0.0019264
2117.77382,-0.0019229
2116.80945,-0.0019195
2115.84507,-0.0019161
2114.88069,-0.0019127
2113.91631,-0.0019092
2112.95194,-0.0019058
2111.98756,-0.0019024
2111.02318,-0.0018990
2110.05880,-0.0018955
2109.09442,-0.0018921
2108.13005,-0.0018887
2107.16567,-0.0018853
2106.20129,-0.0018818
2105.23691,-0.0018784
2104.27253,-0.0018750
2103.30816,-0.0018716
2102.34378,-0.0018681
2101.37940,-0.0018647
2100.41502,-0.0018613
2099.45065,-0.0018579
2098.48627,-0.0018544
2097.52189,-0.0018510
2096.55751,-0.0018476
2095.59313,-0.0018442
2094.62876,-0.0018407
2093.66438,-0.0018373
2092.70000,-0.0018339
2091.73562,-0.0018305
2090.77124,-0.0018270
2089.80687,-0.0018236
2088.84249,-0.0018202
2087.87811,-0.0018168
2086.91373,-0.0018133
2085.94935,-0.0018099
2084.98498,-0.0018065
2084.02060,-0.0018031
2083.05622,-0.0017996
2082.09184,-0.0017962
2081.12747,-0.0017928
2080.16309,-0.0017894
2079.19871,-0.0017859
2078.23433,-0.0017825
2077.26995,-0.0017791
2076.30558,-0.0017757
2075.34120,-0.0017722
2074.37682,-0.0017688
2073.41244,-0.0017654
2072.44806,-0.0017620
2071.48369,-0.0017585
2070.51931,-0.0017551
2069.55493,-0.0017517
2068.59055,-0.0017483
2067.62618,-0.0017448
2066.66180,-0.0017414
2065.69742,-0.0017380
2064.73304,-0.0017346
2063.76866,-0.0017311
2062.80429,-0.0017277
2061.83991,-0.0017243
2060.87553,-0.0017209
2059.91115,-0.0017174
2058.94677,-0.0017140
2057.98240,-0.0017106
2057.01802,-0.0017072
2056.05364,-0.0017037
2055.08926,-0.0017003
2054.12488,-0.0016969
2053.16051,-0.0016935
2052.19613,-0.0016900
2051.23175,-0.0016866
2050.26737,-0.0016832
2049.30300,-0.0016798
2048.33862,-0.0016763
2047.37424,-0.0016729
2046.40986,-0.0016695
2045.44548,-0.0016661
2044.48111,-0.0016626
2043.51673,-0.0016592
2042.55235,-0.0016558
2041.58797,-0.0016524
2040.62359,-0.0016489
2039.65922,-0.0016455
2038.69484,-0.0016421
2037.73046,-0.0016387
2036.76608,-0.0016352
2035.80171,-0.0016318
2034.83733,-0.0016284
2033.87295,-0.0016250
2032.90857,-0.0016215
2031.94419,-0.0016181
2030.97982,-0.0016147
2030.01544,-0.0016113
2029.05106,-0.0016078
2028.08668,-0.0016044
2027.12230,-0.0016010
2026.15793,-0.0015976
2025.19355,-0.0015941
2024.22917,-0.0015907
2023.26479,-0.0015873
2022.30041,-0.0015839
2021.33604,-0.0015804
2020.37166,-0.0015770
2019.40728,-0.0015736
2018.44290,-0.0015702
2017.47853,-0.0015667
2016.51415,-0.0015633
2015.54977,-0.0015599
2014.58539,-0.0015565
2013.62101,-0.0015530
2012.65664,-0.0015496
2011.69226,-0.0015462
2010.72788,-0.0015428
2009.76350,-0.0015393
2008.79912,-0.0015359
2007.83475,-0.0015325
2006.87037,-0.0015291
2005.90599,-0.0015256
2004.94161,-0.0015222
2003.97724,-0.0015188
2003.01286,-0.0015154
2002.04848,-0.0015119
2001.08410,-0.0015085
2000.11972,-0.0015051
1999.15535,-0.0015017
1998.19097,-0.0014982
1997.22659,-0.0014948
1996.26221,-0.0014914
1995.29783,-0.0014880
1994.33346,-0.0014845
1993.36908,-0.0014811
1992.40470,-0.0014777
1991.44032,-0.0014743
1990.47594,-0.0014708
1989.51157,-0.0014674
1988.54719,-0.0014640
1987.58281,-0.0014606
1986.61843,-0.0014571
1985.65406,-0.0014537
1984.68968,-0.0014503
1983.72530,-0.0014469
1982.76092,-0.0014434
1981.79654,-0.0014400
1980.83217,-0.0014366
1979.86779,-0.0014332
1978.90341,-0.0014297
1977.93903,-0.0014263
1976.97465,-0.0014229
1976.01028,-0.0014195
1975.04590,-0.0014160
1974.08152,-0.0014126
1973.11714,-0.0014092
1972.15276,-0.0014058
1971.18839,-0.0014023
1970.22401,-0.0013989
1969.25963,-0.0013955
1968.29525,-0.0013921
1967.33088,-0.0013886
1966.36650,-0.0013852
1965.40212,-0.0013818
1964.43774,-0.0013784
1963.47336,-0.0013749
1962.50899,-0.0013715
1961.54461,-0.0013681
1960.58023,-0.0013647
1959.61585,-0.0013612
1958.65147,-0.0013578
1957.68710,-0.0013544
1956.72272,-0.0013510
1955.75834,-0.0013475
1954.79396,-0.0013441
1953.82959,-0.0013407
1952.86521,-0.0013373
1951.90083,-0.0013338
1950.93645,-0.0013304
1949.97207,-0.0013270
1949.00770,-0.0013236
1948.04332,-0.0013201
1947.07894,-0.0013167
1946.11456,-0.0013133
1945.15018,-0.0013099
1944.18581,-0.0013064
1943.22143,-0.0013030
1942.25705,-0.0012996
1941.29267,-0.0012962
1940.32829,-0.0012927
1939.36392,-0.0012893
1938.39954,-0.0012859
1937.43516,-0.0012707
1936.47078,-0.0012500
1935.50641,-0.0012535
1934.54203,-0.0013252
1933.57765,-0.0014193
1932.61327,-0.0014412
1931.64889,-0.0014385
1930.68452,-0.0013997
1929.72014,-0.0012711
1928.75576,-0.0010166
1927.79138,-0.0006349
1926.82700,-0.0002563
1925.86263,0.0000533
1924.89825,0.0002011
1923.93387,0.0001279
1922.96949,0.0000554
1922.00512,0.0001192
1921.04074,0.0001836
1920.07636,0.0001196
1919.11198,0.0000166
1918.14760,-0.0000262
1917.18323,-0.0000177
1916.21885,0.0000090
1915.25447,-0.0000269
1914.29009,-0.0001377
1913.32571,-0.0003106
1912.36134,-0.0004792
1911.39696,-0.0004448
1910.43258,-0.0003390
1909.46820,-0.0003213
1908.50382,-0.0003105
1907.53945,-0.0003391
1906.57507,-0.0003629
1905.61069,-0.0004000
1904.64631,-0.0004494
1903.68194,-0.0004346
1902.71756,-0.0003892
1901.75318,-0.0002635
1900.78880,-0.0001500
1899.82442,-0.0001140
1898.86005,-0.0000694
1897.89567,0.0000618
1896.93129,0.0002106
1895.96691,0.0002211
1895.00253,0.0002828
1894.03816,0.0004233
1893.07378,0.0004876
1892.10940,0.0004597
1891.14502,0.0003445
1890.18065,0.0002831
1889.21627,0.0002302
1888.25189,0.0001664
1887.28751,0.0001712
1886.32313,0.0001500
1885.35876,0.0000771
1884.39438,0.0000305
1883.43000,0.0000829
1882.46562,0.0001089
1881.50124,-0.0000009
1880.53687,-0.0001875
1879.57249,-0.0003470
1878.60811,-0.0003886
1877.64373,-0.0003709
1876.67935,-0.0003404
1875.71498,-0.0003216
1874.75060,-0.0002532
1873.78622,-0.0000379
1872.82184,0.0002182
1871.85747,0.0003963
1870.89309,0.0004924
1869.92871,0.0005497
1868.96433,0.0005563
1867.99995,0.0005035
1867.03558,0.0003845
1866.07120,0.0001930
1865.10682,-0.0000093
1864.14244,-0.0001561
1863.17806,-0.0001641
1862.21369,-0.0001086
1861.24931,-0.0000845
1860.28493,-0.0000452
1859.32055,-0.0000016
1858.35618,0.0000335
1857.39180,0.0000577
1856.42742,0.0000708
1855.46304,0.0000561
1854.49866,0.0000126
1853.53429,-0.0000132
1852.56991,-0.0000096
1851.60553,-0.0000017
1850.64115,-0.0000228
1849.67677,0.0000385
1848.71240,0.0002416
1847.74802,0.0004770
1846.78364,0.0007066
1845.81926,0.0008943
1844.85488,0.0009951
1843.89051,0.0009867
1842.92613,0.0008924
1841.96175,0.0007622
1840.99737,0.0005784
1840.03300,0.0003529
1839.06862,0.0001660
1838.10424,0.0001051
1837.13986,0.0000995
1836.17548,0.0000500
1835.21111,0.0000683
1834.24673,0.0001916
1833.28235,0.0003385
1832.31797,0.0004462
1831.35359,0.0004893
1830.38922,0.0005630
1829.42484,0.0006785
1828.46046,0.0007633
1827.49608,0.0007971
1826.53171,0.0007515
1825.56733,0.0006440
1824.60295,0.0005318
1823.63857,0.0005012
1822.67419,0.0005379
1821.70982,0.0005374
1820.74544,0.0004651
1819.78106,0.0003452
1818.81668,0.0002931
1817.85230,0.0002945
1816.88793,0.0002569
1815.92355,0.0002245
1814.95917,0.0002287
1813.99479,0.0002762
1813.03041,0.0003236
1812.06604,0.0003541
1811.10166,0.0003957
1810.13728,0.0004271
1809.17290,0.0004280
1808.20853,0.0003830
1807.24415,0.0003464
1806.27977,0.0003407
1805.31539,0.0003703
1804.35101,0.0004724
1803.38664,0.0005894
1802.42226,0.0006780
1801.45788,0.0007474
1800.49350,0.0007811
1799.52912,0.0007169
1798.56475,0.0006143
1797.60037,0.0006217
1796.63599,0.0007014
1795.67161,0.0008168
1794.70724,0.0009604
1793.74286,0.0010854
1792.77848,0.0011757
1791.81410,0.0011724
1790.84972,0.0011034
1789.88535,0.0010487
1788.92097,0.0009475
1787.95659,0.0007499
1786.99221,0.0005895
1786.02783,0.0006047
1785.06346,0.0007020
1784.09908,0.0007852
1783.13470,0.0008547
1782.17032,0.0008509
1781.20594,0.0008042
1780.24157,0.0007364
1779.27719,0.0006029
1778.31281,0.0005629
1777.34843,0.0007217
1776.38406,0.0009723
1775.41968,0.0012015
1774.45530,0.0013766
1773.49092,0.0015764
1772.52654,0.0017763
1771.56217,0.0018759
1770.59779,0.0018521
1769.63341,0.0017316
1768.66903,0.0014750
1767.70465,0.0011207
1766.74028,0.0009994
1765.77590,0.0011227
1764.81152,0.0011954
1763.84714,0.0011582
1762.88276,0.0010754
1761.91839,0.0011254
1760.95401,0.0012650
1759.98963,0.0013239
1759.02525,0.0013333
1758.06088,0.0012295
1757.09650,0.0010951
1756.13212,0.0011808
1755.16774,0.0014389
1754.20336,0.0016599
1753.23899,0.0018031
1752.27461,0.0019310
1751.31023,0.0020411
1750.34585,0.0021303
1749.38147,0.0021417
1748.41710,0.0020729
1747.45272,0.0019553
1746.48834,0.0017063
1745.52396,0.0015393
1744.55959,0.0016437
1743.59521,0.0017667
1742.63083,0.0018362
1741.66645,0.0018548
1740.70207,0.0017413
1739.73770,0.0017100
1738.77332,0.0019573
1737.80894,0.0023562
1736.84456,0.0027035
1735.88018,0.0029017
1734.91581,0.0029738
1733.95143,0.0030097
1732.98705,0.0030256
1732.02267,0.0028729
1731.05829,0.0025235
1730.09392,0.0020302
1729.12954,0.0015164
1728.16516,0.0012962
1727.20078,0.0013773
1726.23641,0.0014622
1725.27203,0.0014064
1724.30765,0.0012670
1723.34327,0.0012857
1722.37889,0.0015986
1721.41452,0.0020228
1720.45014,0.0024175
1719.48576,0.0028135
1718.52138,0.0031324
1717.55700,0.0033083
1716.59263,0.0033482
1715.62825,0.0032203
1714.66387,0.0029446
1713.69949,0.0025018
1712.73512,0.0019887
1711.77074,0.0016909
1710.80636,0.0016869
1709.84198,0.0017532
1708.87760,0.0018504
1707.91323,0.0019481
1706.94885,0.0017988
1705.98447,0.0017106
1705.02009,0.0020704
1704.05571,0.0026161
1703.09134,0.0029786
1702.12696,0.0030165
1701.16258,0.0031759
1700.19820,0.0036313
1699.23382,0.0040063
1698.26945,0.0041424
1697.30507,0.0039987
1696.34069,0.0035301
1695.37631,0.0028709
1694.41194,0.0024551
1693.44756,0.0023747
1692.48318,0.0021634
1691.51880,0.0015544
1690.55442,0.0009758
1689.59005,0.0012099
1688.62567,0.0019705
1687.66129,0.0026060
1686.69691,0.0030233
1685.73253,0.0032691
1684.76816,0.0033964
1683.80378,0.0033865
1682.83940,0.0031992
1681.87502,0.0027831
1680.91065,0.0022498
1679.94627,0.0017996
1678.98189,0.0015938
1678.01751,0.0017322
1677.05313,0.0019450
1676.08876,0.0020374
1675.12438,0.0020506
1674.16000,0.0021769
1673.19562,0.0023781
1672.23124,0.0024451
1671.26687,0.0023713
1670.30249,0.0021636
1669.33811,0.0020094
1668.37373,0.0020169
1667.40935,0.0020228
1666.44498,0.0019524
1665.48060,0.0018462
1664.51622,0.0017472
1663.55184,0.0017006
1662.58747,0.0017834
1661.62309,0.0018086
1660.65871,0.0016585
1659.69433,0.0013904
1658.72995,0.0012577
1657.76558,0.0017277
1656.80120,0.0026073
1655.83682,0.0034501
1654.87244,0.0039964
1653.90806,0.0042608
1652.94369,0.0043206
1651.97931,0.0041772
1651.01493,0.0039958
1650.05055,0.0036682
1649.08618,0.0030866
1648.12180,0.0024556
1647.15742,0.0021369
1646.19304,0.0022710
1645.22866,0.0023633
1644.26429,0.0021708
1643.29991,0.0018346
1642.33553,0.0014349
1641.37115,0.0011125
1640.40677,0.0012328
1639.44240,0.0017536
1638.47802,0.0022161
1637.51364,0.0024882
1636.54926,0.0026364
1635.58488,0.0026627
1634.62051,0.0025257
1633.65613,0.0022765
1632.69175,0.0019825
1631.72737,0.0016440
1630.76300,0.0012558
1629.79862,0.0009689
1628.83424,0.0010919
1627.86986,0.0013708
1626.90548,0.0015364
1625.94111,0.0016474
1624.97673,0.0016930
1624.01235,0.0016356
1623.04797,0.0013945
1622.08359,0.0013352
1621.11922,0.0016044
1620.15484,0.0018421
1619.19046,0.0019442
1618.22608,0.0019475
1617.26171,0.0020017
1616.29733,0.0020337
1615.33295,0.0019353
1614.36857,0.0017606
1613.40419,0.0014950
1612.43982,0.0011470
1611.47544,0.0008146
1610.51106,0.0007820
1609.54668,0.0009320
1608.58230,0.0009785
1607.61793,0.0009775
1606.65355,0.0009630
1605.68917,0.0009489
1604.72479,0.0009079
1603.76041,0.0008609
1602.79604,0.0008379
1601.83166,0.0008130
1600.86728,0.0008027
1599.90290,0.0008048
1598.93853,0.0008116
1597.97415,0.0008213
1597.00977,0.0008456
1596.04539,0.0008654
1595.08101,0.0008792
1594.11664,0.0008826
1593.15226,0.0008660
1592.18788,0.0008455
1591.22350,0.0008256
1590.25912,0.0008144
1589.29475,0.0008013
1588.33037,0.0008046
1587.36599,0.0008096
1586.40161,0.0008213
1585.43724,0.0008255
1584.47286,0.0008145
1583.50848,0.0007697
1582.54410,0.0006164
1581.57972,0.0006698
1580.61535,0.0010675
1579.65097,0.0014993
1578.68659,0.0018348
1577.72221,0.0020665
1576.75783,0.0021542
1575.79346,0.0020852
1574.82908,0.0020527
1573.86470,0.0020595
1572.90032,0.0019506
1571.93594,0.0016806
1570.97157,0.0013471
1570.00719,0.0013399
1569.04281,0.0015514
1568.07843,0.0016003
1567.11406,0.0014283
1566.14968,0.0011090
1565.18530,0.0009287
1564.22092,0.0011024
1563.25654,0.0018050
1562.29217,0.0027759
1561.32779,0.0034551
1560.36341,0.0038063
1559.39903,0.0040751
1558.43465,0.0042748
1557.47028,0.0041842
1556.50590,0.0037212
1555.54152,0.0029818
1554.57714,0.0022267
1553.61276,0.0017505
1552.64839,0.0015225
1551.68401,0.0014731
1550.71963,0.0014729
1549.75525,0.0013811
1548.79088,0.0012738
1547.82650,0.0013508
1546.86212,0.0015774
1545.89774,0.0017188
1544.93336,0.0019870
1543.96899,0.0026196
1543.00461,0.0033181
1542.04023,0.0037722
1541.07585,0.0038853
1540.11147,0.0036925
1539.14710,0.0034209
1538.18272,0.0031964
1537.21834,0.0028274
1536.25396,0.0023974
1535.28959,0.0020111
1534.32521,0.0016090
1533.36083,0.0014898
1532.39645,0.0016306
1531.43207,0.0016922
1530.46770,0.0016865
1529.50332,0.0016357
1528.53894,0.0015057
1527.57456,0.0014514
1526.61018,0.0016757
1525.64581,0.0021123
1524.68143,0.0025354
1523.71705,0.0027444
1522.75267,0.0028203
1521.78829,0.0029254
1520.82392,0.0029505
1519.85954,0.0028956
1518.89516,0.0027536
1517.93078,0.0024733
1516.96641,0.0021147
1516.00203,0.0017755
1515.03765,0.0016435
1514.07327,0.0016208
1513.10889,0.0014962
1512.14452,0.0014345
1511.18014,0.0017647
1510.21576,0.0024079
1509.25138,0.0029721
1508.28700,0.0033102
1507.32263,0.0034095
1506.35825,0.0033480
1505.39387,0.0031130
1504.42949,0.0026978
1503.46512,0.0022106
1502.50074,0.0015985
1501.53636,0.0011660
1500.57198,0.0012090
1499.60760,0.0015354
1498.64323,0.0018769
1497.67885,0.0020043
1496.71447,0.0019361
1495.75009,0.0018434
1494.78571,0.0017795
1493.82134,0.0016803
1492.85696,0.0016039
1491.89258,0.0015892
1490.92820,0.0015437
1489.96382,0.0016179
1488.99945,0.0017535
1488.03507,0.0017273
1487.07069,0.0015917
1486.10631,0.0013919
1485.14194,0.0011965
1484.17756,0.0010987
1483.21318,0.0010429
1482.24880,0.0009770
1481.28442,0.0010183
1480.32005,0.0011225
1479.35567,0.0011587
1478.39129,0.0012493
1477.42691,0.0014858
1476.46253,0.0018185
1475.49816,0.0021203
1474.53378,0.0023276
1473.56940,0.0024336
1472.60502,0.0023921
1471.64065,0.0021861
1470.67627,0.0019291
1469.71189,0.0018178
1468.74751,0.0017133
1467.78313,0.0015623
1466.81876,0.0015426
1465.85438,0.0016041
1464.89000,0.0016883
1463.92562,0.0016689
1462.96124,0.0015874
1461.99687,0.0017627
1461.03249,0.0021661
1460.06811,0.0025500
1459.10373,0.0028716
1458.13935,0.0031733
1457.17498,0.0033161
1456.21060,0.0032653
1455.24622,0.0030364
1454.28184,0.0026092
1453.31747,0.0021486
1452.35309,0.0017266
1451.38871,0.0014569
1450.42433,0.0015208
1449.45995,0.0017167
1448.49558,0.0017957
1447.53120,0.0017954
1446.56682,0.0017805
1445.60244,0.0017466
1444.63806,0.0016967
1443.67369,0.0015276
1442.70931,0.0013467
1441.74493,0.0014831
1440.78055,0.0018437
1439.81618,0.0021489
1438.85180,0.0023567
1437.88742,0.0024887
1436.92304,0.0025220
1435.95866,0.0024872
1434.99429,0.0024270
1434.02991,0.0023275
1433.06553,0.0021392
1432.10115,0.0018678
1431.13677,0.0016866
1430.17240,0.0017344
1429.20802,0.0018505
1428.24364,0.0018916
1427.27926,0.0019035
1426.31488,0.0018150
1425.35051,0.0016658
1424.38613,0.0017373
1423.42175,0.0019989
1422.45737,0.0022622
1421.49300,0.0024591
1420.52862,0.0025702
1419.56424,0.0025844
1418.59986,0.0025131
1417.63548,0.0024183
1416.67111,0.0022788
1415.70673,0.0020524
1414.74235,0.0017376
1413.77797,0.0014986
1412.81359,0.0015036
1411.84922,0.0015455
1410.88484,0.0015333
1409.92046,0.0015644
1408.95608,0.0016040
1407.99171,0.0016247
1407.02733,0.0016290
1406.06295,0.0016100
1405.09857,0.0015939
1404.13419,0.0016372
1403.16982,0.0017136
1402.20544,0.0017758
1401.24106,0.0017971
1400.27668,0.0018003
1399.31230,0.0019086
1398.34793,0.0020862
1397.38355,0.0021978
1396.41917,0.0022111
1395.45479,0.0021473
1394.49041,0.0020036
1393.52604,0.0018475
1392.56166,0.0018237
1391.59728,0.0018704
1390.63290,0.0018808
1389.66853,0.0018570
1388.70415,0.0018732
1387.73977,0.0019846
1386.77539,0.0020611
1385.81101,0.0020460
1384.84664,0.0019791
1383.88226,0.0018802
1382.91788,0.0017694
1381.95350,0.0016878
1380.98912,0.0017062
1380.02475,0.0017590
1379.06037,0.0018087
1378.09599,0.0018871
1377.13161,0.0019664
1376.16724,0.0020358
1375.20286,0.0020638
1374.23848,0.0020585
1373.27410,0.0020483
1372.30972,0.0020248
1371.34535,0.0019933
1370.38097,0.0019367
1369.41659,0.0018582
1368.45221,0.0018306
1367.48783,0.0018986
1366.52346,0.0020113
1365.55908,0.0021135
1364.59470,0.0021806
1363.63032,0.0022172
1362.66594,0.0022478
1361.70157,0.0022535
1360.73719,0.0022221
1359.77281,0.0021790
1358.80843,0.0021286
1357.84406,0.0020714
1356.87968,0.0020517
1355.91530,0.0020759
1354.95092,0.0021159
1353.98654,0.0021630
1353.02217,0.0021901
1352.05779,0.0022099
1351.09341,0.0022335
1350.12903,0.0022485
1349.16465,0.0022718
1348.20028,0.0023016
1347.23590,0.0023235
1346.27152,0.0023268
1345.30714,0.0023383
1344.34276,0.0023877
1343.37839,0.0024541
1342.41401,0.0025217
1341.44963,0.0025900
1340.48525,0.0026557
1339.52088,0.0027046
1338.55650,0.0027306
1337.59212,0.0027352
1336.62774,0.0027189
1335.66336,0.0026831
1334.69899,0.0026358
1333.73461,0.0026127
1332.77023,0.0026225
1331.80585,0.0026463
1330.84147,0.0026759
1329.87710,0.0027054
1328.91272,0.0027361
1327.94834,0.0027615
1326.98396,0.0027806
1326.01959,0.0028001
1325.05521,0.0028320
1324.09083,0.0028750
1323.12645,0.0029155
1322.16207,0.0029678
1321.19770,0.0030210
1320.23332,0.0030544
1319.26894,0.0030803
1318.30456,0.0031109
1317.34018,0.0031501
1316.37581,0.0031782
1315.41143,0.0031894
1314.44705,0.0031964
1313.48267,0.0032034
1312.51829,0.0032190
1311.55392,0.0032303
1310.58954,0.0032352
1309.62516,0.0032430
1308.66078,0.0032544
1307.69641,0.0032863
1306.73203,0.0033331
1305.76765,0.0033824
1304.80327,0.0034267
1303.83889,0.0034593
1302.87452,0.0034853
1301.91014,0.0035057
1300.94576,0.0035313
1299.98138,0.0035510
1299.01700,0.0035543
1298.05263,0.0035612
1297.08825,0.0035736
1296.12387,0.0035932
1295.15949,0.0036197
1294.19512,0.0036535
1293.23074,0.0037031
1292.26636,0.0037562
1291.30198,0.0038069
1290.33760,0.0038519
1289.37323,0.0038850
1288.40885,0.0039101
1287.44447,0.0039143
1286.48009,0.0038968
1285.51571,0.0038787
1284.55134,0.0038676
1283.58696,0.0038647
1282.62258,0.0038746
1281.65820,0.0039066
1280.69382,0.0039394
1279.72945,0.0039519
1278.76507,0.0039685
1277.80069,0.0039979
1276.83631,0.0040364
1275.87194,0.0040719
1274.90756,0.0040917
1273.94318,0.0041135
1272.97880,0.0041410
1272.01442,0.0041719
1271.05005,0.0042084
1270.08567,0.0042431
1269.12129,0.0042622
1268.15691,0.0042714
1267.19253,0.0042933
1266.22816,0.0043221
1265.26378,0.0043597
1264.29940,0.0044069
1263.33502,0.0044472
1262.37065,0.0044815
1261.40627,0.0045147
1260.44189,0.0045577
1259.47751,0.0046051
1258.51313,0.0046350
1257.54876,0.0046480
1256.58438,0.0046610
1255.62000,0.0046781
1254.65562,0.0046988
1253.69124,0.0047355
1252.72687,0.0047830
1251.76249,0.0048323
1250.79811,0.0048788
1249.83373,0.0049200
1248.86935,0.0049621
1247.90498,0.0049990
1246.94060,0.0050342
1245.97622,0.0050656
1245.01184,0.0050933
1244.04747,0.0051281
1243.08309,0.0051655
1242.11871,0.0052112
1241.15433,0.0052571
1240.18995,0.0052914
1239.22558,0.0053238
1238.26120,0.0053528
1237.29682,0.0053795
1236.33244,0.0054099
1235.36806,0.0054412
1234.40369,0.0054630
1233.43931,0.0054824
1232.47493,0.0055179
1231.51055,0.0055631
1230.54618,0.0056096
1229.58180,0.0056465
1228.61742,0.0056777
1227.65304,0.0057277
1226.68866,0.0057820
1225.72429,0.0058138
1224.75991,0.0058213
1223.79553,0.0058173
1222.83115,0.0058127
1221.86677,0.0058094
1220.90240,0.0058135
1219.93802,0.0058248
1218.97364,0.0058336
1218.00926,0.0058424
1217.04488,0.0058642
1216.08051,0.0058974
1215.11613,0.0059236
1214.15175,0.0059271
1213.18737,0.0059161
1212.22300,0.0059112
1211.25862,0.0059150
1210.29424,0.0059220
1209.32986,0.0059283
1208.36548,0.0059362
1207.40111,0.0059503
1206.43673,0.0059774
1205.47235,0.0060214
1204.50797,0.0060650
1203.54359,0.0061079
1202.57922,0.0061489
1201.61484,0.0061769
1200.65046,0.0062002
1199.68608,0.0062091
1198.72171,0.0062016
1197.75733,0.0061847
1196.79295,0.0061693
1195.82857,0.0061660
1194.86419,0.0061712
1193.89982,0.0061989
1192.93544,0.0062479
1191.97106,0.0063016
1191.00668,0.0063491
1190.04230,0.0063931
1189.07793,0.0064405
1188.11355,0.0064767
1187.14917,0.0065004
1186.18479,0.0065194
1185.22041,0.0065447
1184.25604,0.0065716
1183.29166,0.0065852
1182.32728,0.0066044
1181.36290,0.0066331
1180.39853,0.0066550
1179.43415,0.0066675
1178.46977,0.0066837
1177.50539,0.0067046
1176.54101,0.0067162
1175.57664,0.0067236
1174.61226,0.0067340
1173.64788,0.0067554
1172.68350,0.0067787
1171.71912,0.0067778
1170.75475,0.0067571
1169.79037,0.0067430
1168.82599,0.0067410
1167.86161,0.0067353
1166.89724,0.0067269
1165.93286,0.0067122
1164.96848,0.0066890
1164.00410,0.0066696
1163.03972,0.0066538
1162.07535,0.0066403
1161.11097,0.0066219
1160.14659,0.0065965
1159.18221,0.0065689
1158.21783,0.0065435
1157.25346,0.0065240
1156.28908,0.0065031
1155.32470,0.0064788
1154.36032,0.0064509
1153.39594,0.0064174
1152.43157,0.0063751
1151.46719,0.0063284
1150.50281,0.0062817
1149.53843,0.0062283
1148.57406,0.0061805
1147.60968,0.0061326
1146.64530,0.0060735
1145.68092,0.0060180
1144.71654,0.0059728
1143.75217,0.0059531
1142.78779,0.0059461
1141.82341,0.0059207
1140.85903,0.0058808
1139.89465,0.0058386
1138.93028,0.0057881
1137.96590,0.0057129
1137.00152,0.0056384
1136.03714,0.0055816
1135.07276,0.0055283
1134.10839,0.0054886
1133.14401,0.0054691
1132.17963,0.0054678
1131.21525,0.0054636
1130.25088,0.0054473
1129.28650,0.0054307
1128.32212,0.0054017
1127.35774,0.0053464
1126.39336,0.0052648
1125.42899,0.0051866
1124.46461,0.0051185
1123.50023,0.0050409
1122.53585,0.0049682
1121.57147,0.0049141
1120.60710,0.0048799
1119.64272,0.0048541
1118.67834,0.0048219
1117.71396,0.0047774
1116.74959,0.0047251
1115.78521,0.0046692
1114.82083,0.0046067
1113.85645,0.0045583
1112.89207,0.0045321
1111.92770,0.0045153
1110.96332,0.0045082
1109.99894,0.0045129
1109.03456,0.0045176
1108.07018,0.0045066
1107.10581,0.0044805
1106.14143,0.0044501
1105.17705,0.0044170
1104.21267,0.0043668
1103.24829,0.0043210
1102.28392,0.0043106
1101.31954,0.0043173
1100.35516,0.0043185
1099.39078,0.0043033
1098.42641,0.0042776
1097.46203,0.0042513
1096.49765,0.0042312
1095.53327,0.0042224
1094.56889,0.0042228
1093.60452,0.0042181
1092.64014,0.0042037
1091.67576,0.0042130
1090.71138,0.0042403
1089.74700,0.0042535
1088.78263,0.0042495
1087.81825,0.0042447
1086.85387,0.0042493
1085.88949,0.0042458
1084.92512,0.0042472
1083.96074,0.0042703
1082.99636,0.0043102
1082.03198,0.0043443
1081.06760,0.0043693
1080.10323,0.0044223
1079.13885,0.0044933
1078.17447,0.0045665
1077.21009,0.0046315
1076.24571,0.0046862
1075.28134,0.0047401
1074.31696,0.0047862
1073.35258,0.0048418
1072.38820,0.0049045
1071.42382,0.0049674
1070.45945,0.0050152
1069.49507,0.0050518
1068.53069,0.0051162
1067.56631,0.0051893
1066.60194,0.0052478
1065.63756,0.0052802
1064.67318,0.0053081
1063.70880,0.0053614
1062.74442,0.0054222
1061.78005,0.0054917
1060.81567,0.0055653
1059.85129,0.0056268
1058.88691,0.0056663
1057.92253,0.0056868
1056.95816,0.0057181
1055.99378,0.0057608
1055.02940,0.0057858
1054.06502,0.0057918
1053.10065,0.0058072
1052.13627,0.0058304
1051.17189,0.0058370
1050.20751,0.0058355
1049.24313,0.0058395
1048.27876,0.0058386
1047.31438,0.0058340
1046.35000,0.0058263
1045.38562,0.0058247
1044.42124,0.0058481
1043.45687,0.0058631
1042.49249,0.0058635
1041.52811,0.0058675
1040.56373,0.0058636
1039.59935,0.0058455
1038.63498,0.0058030
1037.67060,0.0057567
1036.70622,0.0057130
1035.74184,0.0056662
1034.77747,0.0056184
1033.81309,0.0055637
1032.84871,0.0055244
1031.88433,0.0054936
1030.91995,0.0054663
1029.95558,0.0054463
1028.99120,0.0054190
1028.02682,0.0053861
1027.06244,0.0053417
1026.09806,0.0052971
1025.13369,0.0052637
1024.16931,0.0052377
1023.20493,0.0052034
1022.24055,0.0051514
1021.27618,0.0051001
1020.31180,0.0050520
1019.34742,0.0049971
1018.38304,0.0049260
1017.41866,0.0048553
1016.45429,0.0048052
1015.48991,0.0047566
1014.52553,0.0046915
1013.56115,0.0046218
1012.59677,0.0045554
1011.63240,0.0044818
1010.66802,0.0044238
1009.70364,0.0043786
1008.73926,0.0043302
1007.77488,0.0042790
1006.81051,0.0042175
1005.84613,0.0041856
1004.88175,0.0041732
1003.91737,0.0041406
1002.95300,0.0040862
1001.98862,0.0040134
1001.02424,0.0039469
1000.05986,0.0038857
999.09548,0.0038357
998.13111,0.0037940
997.16673,0.0037525
996.20235,0.0037295
995.23797,0.0037135
994.27359,0.0037058
993.30922,0.0037158
992.34484,0.0037445
991.38046,0.0037584
990.41608,0.0037354
989.45171,0.0037071
988.48733,0.0036566
987.52295,0.0035934
986.55857,0.0035523
985.59419,0.0035266
984.62982,0.0035137
983.66544,0.0034931
982.70106,0.0034690
981.73668,0.0034658
980.77230,0.0034788
979.80793,0.0034849
978.84355,0.0034705
977.87917,0.0034568
976.91479,0.0034494
975.95041,0.0034392
974.98604,0.0034362
974.02166,0.0034335
973.05728,0.0034213
972.09290,0.0034043
971.12853,0.0033842
970.16415,0.0033760
969.19977,0.0033946
968.23539,0.0034182
967.27101,0.0034233
966.30664,0.0034316
965.34226,0.0034413
964.37788,0.0034209
963.41350,0.0034001
962.44912,0.0033984
961.48475,0.0033961
960.52037,0.0034061
959.55599,0.0034359
958.59161,0.0034716
957.62724,0.0034864
956.66286,0.0034718
955.69848,0.0034561
954.73410,0.0034516
953.76972,0.0034509
952.80535,0.0034369
951.84097,0.0034071
950.87659,0.0033866
949.91221,0.0033829
948.94783,0.0033806
947.98346,0.0033585
947.01908,0.0033123
946.05470,0.0032629
945.09032,0.0032295
944.12594,0.0032250
943.16157,0.0032466
942.19719,0.0032743
941.23281,0.0032866
940.26843,0.0032976
939.30406,0.0033451
938.33968,0.0034048
937.37530,0.0034320
936.41092,0.0034318
935.44654,0.0034309
934.48217,0.0034326
933.51779,0.0033963
932.55341,0.0033354
931.58903,0.0032998
930.62465,0.0032750
929.66028,0.0032569
928.69590,0.0032674
927.73152,0.0032905
926.76714,0.0033085
925.80276,0.0033349
924.83839,0.0033699
923.87401,0.0034136
922.90963,0.0034554
921.94525,0.0034765
920.98088,0.0035230
920.01650,0.0035893
919.05212,0.0036241
918.08774,0.0036409
917.12336,0.0036492
916.15899,0.0036528
915.19461,0.0036566
914.23023,0.0036675
913.26585,0.0036863
912.30147,0.0037146
911.33710,0.0037817
910.37272,0.0039034
909.40834,0.0040417
908.44396,0.0041187
907.47959,0.0041637
906.51521,0.0042244
905.55083,0.0042618
904.58645,0.0042673
903.62207,0.0042453
902.65770,0.0042251
901.69332,0.0042057
900.72894,0.0041944
899.76456,0.0042555
898.80018,0.0043656
897.83581,0.0044646
896.87143,0.0045299
895.90705,0.0046037
894.94267,0.0047079
893.97829,0.0048008
893.01392,0.0048661
892.04954,0.0048873
891.08516,0.0048780
890.12078,0.0048561
889.15641,0.0048414
888.19203,0.0048504
887.22765,0.0048670
886.26327,0.0048992
885.29889,0.0049399
884.33452,0.0049974
883.37014,0.0050895
882.40576,0.0051980
881.44138,0.0052826
880.47700,0.0053123
879.51263,0.0053305
878.54825,0.0053608
877.58387,0.0053689
876.61949,0.0053362
875.65512,0.0053008
874.69074,0.0052990
873.72636,0.0053103
872.76198,0.0053224
871.79760,0.0053302
870.83323,0.0053407
869.86885,0.0053390
868.90447,0.0052967
867.94009,0.0052472
866.97571,0.0052058
866.01134,0.0051410
865.04696,0.0050581
864.08258,0.0050034
863.11820,0.0049855
862.15382,0.0050019
861.18945,0.0050398
860.22507,0.0050666
859.26069,0.0050914
858.29631,0.0050972
857.33194,0.0050644
856.36756,0.0050107
855.40318,0.0049490
854.43880,0.0048745
853.47442,0.0047824
852.51005,0.0046957
851.54567,0.0046265
850.58129,0.0045973
849.61691,0.0045880
848.65253,0.0045760
847.68816,0.0045966
846.72378,0.0046217
845.75940,0.0046245
844.79502,0.0046046
843.83065,0.0045657
842.86627,0.0044912
841.90189,0.0043611
840.93751,0.0042260
839.97313,0.0041083
839.00876,0.0040251
838.04438,0.0039669
837.08000,0.0039129
836.11562,0.0038956
835.15124,0.0038890
834.18687,0.0038803
833.22249,0.0038737
832.25811,0.0038549
831.29373,0.0038282
830.32935,0.0037779
829.36498,0.0037061
828.40060,0.0036527
827.43622,0.0036469
826.47184,0.0036494
825.50747,0.0036495
824.54309,0.0036823
823.57871,0.0037150
822.61433,0.0037142
821.64995,0.0036963
820.68558,0.0036767
819.72120,0.0036397
818.75682,0.0035906
817.79244,0.0035502
816.82806,0.0035285
815.86369,0.0035419
814.89931,0.0035843
813.93493,0.0036476
812.97055,0.0037131
812.00618,0.0037475
811.04180,0.0037330
810.07742,0.0036993
809.11304,0.0036604
808.14866,0.0036068
807.18429,0.0035972
806.21991,0.0036011
805.25553,0.0035590
804.29115,0.0035179
803.32677,0.0034918
802.36240,0.0034718
801.39802,0.0034581
800.43364,0.0034471
799.46926,0.0034271
798.50488,0.0033929
797.54051,0.0033749
796.57613,0.0033971
795.61175,0.0034349
794.64737,0.0034311
793.68300,0.0033865
792.71862,0.0033543
791.75424,0.0033591
790.78986,0.0033679
789.82548,0.0033637
788.86111,0.0033882
787.89673,0.0034197
786.93235,0.0034247
785.96797,0.0034580
785.00359,0.0035153
784.03922,0.0035298
783.07484,0.0035288
782.11046,0.0035461
781.14608,0.0035679
780.18171,0.0035874
779.21733,0.0035435
778.25295,0.0034532
777.28857,0.0033830
776.32419,0.0033129
775.35982,0.0032694
774.39544,0.0032605
773.43106,0.0032453
772.46668,0.0032308
771.50230,0.0032386
770.53793,0.0032753
769.57355,0.0033176
768.60917,0.0033469
767.64479,0.0033424
766.68041,0.0033257
765.71604,0.0033511
764.75166,0.0034033
763.78728,0.0034695
762.82290,0.0035172
761.85853,0.0035215
760.89415,0.0035057
759.92977,0.0034669
758.96539,0.0034319
758.00101,0.0033808
757.03664,0.0033013
756.07226,0.0032519
755.10788,0.0032288
754.14350,0.0032220
753.17912,0.0032268
752.21475,0.0032427
751.25037,0.0032266
750.28599,0.0031695
749.32161,0.0031443
748.35724,0.0031507
747.39286,0.0031972
746.42848,0.0032300
745.46410,0.0032231
744.49972,0.0032283
743.53535,0.0032288
742.57097,0.0032615
741.60659,0.0033256
740.64221,0.0034065
739.67783,0.0034666
738.71346,0.0034765
737.74908,0.0034821
736.78470,0.0034955
735.82032,0.0035447
734.85594,0.0035607
733.89157,0.0035141
732.92719,0.0034467
731.96281,0.0033674
730.99843,0.0033346
730.03406,0.0033433
729.06968,0.0033933
728.10530,0.0034258
727.14092,0.0033995
726.17654,0.0033952
725.21217,0.0034714
724.24779,0.0036293
723.28341,0.0037687
722.31903,0.0038382
721.35465,0.0038451
720.39028,0.0037972
719.42590,0.0037378
718.46152,0.0036698
717.49714,0.0035688
716.53276,0.0034520
715.56839,0.0033870
714.60401,0.0033879
713.63963,0.0034292
712.67525,0.0034881
711.71088,0.0035447
710.74650,0.0035942
709.78212,0.0036105
708.81774,0.0035836
707.85336,0.0035310
706.88899,0.0034705
705.92461,0.0033983
704.96023,0.0033386
703.99585,0.0033111
703.03147,0.0032868
702.06710,0.0032623
701.10272,0.0032505
700.13834,0.0032739
699.17396,0.0033183
698.20959,0.0033524
697.24521,0.0033466
696.28083,0.0033265
695.31645,0.0033544
694.35207,0.0033792
693.38770,0.0033905
692.42332,0.0034158
691.45894,0.0034419
690.49456,0.0034599
689.53018,0.0034641
688.56581,0.0034809
687.60143,0.0035253
686.63705,0.0035846
685.67267,0.0036029
684.70829,0.0036087
683.74392,0.0036327
682.77954,0.0036440
681.81516,0.0036672
680.85078,0.0036882
679.88641,0.0037107
678.92203,0.0037243
677.95765,0.0037272
676.99327,0.0037111
676.02889,0.0036706
675.06452,0.0034699
674.10014,0.0030398
673.13576,0.0032998
672.17138,0.0044118
671.20700,0.0054944
670.24263,0.0062686
669.27825,0.0067415
668.31387,0.0069592
667.34949,0.0069019
666.38512,0.0065204
665.42074,0.0058265
664.45636,0.0048518
663.49198,0.0037062
662.52760,0.0027784
661.56323,0.0028124
660.59885,0.0033007
659.63447,0.0034379
658.67009,0.0034452
657.70571,0.0034785
656.74134,0.0035473
655.77696,0.0035929
654.81258,0.0035772
653.84820,0.0035582
652.88382,0.0035506
651.91945,0.0036047
650.95507,0.0036619
649.99069,0.0036748
649.02631,0.0036559
648.06194,0.0036303
647.09756,0.0036115
646.13318,0.0035796
645.16880,0.0035279
644.20442,0.0034303
643.24005,0.0033424
642.27567,0.0032845
641.31129,0.0032608
640.34691,0.0032958
639.38253,0.0033338
638.41816,0.0033558
637.45378,0.0033982
636.48940,0.0034608
635.52502,0.0034580
634.56065,0.0033952
633.59627,0.0032979
632.63189,0.0030938
631.66751,0.0028415
630.70313,0.0026428
629.73876,0.0024785
628.77438,0.0021753
627.81000,0.0018247
626.84562,0.0019814
625.88124,0.0028471
624.91687,0.0037841
623.95249,0.0045613
622.98811,0.0055225
622.02373,0.0060257
621.05935,0.0058503
620.09498,0.0055109
619.13060,0.0054630
618.16622,0.0057687
617.20184,0.0056955
616.23747,0.0053994
615.27309,0.0055150
614.30871,0.0057559
613.34433,0.0057627
612.37995,0.0059068
611.41558,0.0062580
610.45120,0.0060874
609.48682,0.0057265
608.52244,0.0055429
607.55806,0.0055563
606.59369,0.0056844
605.62931,0.0054645
604.66493,0.0051193
603.70055,0.0048114
602.73618,0.0044768
601.77180,0.0044388
600.80742,0.0047964
599.84304,0.0052942
598.87866,0.0056627
597.91429,0.0058309
596.94991,0.0057197
595.98553,0.0054044
595.02115,0.0052248
594.05677,0.0053210
593.09240,0.0055362
592.12802,0.0057472
591.16364,0.0059012
590.19926,0.0060902
589.23488,0.0063697
588.27051,0.0065747
587.30613,0.0065584
586.34175,0.0063694
585.37737,0.0062041
584.41300,0.0061399
583.44862,0.0062080
582.48424,0.0063460
581.51986,0.0064262
580.55548,0.0064770
579.59111,0.0064696
578.62673,0.0064418
577.66235,0.0064528
576.69797,0.0064401
575.73359,0.0063409
574.76922,0.0061416
573.80484,0.0059855
572.84046,0.0058929
571.87608,0.0057283
570.91171,0.0054700
569.94733,0.0052520
568.98295,0.0052107
568.01857,0.0052263
567.05419,0.0051584
566.08982,0.0050807
565.12544,0.0050466
564.16106,0.0050130
563.19668,0.0049764
562.23230,0.0049398
561.26793,0.0048609
560.30355,0.0047205
559.33917,0.0046016
558.37479,0.0045635
557.41041,0.0045452
556.44604,0.0045111
555.48166,0.0044483
554.51728,0.0043826
553.55290,0.0043202
552.58853,0.0042978
551.62415,0.0043265
550.65977,0.0042991
549.69539,0.0043291
548.73101,0.0044364
547.76664,0.0044806
546.80226,0.0044549
545.83788,0.0044112
544.87350,0.0043752
543.90912,0.0042282
542.94475,0.0040146
541.98037,0.0038050
541.01599,0.0035963
540.05161,0.0034129
539.08724,0.0032779
538.12286,0.0032973
537.15848,0.0033468
536.19410,0.0034358
535.22972,0.0036091
534.26535,0.0037150
533.30097,0.0037821
532.33659,0.0038452
531.37221,0.0039859
530.40783,0.0041076
529.44346,0.0041160
528.47908,0.0041065
527.51470,0.0040918
526.55032,0.0040458
525.58594,0.0038678
524.62157,0.0037158
523.65719,0.0036307
522.69281,0.0035178
521.72843,0.0035243
520.76406,0.0036138
519.79968,0.0037233
518.83530,0.0038135
517.87092,0.0039108
516.90654,0.0040386
515.94217,0.0041011
514.97779,0.0040509
514.01341,0.0038442
513.04903,0.0036636
512.08465,0.0035923
511.12028,0.0034799
510.15590,0.0033194
509.19152,0.0031946
508.22714,0.0031715
507.26276,0.0031796
506.29839,0.0032010
505.33401,0.0032965
504.36963,0.0033923
503.40525,0.0033947
502.44088,0.0033621
501.47650,0.0033789
500.51212,0.0034078
499.54774,0.0033957
498.58336,0.0033343
497.61899,0.0033452
496.65461,0.0034101
495.69023,0.0033803
494.72585,0.0033774
493.76147,0.0034394
492.79710,0.0034603
491.83272,0.0034650
490.86834,0.0034802
489.90396,0.0035198
488.93959,0.0036097
487.97521,0.0036930
487.01083,0.0037285
486.04645,0.0037594
485.08207,0.0036939
484.11770,0.0035309
483.15332,0.0033964
482.18894,0.0032208
481.22456,0.0030737
480.26018,0.0030625
479.29581,0.0030542
478.33143,0.0030748
477.36705,0.0032406
476.40267,0.0034427
475.43829,0.0035443
474.47392,0.0035513
473.50954,0.0035378
472.54516,0.0035559
471.58078,0.0035841
470.61641,0.0036030
469.65203,0.0036346
468.68765,0.0036731
467.72327,0.0036811
466.75889,0.0036816
465.79452,0.0037258
464.83014,0.0036701
463.86576,0.0034601
462.90138,0.0033576
461.93700,0.0034639
460.97263,0.0036296
460.00825,0.0037745
459.04387,0.0038980
458.07949,0.0039529
457.11512,0.0039718
456.15074,0.0039953
455.18636,0.0039790
454.22198,0.0039096
453.25760,0.0037280
452.29323,0.0035807
451.32885,0.0036148
450.36447,0.0036783
449.40009,0.0037289
448.43571,0.0037894
447.47134,0.0038523
446.50696,0.0038499
445.54258,0.0037890
444.57820,0.0037570
443.61382,0.0036912
442.64945,0.0036030
441.68507,0.0035410
440.72069,0.0035747
439.75631,0.0036639
438.79194,0.0036957
437.82756,0.0037362
436.86318,0.0037837
435.89880,0.0038070
434.93442,0.0037378
433.97005,0.0036208
433.00567,0.0035426
432.04129,0.0034480
431.07691,0.0034346
430.11253,0.0035161
429.14816,0.0036178
428.18378,0.0037263
427.21940,0.0038213
426.25502,0.0038244
425.29065,0.0037556
424.32627,0.0038335
423.36189,0.0040205
422.39751,0.0042147
421.43313,0.0043659
420.46876,0.0044195
419.50438,0.0044111
418.54000,0.0043047
417.57562,0.0041314
416.61124,0.0039507
415.64687,0.0037419
414.68249,0.0034382
413.71811,0.0032015
412.75373,0.0032188
411.78935,0.0033065
410.82498,0.0033570
409.86060,0.0033967
408.89622,0.0034464
407.93184,0.0034710
406.96747,0.0034652
406.00309,0.0034232
405.03871,0.0033361
404.07433,0.0033361
403.10995,0.0033361
402.14558,0.0033361
401.18120,0.0033361
400.21682,0.0033361
399.25244,0.0033361
