3998.31069,-0.0074968
3997.34631,-0.0074968
3996.38194,-0.0074968
3995.41756,-0.0074968
3994.45318,-0.0074968
3993.48880,-0.0074968
3992.52442,-0.0074968
3991.56005,-0.0074443
3990.59567,-0.0074247
3989.63129,-0.0074309
3988.66691,-0.0074159
3987.70253,-0.0074115
3986.73816,-0.0074653
3985.77378,-0.0075544
3984.80940,-0.0076478
3983.84502,-0.0076547
3982.88065,-0.0075860
3981.91627,-0.0075307
3980.95189,-0.0075221
3979.98751,-0.0075578
3979.02313,-0.0075939
3978.05876,-0.0076045
3977.09438,-0.0075770
3976.13000,-0.0075830
3975.16562,-0.0076428
3974.20124,-0.0076492
3973.23687,-0.0075660
3972.27249,-0.0074148
3971.30811,-0.0072967
3970.34373,-0.0072880
3969.37935,-0.0073443
3968.41498,-0.0074001
3967.45060,-0.0074639
3966.48622,-0.0075697
3965.52184,-0.0076473
3964.55747,-0.0076713
3963.59309,-0.0076367
3962.62871,-0.0075485
3961.66433,-0.0074435
3960.69995,-0.0072991
3959.73558,-0.0071701
3958.77120,-0.0070934
3957.80682,-0.0070657
3956.84244,-0.0070687
3955.87806,-0.0070940
3954.91369,-0.0071898
3953.94931,-0.0072934
3952.98493,-0.0073615
3952.02055,-0.0074291
3951.05618,-0.0075240
3950.09180,-0.0076184
3949.12742,-0.0076680
3948.16304,-0.0076589
3947.19866,-0.0075702
3946.23429,-0.0074902
3945.26991,-0.0074451
3944.30553,-0.0074068
3943.34115,-0.0073822
3942.37677,-0.0073332
3941.41240,-0.0072799
3940.44802,-0.0072765
3939.48364,-0.0073785
3938.51926,-0.0074941
3937.55488,-0.0075265
3936.59051,-0.0074912
3935.62613,-0.0074050
3934.66175,-0.0073649
3933.69737,-0.0073733
3932.73300,-0.0073839
3931.76862,-0.0073719
3930.80424,-0.0073590
3929.83986,-0.0073617
3928.87548,-0.0073281
3927.91111,-0.0073351
3926.94673,-0.0073771
3925.98235,-0.0074025
3925.01797,-0.0073880
3924.05359,-0.0073311
3923.08922,-0.0073095
3922.12484,-0.0072854
3921.16046,-0.0072695
3920.19608,-0.0072628
3919.23171,-0.0071995
3918.26733,-0.0070810
3917.30295,-0.0069629
3916.33857,-0.0069257
3915.37419,-0.0069115
3914.40982,-0.0068903
3913.44544,-0.0068733
3912.48106,-0.0068522
3911.51668,-0.0068784
3910.55230,-0.0069264
3909.58793,-0.0069784
3908.62355,-0.0070425
3907.65917,-0.0070181
3906.69479,-0.0069105
3905.73041,-0.0068853
3904.76604,-0.0068641
3903.80166,-0.0067397
3902.83728,-0.0066668
3901.87290,-0.0066597
3900.90853,-0.0066647
3899.94415,-0.0067666
3898.97977,-0.0069311
3898.01539,-0.0070387
3897.05101,-0.0070600
3896.08664,-0.0069099
3895.12226,-0.0066653
3894.15788,-0.0065535
3893.19350,-0.0064953
3892.22912,-0.0064438
3891.26475,-0.0064414
3890.30037,-0.0063995
3889.33599,-0.0063653
3888.37161,-0.0064333
3887.40724,-0.0065915
3886.44286,-0.0067058
3885.47848,-0.0066462
3884.51410,-0.0064666
3883.54972,-0.0063413
3882.58535,-0.0063855
3881.62097,-0.0065682
3880.65659,-0.0067816
3879.69221,-0.0068725
3878.72783,-0.0068088
3877.76346,-0.0067573
3876.79908,-0.0068577
3875.83470,-0.0069954
3874.87032,-0.0069200
3873.90594,-0.0066313
3872.94157,-0.0063451
3871.97719,-0.0062178
3871.01281,-0.0061968
3870.04843,-0.0061356
3869.08406,-0.0060330
3868.11968,-0.0059681
3867.15530,-0.0059838
3866.19092,-0.0061221
3865.22654,-0.0063549
3864.26217,-0.0065533
3863.29779,-0.0066372
3862.33341,-0.0066317
3861.36903,-0.0067198
3860.40465,-0.0068978
3859.44028,-0.0067868
3858.47590,-0.0063571
3857.51152,-0.0058763
3856.54714,-0.0054697
3855.58276,-0.0051633
3854.61839,-0.0049752
3853.65401,-0.0049323
3852.68963,-0.0050874
3851.72525,-0.0054013
3850.76088,-0.0057603
3849.79650,-0.0062228
3848.83212,-0.0066464
3847.86774,-0.0068133
3846.90336,-0.0068705
3845.93899,-0.0068598
3844.97461,-0.0068360
3844.01023,-0.0068011
3843.04585,-0.0065750
3842.08147,-0.0062583
3841.11710,-0.0060406
3840.15272,-0.0058664
3839.18834,-0.0056628
3838.22396,-0.0055391
3837.25959,-0.0055087
3836.29521,-0.0055430
3835.33083,-0.0056640
3834.36645,-0.0058538
3833.40207,-0.0061412
3832.43770,-0.0063480
3831.47332,-0.0063198
3830.50894,-0.0062880
3829.54456,-0.0063839
3828.58018,-0.0065249
3827.61581,-0.0066478
3826.65143,-0.0066622
3825.68705,-0.0065072
3824.72267,-0.0062678
3823.75829,-0.0061081
3822.79392,-0.0061286
3821.82954,-0.0061438
3820.86516,-0.0059481
3819.90078,-0.0056862
3818.93641,-0.0055298
3817.97203,-0.0055567
3817.00765,-0.0057588
3816.04327,-0.0059223
3815.07889,-0.0059243
3814.11452,-0.0059745
3813.15014,-0.0061770
3812.18576,-0.0063873
3811.22138,-0.0065357
3810.25700,-0.0065225
3809.29263,-0.0063799
3808.32825,-0.0063048
3807.36387,-0.0062203
3806.39949,-0.0060239
3805.43512,-0.0058231
3804.47074,-0.0056892
3803.50636,-0.0056908
3802.54198,-0.0058531
3801.57760,-0.0059884
3800.61323,-0.0059659
3799.64885,-0.0059184
3798.68447,-0.0059699
3797.72009,-0.0060974
3796.75571,-0.0062134
3795.79134,-0.0062029
3794.82696,-0.0060691
3793.86258,-0.0060399
3792.89820,-0.0061768
3791.93382,-0.0063493
3790.96945,-0.0064907
3790.00507,-0.0065270
3789.04069,-0.0064780
3788.07631,-0.0064056
3787.11194,-0.0063435
3786.14756,-0.0063223
3785.18318,-0.0062520
3784.21880,-0.0061303
3783.25442,-0.0060845
3782.29005,-0.0061555
3781.32567,-0.0062370
3780.36129,-0.0062759
3779.39691,-0.0063392
3778.43253,-0.0063694
3777.46816,-0.0063701
3776.50378,-0.0064139
3775.53940,-0.0064341
3774.57502,-0.0063739
3773.61065,-0.0062174
3772.64627,-0.0060573
3771.68189,-0.0059790
3770.71751,-0.0059063
3769.75313,-0.0057958
3768.78876,-0.0057113
3767.82438,-0.0057331
3766.86000,-0.0058190
3765.89562,-0.0059271
3764.93124,-0.0060696
3763.96687,-0.0061642
3763.00249,-0.0061818
3762.03811,-0.0061625
3761.07373,-0.0061111
3760.10935,-0.0060355
3759.14498,-0.0060128
3758.18060,-0.0060045
3757.21622,-0.0059009
3756.25184,-0.0058361
3755.28747,-0.0057361
3754.32309,-0.0054663
3753.35871,-0.0052043
3752.39433,-0.0050487
3751.42995,-0.0050965
3750.46558,-0.0052180
3749.50120,-0.0051071
3748.53682,-0.0049459
3747.57244,-0.0049325
3746.60806,-0.0049298
3745.64369,-0.0048746
3744.67931,-0.0049017
3743.71493,-0.0049539
3742.75055,-0.0049571
3741.78618,-0.0050212
3740.82180,-0.0051804
3739.85742,-0.0053931
3738.89304,-0.0055057
3737.92866,-0.0054127
3736.96429,-0.0052518
3735.99991,-0.0051275
3735.03553,-0.0050694
3734.07115,-0.0050866
3733.10677,-0.0052426
3732.14240,-0.0054906
3731.17802,-0.0056508
3730.21364,-0.0057117
3729.24926,-0.0057284
3728.28488,-0.0056770
3727.32051,-0.0056104
3726.35613,-0.0055407
3725.39175,-0.0054001
3724.42737,-0.0052454
3723.46300,-0.0051522
3722.49862,-0.0051995
3721.53424,-0.0054063
3720.56986,-0.0056045
3719.60548,-0.0057574
3718.64111,-0.0059332
3717.67673,-0.0059863
3716.71235,-0.0058628
3715.74797,-0.0057147
3714.78359,-0.0055541
3713.81922,-0.0053100
3712.85484,-0.0050153
3711.89046,-0.0048139
3710.92608,-0.0047968
3709.96171,-0.0048569
3708.99733,-0.0049682
3708.03295,-0.0052014
3707.06857,-0.0054302
3706.10419,-0.0054854
3705.13982,-0.0054776
3704.17544,-0.0055401
3703.21106,-0.0055399
3702.24668,-0.0054593
3701.28230,-0.0054360
3700.31793,-0.0054874
3699.35355,-0.0055389
3698.38917,-0.0055756
3697.42479,-0.0057001
3696.46041,-0.0058196
3695.49604,-0.0057810
3694.53166,-0.0056331
3693.56728,-0.0053925
3692.60290,-0.0050932
3691.63853,-0.0048191
3690.67415,-0.0046249
3689.70977,-0.0045506
3688.74539,-0.0045990
3687.78101,-0.0047179
3686.81664,-0.0049162
3685.85226,-0.0052169
3684.88788,-0.0054957
3683.92350,-0.0057464
3682.95912,-0.0060107
3681.99475,-0.0061252
3681.03037,-0.0060143
3680.06599,-0.0057611
3679.10161,-0.0054755
3678.13724,-0.0053037
3677.17286,-0.0052549
3676.20848,-0.0051214
3675.24410,-0.0049131
3674.27972,-0.0048099
3673.31535,-0.0047952
3672.35097,-0.0048794
3671.38659,-0.0050740
3670.42221,-0.0052309
3669.45783,-0.0052501
3668.49346,-0.0052378
3667.52908,-0.0053625
3666.56470,-0.0055950
3665.60032,-0.0057410
3664.63594,-0.0056915
3663.67157,-0.0056444
3662.70719,-0.0057176
3661.74281,-0.0057109
3660.77843,-0.0056488
3659.81406,-0.0056550
3658.84968,-0.0056718
3657.88530,-0.0056550
3656.92092,-0.0056272
3655.95654,-0.0056045
3654.99217,-0.0054823
3654.02779,-0.0052528
3653.06341,-0.0050123
3652.09903,-0.0047898
3651.13465,-0.0045981
3650.17028,-0.0044349
3649.20590,-0.0044398
3648.24152,-0.0046512
3647.27714,-0.0049179
3646.31276,-0.0051965
3645.34839,-0.0054473
3644.38401,-0.0056437
3643.41963,-0.0057827
3642.45525,-0.0057836
3641.49088,-0.0056096
3640.52650,-0.0054018
3639.56212,-0.0053079
3638.59774,-0.0052707
3637.63336,-0.0052551
3636.66899,-0.0053088
3635.70461,-0.0054195
3634.74023,-0.0054819
3633.77585,-0.0053703
3632.81147,-0.0051365
3631.84710,-0.0048642
3630.88272,-0.0045562
3629.91834,-0.0043527
3628.95396,-0.0043705
3627.98959,-0.0044708
3627.02521,-0.0045625
3626.06083,-0.0047354
3625.09645,-0.0049806
3624.13207,-0.0051630
3623.16770,-0.0051853
3622.20332,-0.0050549
3621.23894,-0.0048728
3620.27456,-0.0047155
3619.31018,-0.0046385
3618.34581,-0.0046739
3617.38143,-0.0047243
3616.41705,-0.0047649
3615.45267,-0.0048524
3614.48829,-0.0049361
3613.52392,-0.0049632
3612.55954,-0.0049209
3611.59516,-0.0049225
3610.63078,-0.0050269
3609.66641,-0.0051378
3608.70203,-0.0052254
3607.73765,-0.0052757
3606.77327,-0.0052965
3605.80889,-0.0052777
3604.84452,-0.0052641
3603.88014,-0.0052577
3602.91576,-0.0052008
3601.95138,-0.0052175
3600.98700,-0.0052587
3600.02263,-0.0053073
3599.05825,-0.0054226
3598.09387,-0.0054391
3597.12949,-0.0053663
3596.16512,-0.0053062
3595.20074,-0.0052452
3594.23636,-0.0051049
3593.27198,-0.0049255
3592.30760,-0.0047767
3591.34323,-0.0046342
3590.37885,-0.0046016
3589.41447,-0.0046473
3588.45009,-0.0047150
3587.48571,-0.0048183
3586.52134,-0.0048967
3585.55696,-0.0050162
3584.59258,-0.0051737
3583.62820,-0.0052534
3582.66382,-0.0052091
3581.69945,-0.0051193
3580.73507,-0.0050310
3579.77069,-0.0049465
3578.80631,-0.0049636
3577.84194,-0.0050378
3576.87756,-0.0050520
3575.91318,-0.0050182
3574.94880,-0.0050412
3573.98442,-0.0050958
3573.02005,-0.0050442
3572.05567,-0.0049520
3571.09129,-0.0048767
3570.12691,-0.0048111
3569.16253,-0.0047604
3568.19816,-0.0047101
3567.23378,-0.0047056
3566.26940,-0.0047083
3565.30502,-0.0047008
3564.34065,-0.0047555
3563.37627,-0.0048620
3562.41189,-0.0049512
3561.44751,-0.0049854
3560.48313,-0.0050102
3559.51876,-0.0050751
3558.55438,-0.0051717
3557.59000,-0.0052204
3556.62562,-0.0051946
3555.66124,-0.0051920
3554.69687,-0.0052295
3553.73249,-0.0052710
3552.76811,-0.0052750
3551.80373,-0.0052017
3550.83935,-0.0051107
3549.87498,-0.0049851
3548.91060,-0.0048231
3547.94622,-0.0047413
3546.98184,-0.0047006
3546.01747,-0.0046418
3545.05309,-0.0046392
3544.08871,-0.0047164
3543.12433,-0.0048119
3542.15995,-0.0048560
3541.19558,-0.0048208
3540.23120,-0.0047654
3539.26682,-0.0047669
3538.30244,-0.0048100
3537.33806,-0.0048840
3536.37369,-0.0049709
3535.40931,-0.0050283
3534.44493,-0.0050933
3533.48055,-0.0051571
3532.51618,-0.0051743
3531.55180,-0.0051488
3530.58742,-0.0050864
3529.62304,-0.0049978
3528.65866,-0.0049011
3527.69429,-0.0048508
3526.72991,-0.0048808
3525.76553,-0.0049181
3524.80115,-0.0048978
3523.83677,-0.0048658
3522.87240,-0.0048374
3521.90802,-0.0047767
3520.94364,-0.0046955
3519.97926,-0.0046150
3519.01488,-0.0045545
3518.05051,-0.0045109
3517.08613,-0.0044807
3516.12175,-0.0044861
3515.15737,-0.0045358
3514.19300,-0.0045547
3513.22862,-0.0045077
3512.26424,-0.0045225
3511.29986,-0.0045636
3510.33548,-0.0045438
3509.37111,-0.0045304
3508.40673,-0.0045179
3507.44235,-0.0045213
3506.47797,-0.0045655
3505.51359,-0.0046254
3504.54922,-0.0046831
3503.58484,-0.0047039
3502.62046,-0.0046588
3501.65608,-0.0045939
3500.69171,-0.0046272
3499.72733,-0.0046837
3498.76295,-0.0046780
3497.79857,-0.0047129
3496.83419,-0.0047464
3495.86982,-0.0047357
3494.90544,-0.0047610
3493.94106,-0.0047962
3492.97668,-0.0047907
3492.01230,-0.0047540
3491.04793,-0.0046763
3490.08355,-0.0045892
3489.11917,-0.0045703
3488.15479,-0.0045788
3487.19041,-0.0045825
3486.22604,-0.0046405
3485.26166,-0.0046837
3484.29728,-0.0046776
3483.33290,-0.0047128
3482.36853,-0.0047553
3481.40415,-0.0047886
3480.43977,-0.0048352
3479.47539,-0.0048019
3478.51101,-0.0047208
3477.54664,-0.0047016
3476.58226,-0.0047112
3475.61788,-0.0047142
3474.65350,-0.0047094
3473.68912,-0.0046754
3472.72475,-0.0046421
3471.76037,-0.0046387
3470.79599,-0.0046550
3469.83161,-0.0046974
3468.86724,-0.0047139
3467.90286,-0.0046652
3466.93848,-0.0046155
3465.97410,-0.0045873
3465.00972,-0.0045533
3464.04535,-0.0045134
3463.08097,-0.0044771
3462.11659,-0.0044351
3461.15221,-0.0043938
3460.18783,-0.0043747
3459.22346,-0.0043741
3458.25908,-0.0043791
3457.29470,-0.0043560
3456.33032,-0.0043249
3455.36594,-0.0043317
3454.40157,-0.0043393
3453.43719,-0.0043455
3452.47281,-0.0043752
3451.50843,-0.0043749
3450.54406,-0.0043364
3449.57968,-0.0043132
3448.61530,-0.0043133
3447.65092,-0.0043304
3446.68654,-0.0043428
3445.72217,-0.0043514
3444.75779,-0.0043916
3443.79341,-0.0044192
3442.82903,-0.0043742
3441.86465,-0.0043019
3440.90028,-0.0042551
3439.93590,-0.0042155
3438.97152,-0.0042073
3438.00714,-0.0042156
3437.04276,-0.0041891
3436.07839,-0.0041766
3435.11401,-0.0041908
3434.14963,-0.0042690
3433.18525,-0.0043937
3432.22088,-0.0044353
3431.25650,-0.0044161
3430.29212,-0.0043936
3429.32774,-0.0043701
3428.36336,-0.0043501
3427.39899,-0.0043393
3426.43461,-0.0043104
3425.47023,-0.0042215
3424.50585,-0.0041234
3423.54147,-0.0040836
3422.57710,-0.0041450
3421.61272,-0.0042393
3420.64834,-0.0042759
3419.68396,-0.0043008
3418.71959,-0.0043210
3417.75521,-0.0042983
3416.79083,-0.0042357
3415.82645,-0.0041934
3414.86207,-0.0042027
3413.89770,-0.0042282
3412.93332,-0.0042616
3411.96894,-0.0043066
3411.00456,-0.0043651
3410.04018,-0.0043951
3409.07581,-0.0043741
3408.11143,-0.0043095
3407.14705,-0.0042071
3406.18267,-0.0041113
3405.21829,-0.0040267
3404.25392,-0.0039791
3403.28954,-0.0040256
3402.32516,-0.0041469
3401.36078,-0.0042417
3400.39641,-0.0042637
3399.43203,-0.0042686
3398.46765,-0.0042396
3397.50327,-0.0041533
3396.53889,-0.0040207
3395.57452,-0.0038824
3394.61014,-0.0038080
3393.64576,-0.0037639
3392.68138,-0.0037621
3391.71700,-0.0038546
3390.75263,-0.0039532
3389.78825,-0.0039814
3388.82387,-0.0040030
3387.85949,-0.0040529
3386.89512,-0.0040633
3385.93074,-0.0040357
3384.96636,-0.0039812
3384.00198,-0.0038669
3383.03760,-0.0037390
3382.07323,-0.0036507
3381.10885,-0.0036313
3380.14447,-0.0036629
3379.18009,-0.0036623
3378.21571,-0.0036349
3377.25134,-0.0036483
3376.28696,-0.0037026
3375.32258,-0.0037729
3374.35820,-0.0038535
3373.39382,-0.0039069
3372.42945,-0.0039118
3371.46507,-0.0039376
3370.50069,-0.0040183
3369.53631,-0.0040973
3368.57194,-0.0041212
3367.60756,-0.0040819
3366.64318,-0.0040107
3365.67880,-0.0039338
3364.71442,-0.0038557
3363.75005,-0.0037798
3362.78567,-0.0037405
3361.82129,-0.0037444
3360.85691,-0.0037708
3359.89253,-0.0038342
3358.92816,-0.0039034
3357.96378,-0.0039453
3356.99940,-0.0039458
3356.03502,-0.0039075
3355.07065,-0.0038408
3354.10627,-0.0037293
3353.14189,-0.0036250
3352.17751,-0.0035513
3351.21313,-0.0035169
3350.24876,-0.0035117
3349.28438,-0.0035054
3348.32000,-0.0035583
3347.35562,-0.0036407
3346.39124,-0.0037206
3345.42687,-0.0037796
3344.46249,-0.0037671
3343.49811,-0.0037278
3342.53373,-0.0036977
3341.56935,-0.0036695
3340.60498,-0.0035879
3339.64060,-0.0035059
3338.67622,-0.0034732
3337.71184,-0.0034688
3336.74747,-0.0035502
3335.78309,-0.0036175
3334.81871,-0.0036209
3333.85433,-0.0036092
3332.88995,-0.0035831
3331.92558,-0.0035878
3330.96120,-0.0035791
3329.99682,-0.0035407
3329.03244,-0.0034916
3328.06806,-0.0034352
3327.10369,-0.0033775
3326.13931,-0.0033200
3325.17493,-0.0032882
3324.21055,-0.0032345
3323.24618,-0.0031750
3322.28180,-0.0031547
3321.31742,-0.0031740
3320.35304,-0.0032139
3319.38866,-0.0032395
3318.42429,-0.0033095
3317.45991,-0.0033996
3316.49553,-0.0034504
3315.53115,-0.0034974
3314.56677,-0.0035434
3313.60240,-0.0035808
3312.63802,-0.0036061
3311.67364,-0.0036282
3310.70926,-0.0036472
3309.74488,-0.0036376
3308.78051,-0.0035615
3307.81613,-0.0034265
3306.85175,-0.0033258
3305.88737,-0.0032864
3304.92300,-0.0032443
3303.95862,-0.0031895
3302.99424,-0.0031480
3302.02986,-0.0031157
3301.06548,-0.0031074
3300.10111,-0.0031283
3299.13673,-0.0031682
3298.17235,-0.0032193
3297.20797,-0.0032426
3296.24359,-0.0032434
3295.27922,-0.0032590
3294.31484,-0.0032682
3293.35046,-0.0032063
3292.38608,-0.0030911
3291.42171,-0.0029919
3290.45733,-0.0029170
3289.49295,-0.0028752
3288.52857,-0.0028582
3287.56419,-0.0028950
3286.59982,-0.0030030
3285.63544,-0.0030814
3284.67106,-0.0030924
3283.70668,-0.0030768
3282.74230,-0.0030387
3281.77793,-0.0029533
3280.81355,-0.0028642
3279.84917,-0.0028373
3278.88479,-0.0028589
3277.92041,-0.0029108
3276.95604,-0.0029698
3275.99166,-0.0030351
3275.02728,-0.0031124
3274.06290,-0.0031497
3273.09853,-0.0031470
3272.13415,-0.0031460
3271.16977,-0.0030957
3270.20539,-0.0029644
3269.24101,-0.0028752
3268.27664,-0.0028752
3267.31226,-0.0028745
3266.34788,-0.0028583
3265.38350,-0.0028454
3264.41912,-0.0028533
3263.45475,-0.0029188
3262.49037,-0.0030181
3261.52599,-0.0031007
3260.56161,-0.0031414
3259.59724,-0.0031393
3258.63286,-0.0031480
3257.66848,-0.0031955
3256.70410,-0.0032206
3255.73972,-0.0031805
3254.77535,-0.0031183
3253.81097,-0.0030677
3252.84659,-0.0030142
3251.88221,-0.0029748
3250.91783,-0.0029582
3249.95346,-0.0029313
3248.98908,-0.0028815
3248.02470,-0.0028615
3247.06032,-0.0028853
3246.09594,-0.0028910
3245.13157,-0.0029055
3244.16719,-0.0029336
3243.20281,-0.0029498
3242.23843,-0.0029728
3241.27406,-0.0029637
3240.30968,-0.0029519
3239.34530,-0.0029526
3238.38092,-0.0029092
3237.41654,-0.0028416
3236.45217,-0.0027923
3235.48779,-0.0027684
3234.52341,-0.0027664
3233.55903,-0.0027805
3232.59465,-0.0027457
3231.63028,-0.0026654
3230.66590,-0.0025983
3229.70152,-0.0025252
3228.73714,-0.0024743
3227.77276,-0.0024577
3226.80839,-0.0024466
3225.84401,-0.0024310
3224.87963,-0.0024090
3223.91525,-0.0024108
3222.95088,-0.0024437
3221.98650,-0.0024814
3221.02212,-0.0024856
3220.05774,-0.0024940
3219.09336,-0.0025529
3218.12899,-0.0026146
3217.16461,-0.0026834
3216.20023,-0.0027823
3215.23585,-0.0028759
3214.27147,-0.0029276
3213.30710,-0.0029312
3212.34272,-0.0029350
3211.37834,-0.0029405
3210.41396,-0.0029067
3209.44959,-0.0028772
3208.48521,-0.0028687
3207.52083,-0.0028248
3206.55645,-0.0027523
3205.59207,-0.0026893
3204.62770,-0.0026426
3203.66332,-0.0026255
3202.69894,-0.0026316
3201.73456,-0.0026168
3200.77018,-0.0025972
3199.80581,-0.0025805
3198.84143,-0.0025488
3197.87705,-0.0025615
3196.91267,-0.0026049
3195.94829,-0.0026494
3194.98392,-0.0027052
3194.01954,-0.0027216
3193.05516,-0.0027286
3192.09078,-0.0027749
3191.12641,-0.0028123
3190.16203,-0.0028099
3189.19765,-0.0027858
3188.23327,-0.0027321
3187.26889,-0.0026580
3186.30452,-0.0026125
3185.34014,-0.0026015
3184.37576,-0.0026049
3183.41138,-0.0025813
3182.44700,-0.0025516
3181.48263,-0.0025722
3180.51825,-0.0026003
3179.55387,-0.0025968
3178.58949,-0.0025766
3177.62512,-0.0025590
3176.66074,-0.0025442
3175.69636,-0.0025316
3174.73198,-0.0025118
3173.76760,-0.0025025
3172.80323,-0.0025194
3171.83885,-0.0025245
3170.87447,-0.0025711
3169.91009,-0.0026442
3168.94571,-0.0026513
3167.98134,-0.0026278
3167.01696,-0.0025976
3166.05258,-0.0025694
3165.08820,-0.0025325
3164.12382,-0.0024421
3163.15945,-0.0023442
3162.19507,-0.0023229
3161.23069,-0.0023597
3160.26631,-0.0024190
3159.30194,-0.0025328
3158.33756,-0.0026402
3157.37318,-0.0026831
3156.40880,-0.0026957
3155.44442,-0.0026957
3154.48005,-0.0026834
3153.51567,-0.0026028
3152.55129,-0.0024541
3151.58691,-0.0023271
3150.62253,-0.0022670
3149.65816,-0.0022684
3148.69378,-0.0022992
3147.72940,-0.0023404
3146.76502,-0.0023638
3145.80065,-0.0023364
3144.83627,-0.0022821
3143.87189,-0.0022615
3142.90751,-0.0022704
3141.94313,-0.0022430
3140.97876,-0.0022025
3140.01438,-0.0021925
3139.05000,-0.0022120
3138.08562,-0.0022794
3137.12124,-0.0023493
3136.15687,-0.0023891
3135.19249,-0.0024121
3134.22811,-0.0023935
3133.26373,-0.0023793
3132.29935,-0.0024099
3131.33498,-0.0024435
3130.37060,-0.0024662
3129.40622,-0.0024566
3128.44184,-0.0024062
3127.47747,-0.0023583
3126.51309,-0.0023002
3125.54871,-0.0022079
3124.58433,-0.0021325
3123.61995,-0.0020853
3122.65558,-0.0020524
3121.69120,-0.0020660
3120.72682,-0.0021032
3119.76244,-0.0021383
3118.79806,-0.0021924
3117.83369,-0.0022306
3116.86931,-0.0022261
3115.90493,-0.0022061
3114.94055,-0.0021647
3113.97618,-0.0021275
3113.01180,-0.0021238
3112.04742,-0.0021233
3111.08304,-0.0021610
3110.11866,-0.0022248
3109.15429,-0.0022552
3108.18991,-0.0022759
3107.22553,-0.0022801
3106.26115,-0.0022492
3105.29677,-0.0021887
3104.33240,-0.0021294
3103.36802,-0.0020870
3102.40364,-0.0020377
3101.43926,-0.0020034
3100.47488,-0.0020123
3099.51051,-0.0020535
3098.54613,-0.0020580
3097.58175,-0.0020293
3096.61737,-0.0020371
3095.65300,-0.0020617
3094.68862,-0.0020971
3093.72424,-0.0021423
3092.75986,-0.0021928
3091.79548,-0.0022462
3090.83111,-0.0022812
3089.86673,-0.0023173
3088.90235,-0.0023369
3087.93797,-0.0023002
3086.97359,-0.0022407
3086.00922,-0.0022408
3085.04484,-0.0022842
3084.08046,-0.0022947
3083.11608,-0.0022892
3082.15171,-0.0022911
3081.18733,-0.0023065
3080.22295,-0.0023023
3079.25857,-0.0022551
3078.29419,-0.0022455
3077.32982,-0.0022689
3076.36544,-0.0022705
3075.40106,-0.0022870
3074.43668,-0.0023052
3073.47230,-0.0022675
3072.50793,-0.0021898
3071.54355,-0.0021347
3070.57917,-0.0021200
3069.61479,-0.0021008
3068.65041,-0.0020634
3067.68604,-0.0020466
3066.72166,-0.0020878
3065.75728,-0.0021492
3064.79290,-0.0021719
3063.82853,-0.0021634
3062.86415,-0.0021273
3061.89977,-0.0021139
3060.93539,-0.0021503
3059.97101,-0.0021898
3059.00664,-0.0022193
3058.04226,-0.0022174
3057.07788,-0.0022169
3056.11350,-0.0022210
3055.14912,-0.0021934
3054.18475,-0.0021560
3053.22037,-0.0020931
3052.25599,-0.0020319
3051.29161,-0.0020223
3050.32724,-0.0020738
3049.36286,-0.0021405
3048.39848,-0.0021729
3047.43410,-0.0021922
3046.46972,-0.0021817
3045.50535,-0.0021548
3044.54097,-0.0021373
3043.57659,-0.0021096
3042.61221,-0.0020709
3041.64783,-0.0020381
3040.68346,-0.0020399
3039.71908,-0.0020460
3038.75470,-0.0020348
3037.79032,-0.0020227
3036.82594,-0.0020159
3035.86157,-0.0020079
3034.89719,-0.0019619
3033.93281,-0.0019070
3032.96843,-0.0019001
3032.00406,-0.0019173
3031.03968,-0.0019261
3030.07530,-0.0019555
3029.11092,-0.0020044
3028.14654,-0.0020327
3027.18217,-0.0020407
3026.21779,-0.0020377
3025.25341,-0.0020257
3024.28903,-0.0019964
3023.32465,-0.0019619
3022.36028,-0.0019398
3021.39590,-0.0019354
3020.43152,-0.0019422
3019.46714,-0.0019511
3018.50276,-0.0019959
3017.53839,-0.0020497
3016.57401,-0.0020746
3015.60963,-0.0020705
3014.64525,-0.0020383
3013.68088,-0.0019936
3012.71650,-0.0019252
3011.75212,-0.0018644
3010.78774,-0.0018249
3009.82336,-0.0018065
3008.85899,-0.0018291
3007.89461,-0.0018812
3006.93023,-0.0019423
3005.96585,-0.0019638
3005.00147,-0.0019722
3004.03710,-0.0019630
3003.07272,-0.0019076
3002.10834,-0.0018480
3001.14396,-0.0017777
3000.17959,-0.0017352
2999.21521,-0.0017294
2998.25083,-0.0017411
2997.28645,-0.0017954
2996.32207,-0.0018673
2995.35770,-0.0019163
2994.39332,-0.0019364
2993.42894,-0.0019636
2992.46456,-0.0019549
2991.50018,-0.0018993
2990.53581,-0.0018607
2989.57143,-0.0018407
2988.60705,-0.0018382
2987.64267,-0.0018261
2986.67829,-0.0018233
2985.71392,-0.0018444
2984.74954,-0.0018508
2983.78516,-0.0018421
2982.82078,-0.0018173
2981.85641,-0.0017850
2980.89203,-0.0017317
2979.92765,-0.0016823
2978.96327,-0.0016614
2977.99889,-0.0016477
2977.03452,-0.0016300
2976.07014,-0.0015953
2975.10576,-0.0015832
2974.14138,-0.0015717
2973.17700,-0.0015445
2972.21263,-0.0015216
2971.24825,-0.0014651
2970.28387,-0.0014174
2969.31949,-0.0014142
2968.35512,-0.0014237
2967.39074,-0.0014034
2966.42636,-0.0013562
2965.46198,-0.0013112
2964.49760,-0.0012658
2963.53323,-0.0012314
2962.56885,-0.0011865
2961.60447,-0.0011362
2960.64009,-0.0010799
2959.67571,-0.0010237
2958.71134,-0.0010269
2957.74696,-0.0010497
2956.78258,-0.0010514
2955.81820,-0.0010477
2954.85382,-0.0010570
2953.88945,-0.0010695
2952.92507,-0.0010591
2951.96069,-0.0010309
2950.99631,-0.0009833
2950.03194,-0.0009509
2949.06756,-0.0009429
2948.10318,-0.0009568
2947.13880,-0.0009986
2946.17442,-0.0010325
2945.21005,-0.0010575
2944.24567,-0.0010553
2943.28129,-0.0010199
2942.31691,-0.0009539
2941.35253,-0.0008410
2940.38816,-0.0007048
2939.42378,-0.0005596
2938.45940,-0.0004358
2937.49502,-0.0003337
2936.53065,-0.0002371
2935.56627,-0.0001678
2934.60189,-0.0001147
2933.63751,-0.0000634
2932.67313,0.0000017
2931.70876,0.0000875
2930.74438,0.0001721
2929.78000,0.0002473
2928.81562,0.0003184
2927.85124,0.0003864
2926.88687,0.0004466
2925.92249,0.0005015
2924.95811,0.0005559
2923.99373,0.0005916
2923.02935,0.0005762
2922.06498,0.0005186
2921.10060,0.0004589
2920.13622,0.0003915
2919.17184,0.0002869
2918.20747,0.0001705
2917.24309,0.0000689
2916.27871,-0.0000204
2915.31433,-0.0000956
2914.34995,-0.0001731
2913.38558,-0.0002357
2912.42120,-0.0002878
2911.45682,-0.0003592
2910.49244,-0.0004204
2909.52806,-0.0004964
2908.56369,-0.0006012
2907.59931,-0.0006826
2906.63493,-0.0007345
2905.67055,-0.0007855
2904.70618,-0.0008411
2903.74180,-0.0008929
2902.77742,-0.0009532
2901.81304,-0.0009943
2900.84866,-0.0010028
2899.88429,-0.0009868
2898.91991,-0.0009432
2897.95553,-0.0009226
2896.99115,-0.0009229
2896.02677,-0.0009199
2895.06240,-0.0009478
2894.09802,-0.0010236
2893.13364,-0.0011108
2892.16926,-0.0011774
2891.20488,-0.0012521
2890.24051,-0.0013195
2889.27613,-0.0013473
2888.31175,-0.0013403
2887.34737,-0.0013120
2886.38300,-0.0012929
2885.41862,-0.0012897
2884.45424,-0.0012936
2883.48986,-0.0012862
2882.52548,-0.0012830
2881.56111,-0.0012893
2880.59673,-0.0012803
2879.63235,-0.0012766
2878.66797,-0.0012695
2877.70359,-0.0012662
2876.73922,-0.0012820
2875.77484,-0.0012828
2874.81046,-0.0012741
2873.84608,-0.0012777
2872.88171,-0.0012839
2871.91733,-0.0012664
2870.95295,-0.0012374
2869.98857,-0.0012108
2869.02419,-0.0011679
2868.05982,-0.0011184
2867.09544,-0.0010824
2866.13106,-0.0010677
2865.16668,-0.0010415
2864.20230,-0.0009808
2863.23793,-0.0009241
2862.27355,-0.0008816
2861.30917,-0.0008303
2860.34479,-0.0007541
2859.38041,-0.0006661
2858.41604,-0.0005865
2857.45166,-0.0005066
2856.48728,-0.0004370
2855.52290,-0.0004011
2854.55853,-0.0003827
2853.59415,-0.0003567
2852.62977,-0.0003531
2851.66539,-0.0004119
2850.70101,-0.0005114
2849.73664,-0.0006216
2848.77226,-0.0007343
2847.80788,-0.0008629
2846.84350,-0.0010007
2845.87912,-0.0011049
2844.91475,-0.0011934
2843.95037,-0.0012749
2842.98599,-0.0013095
2842.02161,-0.0013126
2841.05724,-0.0013377
2840.09286,-0.0014058
2839.12848,-0.0014675
2838.16410,-0.0015032
2837.19972,-0.0015472
2836.23535,-0.0015871
2835.27097,-0.0016008
2834.30659,-0.0015862
2833.34221,-0.0015661
2832.37783,-0.0015461
2831.41346,-0.0015083
2830.44908,-0.0014714
2829.48470,-0.0014523
2828.52032,-0.0014646
2827.55594,-0.0014973
2826.59157,-0.0015298
2825.62719,-0.0015762
2824.66281,-0.0016059
2823.69843,-0.0015998
2822.73406,-0.0016013
2821.76968,-0.0016175
2820.80530,-0.0016275
2819.84092,-0.0016164
2818.87654,-0.0015724
2817.91217,-0.0015203
2816.94779,-0.0015027
2815.98341,-0.0015057
2815.01903,-0.0015011
2814.05465,-0.0015167
2813.09028,-0.0015448
2812.12590,-0.0015771
2811.16152,-0.0016478
2810.19714,-0.0017044
2809.23276,-0.0017207
2808.26839,-0.0017239
2807.30401,-0.0017085
2806.33963,-0.0017127
2805.37525,-0.0017423
2804.41088,-0.0017604
2803.44650,-0.0017639
2802.48212,-0.0017638
2801.51774,-0.0017576
2800.55336,-0.0017565
2799.58899,-0.0017573
2798.62461,-0.0017028
2797.66023,-0.0016372
2796.69585,-0.0016060
2795.73147,-0.0015943
2794.76710,-0.0016269
2793.80272,-0.0016625
2792.83834,-0.0016847
2791.87396,-0.0017038
2790.90959,-0.0017093
2789.94521,-0.0017174
2788.98083,-0.0017215
2788.01645,-0.0017135
2787.05207,-0.0016923
2786.08770,-0.0016938
2785.12332,-0.0017138
2784.15894,-0.0017312
2783.19456,-0.0017612
2782.23018,-0.0017634
2781.26581,-0.0017484
2780.30143,-0.0017403
2779.33705,-0.0017309
2778.37267,-0.0017161
2777.40829,-0.0016888
2776.44392,-0.0016682
2775.47954,-0.0016552
2774.51516,-0.0016752
2773.55078,-0.0017089
2772.58641,-0.0017153
2771.62203,-0.0017176
2770.65765,-0.0017001
2769.69327,-0.0016760
2768.72889,-0.0016718
2767.76452,-0.0016657
2766.80014,-0.0016411
2765.83576,-0.0016113
2764.87138,-0.0015943
2763.90700,-0.0015834
2762.94263,-0.0015862
2761.97825,-0.0015895
2761.01387,-0.0016004
2760.04949,-0.0016367
2759.08512,-0.0016683
2758.12074,-0.0016966
2757.15636,-0.0017189
2756.19198,-0.0017300
2755.22760,-0.0017395
2754.26323,-0.0017419
2753.29885,-0.0017341
2752.33447,-0.0017149
2751.37009,-0.0017004
2750.40571,-0.0017001
2749.44134,-0.0017205
2748.47696,-0.0017457
2747.51258,-0.0017471
2746.54820,-0.0017373
2745.58382,-0.0017222
2744.61945,-0.0017130
2743.65507,-0.0017159
2742.69069,-0.0017075
2741.72631,-0.0016912
2740.76194,-0.0016883
2739.79756,-0.0016930
2738.83318,-0.0016794
2737.86880,-0.0016570
2736.90442,-0.0016478
2735.94005,-0.0016432
2734.97567,-0.0016372
2734.01129,-0.0016283
2733.04691,-0.0016232
2732.08253,-0.0016326
2731.11816,-0.0016501
2730.15378,-0.0016648
2729.18940,-0.0016703
2728.22502,-0.0016671
2727.26065,-0.0016636
2726.29627,-0.0016697
2725.33189,-0.0016850
2724.36751,-0.0016882
2723.40313,-0.0016764
2722.43876,-0.0016689
2721.47438,-0.0016619
2720.51000,-0.0016494
2719.54562,-0.0016283
2718.58124,-0.0015894
2717.61687,-0.0015479
2716.65249,-0.0015390
2715.68811,-0.0015673
2714.72373,-0.0015920
2713.75935,-0.0015977
2712.79498,-0.0015997
2711.83060,-0.0016058
2710.86622,-0.0016202
2709.90184,-0.0016337
2708.93747,-0.0016342
2707.97309,-0.0016228
2707.00871,-0.0016255
2706.04433,-0.0016470
2705.07995,-0.0016744
2704.11558,-0.0017059
2703.15120,-0.0017169
2702.18682,-0.0017122
2701.22244,-0.0016993
2700.25806,-0.0016761
2699.29369,-0.0016558
2698.32931,-0.0016303
2697.36493,-0.0015999
2696.40055,-0.0015700
2695.43618,-0.0015641
2694.47180,-0.0015768
2693.50742,-0.0015867
2692.54304,-0.0016015
2691.57866,-0.0015992
2690.61429,-0.0015904
2689.64991,-0.0015872
2688.68553,-0.0015769
2687.72115,-0.0015567
2686.75677,-0.0015276
2685.79240,-0.0015112
2684.82802,-0.0015019
2683.86364,-0.0015004
2682.89926,-0.0015056
2681.93488,-0.0015130
2680.97051,-0.0015250
2680.00613,-0.0015308
2679.04175,-0.0015530
2678.07737,-0.0015781
2677.11300,-0.0015885
2676.14862,-0.0015907
2675.18424,-0.0015836
2674.21986,-0.0015821
2673.25548,-0.0015758
2672.29111,-0.0015608
2671.32673,-0.0015451
2670.36235,-0.0015396
2669.39797,-0.0015514
2668.43359,-0.0015792
2667.46922,-0.0016135
2666.50484,-0.0016261
2665.54046,-0.0016291
2664.57608,-0.0016150
2663.61171,-0.0015783
2662.64733,-0.0015540
2661.68295,-0.0015376
2660.71857,-0.0015276
2659.75419,-0.0015339
2658.78982,-0.0015545
2657.82544,-0.0015811
2656.86106,-0.0016041
2655.89668,-0.0016092
2654.93230,-0.0016014
2653.96793,-0.0015833
2653.00355,-0.0015290
2652.03917,-0.0014685
2651.07479,-0.0014378
2650.11041,-0.0014418
2649.14604,-0.0014787
2648.18166,-0.0015295
2647.21728,-0.0015719
2646.25290,-0.0015848
2645.28853,-0.0015763
2644.32415,-0.0015529
2643.35977,-0.0015242
2642.39539,-0.0014959
2641.43101,-0.0014702
2640.46664,-0.0014553
2639.50226,-0.0014387
2638.53788,-0.0014524
2637.57350,-0.0014936
2636.60912,-0.0015271
2635.64475,-0.0015461
2634.68037,-0.0015459
2633.71599,-0.0015445
2632.75161,-0.0015270
2631.78724,-0.0015057
2630.82286,-0.0015182
2629.85848,-0.0015503
2628.89410,-0.0015564
2627.92972,-0.0015207
2626.96535,-0.0014773
2626.00097,-0.0014331
2625.03659,-0.0014044
2624.07221,-0.0013938
2623.10783,-0.0013867
2622.14346,-0.0013760
2621.17908,-0.0013415
2620.21470,-0.0013190
2619.25032,-0.0013424
2618.28594,-0.0014084
2617.32157,-0.0014733
2616.35719,-0.0014895
2615.39281,-0.0014793
2614.42843,-0.0014872
2613.46406,-0.0015113
2612.49968,-0.0015237
2611.53530,-0.0015324
2610.57092,-0.0015213
2609.60654,-0.0014995
2608.64217,-0.0014874
2607.67779,-0.0014730
2606.71341,-0.0015002
2605.74903,-0.0015613
2604.78465,-0.0016005
2603.82028,-0.0016060
2602.85590,-0.0015939
2601.89152,-0.0015645
2600.92714,-0.0015447
2599.96276,-0.0015678
2598.99839,-0.0015813
2598.03401,-0.0015790
2597.06963,-0.0015504
2596.10525,-0.0014979
2595.14088,-0.0014967
2594.17650,-0.0015272
2593.21212,-0.0015506
2592.24774,-0.0015700
2591.28336,-0.0016070
2590.31899,-0.0016665
2589.35461,-0.0017193
2588.39023,-0.0017306
2587.42585,-0.0016985
2586.46147,-0.0016527
2585.49710,-0.0015617
2584.53272,-0.0014606
2583.56834,-0.0014026
2582.60396,-0.0013854
2581.63959,-0.0014283
2580.67521,-0.0014813
2579.71083,-0.0015421
2578.74645,-0.0016122
2577.78207,-0.0016089
2576.81770,-0.0015694
2575.85332,-0.0015550
2574.88894,-0.0015407
2573.92456,-0.0015299
2572.96018,-0.0015161
2571.99581,-0.0014832
2571.03143,-0.0014540
2570.06705,-0.0013971
2569.10267,-0.0013299
2568.13829,-0.0013531
2567.17392,-0.0014175
2566.20954,-0.0014135
2565.24516,-0.0013852
2564.28078,-0.0013960
2563.31641,-0.0014198
2562.35203,-0.0014266
2561.38765,-0.0013901
2560.42327,-0.0013374
2559.45889,-0.0012954
2558.49452,-0.0012338
2557.53014,-0.0012298
2556.56576,-0.0013284
2555.60138,-0.0013958
2554.63700,-0.0013755
2553.67263,-0.0013612
2552.70825,-0.0013720
2551.74387,-0.0013300
2550.77949,-0.0012451
2549.81512,-0.0012250
2548.85074,-0.0012753
2547.88636,-0.0012916
2546.92198,-0.0012861
2545.95760,-0.0013341
2544.99323,-0.0014271
2544.02885,-0.0015238
2543.06447,-0.0016236
2542.10009,-0.0017184
2541.13571,-0.0017235
2540.17134,-0.0016369
2539.20696,-0.0015424
2538.24258,-0.0014847
2537.27820,-0.0014573
2536.31382,-0.0014533
2535.34945,-0.0014737
2534.38507,-0.0014371
2533.42069,-0.0013526
2532.45631,-0.0013137
2531.49194,-0.0013232
2530.52756,-0.0013461
2529.56318,-0.0013356
2528.59880,-0.0012682
2527.63442,-0.0011588
2526.67005,-0.0010873
2525.70567,-0.0011162
2524.74129,-0.0012143
2523.77691,-0.0012594
2522.81253,-0.0011978
2521.84816,-0.0011589
2520.88378,-0.0011837
2519.91940,-0.0012546
2518.95502,-0.0013248
2517.99065,-0.0013155
2517.02627,-0.0012326
2516.06189,-0.0011220
2515.09751,-0.0010815
2514.13313,-0.0010653
2513.16876,-0.0010278
2512.20438,-0.0010128
2511.24000,-0.0010017
2510.27562,-0.0010568
2509.31124,-0.0011820
2508.34687,-0.0012958
2507.38249,-0.0013428
2506.41811,-0.0013608
2505.45373,-0.0013725
2504.48935,-0.0013538
2503.52498,-0.0013521
2502.56060,-0.0013115
2501.59622,-0.0012700
2500.63184,-0.0012778
2499.66747,-0.0012770
2498.70309,-0.0013057
2497.73871,-0.0013186
2496.77433,-0.0013045
2495.80995,-0.0013178
2494.84558,-0.0013517
2493.88120,-0.0013588
2492.91682,-0.0013239
2491.95244,-0.0012806
2490.98806,-0.0011943
2490.02369,-0.0011212
2489.05931,-0.0010914
2488.09493,-0.0010581
2487.13055,-0.0010222
2486.16618,-0.0009784
2485.20180,-0.0010104
2484.23742,-0.0011160
2483.27304,-0.0012006
2482.30866,-0.0012398
2481.34429,-0.0012434
2480.37991,-0.0012273
2479.41553,-0.0011879
2478.45115,-0.0011823
2477.48677,-0.0012279
2476.52240,-0.0012911
2475.55802,-0.0013566
2474.59364,-0.0013939
2473.62926,-0.0014362
2472.66488,-0.0014881
2471.70051,-0.0014887
2470.73613,-0.0014232
2469.77175,-0.0013292
2468.80737,-0.0012268
2467.84300,-0.0011302
2466.87862,-0.0010876
2465.91424,-0.0010934
2464.94986,-0.0011065
2463.98548,-0.0011129
2463.02111,-0.0011321
2462.05673,-0.0012069
2461.09235,-0.0013281
2460.12797,-0.0014352
2459.16359,-0.0014889
2458.19922,-0.0014830
2457.23484,-0.0014350
2456.27046,-0.0013948
2455.30608,-0.0013768
2454.34171,-0.0013668
2453.37733,-0.0013315
2452.41295,-0.0012493
2451.44857,-0.0011868
2450.48419,-0.0011631
2449.51982,-0.0011444
2448.55544,-0.0011177
2447.59106,-0.0011025
2446.62668,-0.0011073
2445.66230,-0.0011118
2444.69793,-0.0011512
2443.73355,-0.0011883
2442.76917,-0.0012046
2441.80479,-0.0012099
2440.84041,-0.0011895
2439.87604,-0.0012024
2438.91166,-0.0011949
2437.94728,-0.0011750
2436.98290,-0.0011942
2436.01853,-0.0012521
2435.05415,-0.0013752
2434.08977,-0.0014597
2433.12539,-0.0014860
2432.16101,-0.0014644
2431.19664,-0.0014058
2430.23226,-0.0013325
2429.26788,-0.0011933
2428.30350,-0.0010541
2427.33912,-0.0009017
2426.37475,-0.0007429
2425.41037,-0.0006507
2424.44599,-0.0006449
2423.48161,-0.0007127
2422.51724,-0.0007575
2421.55286,-0.0008428
2420.58848,-0.0009591
2419.62410,-0.0010247
2418.65972,-0.0010819
2417.69535,-0.0011305
2416.73097,-0.0011944
2415.76659,-0.0012143
2414.80221,-0.0011847
2413.83783,-0.0011933
2412.87346,-0.0012164
2411.90908,-0.0011983
2410.94470,-0.0011516
2409.98032,-0.0011161
2409.01594,-0.0010464
2408.05157,-0.0010014
2407.08719,-0.0010450
2406.12281,-0.0011161
2405.15843,-0.0011641
2404.19406,-0.0011570
2403.22968,-0.0011463
2402.26530,-0.0011432
2401.30092,-0.0011209
2400.33654,-0.0010488
2399.37217,-0.0009394
2398.40779,-0.0008727
2397.44341,-0.0008477
2396.47903,-0.0008687
2395.51465,-0.0008974
2394.55028,-0.0009315
2393.58590,-0.0009742
2392.62152,-0.0009634
2391.65714,-0.0009795
2390.69276,-0.0010408
2389.72839,-0.0010641
2388.76401,-0.0010171
2387.79963,-0.0009646
2386.83525,-0.0009727
2385.87088,-0.0009661
2384.90650,-0.0009169
2383.94212,-0.0008454
2382.97774,-0.0007388
2382.01336,-0.0005545
2381.04899,-0.0003015
2380.08461,-0.0000582
2379.12023,0.0002385
2378.15585,0.0006722
2377.19147,0.0012125
2376.22710,0.0017763
2375.26272,0.0023071
2374.29834,0.0028520
2373.33396,0.0034456
2372.36959,0.0040684
2371.40521,0.0046793
2370.44083,0.0052155
2369.47645,0.0056531
2368.51207,0.0060326
2367.54770,0.0063925
2366.58332,0.0067190
2365.61894,0.0069801
2364.65456,0.0071439
2363.69018,0.0072378
2362.72581,0.0073445
2361.76143,0.0074632
2360.79705,0.0075397
2359.83267,0.0075405
2358.86829,0.0074424
2357.90392,0.0072486
2356.93954,0.0069500
2355.97516,0.0065348
2355.01078,0.0059674
2354.04641,0.0051798
2353.08203,0.0042460
2352.11765,0.0033752
2351.15327,0.0027071
2350.18889,0.0022646
2349.22452,0.0020928
2348.26014,0.0022376
2347.29576,0.0026211
2346.33138,0.0031688
2345.36700,0.0038050
2344.40263,0.0044286
2343.43825,0.0049270
2342.47387,0.0051814
2341.50949,0.0052647
2340.54512,0.0053045
2339.58074,0.0053050
2338.61636,0.0052520
2337.65198,0.0051789
2336.68760,0.0051415
2335.72323,0.0051219
2334.75885,0.0050946
2333.79447,0.0050453
2332.83009,0.0049835
2331.86571,0.0049235
2330.90134,0.0048228
2329.93696,0.0046951
2328.97258,0.0045423
2328.00820,0.0043692
2327.04382,0.0042112
2326.07945,0.0040552
2325.11507,0.0038951
2324.15069,0.0037141
2323.18631,0.0035230
2322.22194,0.0033255
2321.25756,0.0031136
2320.29318,0.0028896
2319.32880,0.0026353
2318.36442,0.0023851
2317.40005,0.0021545
2316.43567,0.0019454
2315.47129,0.0017581
2314.50691,0.0015539
2313.54253,0.0013214
2312.57816,0.0010983
2311.61378,0.0009217
2310.64940,0.0007360
2309.68502,0.0005570
2308.72065,0.0004170
2307.75627,0.0002746
2306.79189,0.0001746
2305.82751,0.0000821
2304.86313,-0.0000307
2303.89876,-0.0001060
2302.93438,-0.0001513
2301.97000,-0.0001648
2301.00562,-0.0001682
2300.04124,-0.0002114
2299.07687,-0.0002759
2298.11249,-0.0002952
2297.14811,-0.0003159
2296.18373,-0.0004064
2295.21935,-0.0005239
2294.25498,-0.0006545
2293.29060,-0.0007528
2292.32622,-0.0008018
2291.36184,-0.0008374
2290.39747,-0.0008578
2289.43309,-0.0009073
2288.46871,-0.0009651
2287.50433,-0.0009598
2286.53995,-0.0009349
2285.57558,-0.0009611
2284.61120,-0.0010327
2283.64682,-0.0011365
2282.68244,-0.0011969
2281.71806,-0.0012002
2280.75369,-0.0012518
2279.78931,-0.0012821
2278.82493,-0.0012656
2277.86055,-0.0012095
2276.89618,-0.0010758
2275.93180,-0.0010194
2274.96742,-0.0010772
2274.00304,-0.0011445
2273.03866,-0.0012372
2272.07429,-0.0013742
2271.10991,-0.0014215
2270.14553,-0.0014136
2269.18115,-0.0014712
2268.21677,-0.0014497
2267.25240,-0.0013527
2266.28802,-0.0012273
2265.32364,-0.0010921
2264.35926,-0.0010564
2263.39488,-0.0010757
2262.43051,-0.0010887
2261.46613,-0.0010881
2260.50175,-0.0010573
2259.53737,-0.0009410
2258.57300,-0.0009019
2257.60862,-0.0009705
2256.64424,-0.0009161
2255.67986,-0.0008834
2254.71548,-0.0009212
2253.75111,-0.0009247
2252.78673,-0.0009416
2251.82235,-0.0010119
2250.85797,-0.0011291
2249.89359,-0.0012339
2248.92922,-0.0013237
2247.96484,-0.0013458
2247.00046,-0.0013635
2246.03608,-0.0013641
2245.07171,-0.0012782
2244.10733,-0.0012157
2243.14295,-0.0010778
2242.17857,-0.0008231
2241.21419,-0.0006668
2240.24982,-0.0007801
2239.28544,-0.0009673
2238.32106,-0.0011842
2237.35668,-0.0013661
2236.39230,-0.0014760
2235.42793,-0.0015632
2234.46355,-0.0016638
2233.49917,-0.0017086
2232.53479,-0.0016350
2231.57041,-0.0014697
2230.60604,-0.0013050
2229.64166,-0.0012666
2228.67728,-0.0013594
2227.71290,-0.0013556
2226.74853,-0.0013518
2225.78415,-0.0013480
2224.81977,-0.0013442
2223.85539,-0.0013404
2222.89101,-0.0013367
2221.92664,-0.0013329
2220.96226,-0.0013291
2219.99788,-0.0013253
2219.03350,-0.0013215
2218.06912,-0.0013177
2217.10475,-0.0013139
2216.14037,-0.0013102
2215.17599,-0.0013064
2214.21161,-0.0013026
2213.24724,-0.0012988
2212.28286,-0.0012950
2211.31848,-0.0012912
2210.35410,-0.0012874
2209.38972,-0.0012837
2208.42535,-0.0012799
2207.46097,-0.0012761
2206.49659,-0.0012723
2205.53221,-0.0012685
2204.56783,-0.0012647
2203.60346,-0.0012610
2202.63908,-0.0012572
2201.67470,-0.0012534
2200.71032,-0.0012496
2199.74594,-0.0012458
2198.78157,-0.0012420
2197.81719,-0.0012382
2196.85281,-0.0012345
2195.88843,-0.0012307
2194.92406,-0.0012269
2193.95968,-0.0012231
2192.99530,-0.0012193
2192.03092,-0.0012155
2191.06654,-0.0012117
2190.10217,-0.0012080
2189.13779,-0.0012042
2188.17341,-0.0012004
2187.20903,-0.0011966
2186.24465,-0.0011928
2185.28028,-0.0011890
2184.31590,-0.0011852
2183.35152,-0.0011815
2182.38714,-0.0011777
2181.42276,-0.0011739
2180.45839,-0.0011701
2179.49401,-0.0011663
2178.52963,-0.0011625
2177.56525,-0.0011588
2176.60088,-0.0011550
2175.63650,-0.0011512
2174.67212,-0.0011474
2173.70774,-0.0011436
2172.74336,-0.0011398
2171.77899,-0.0011360
2170.81461,-0.0011323
2169.85023,-0.0011285
2168.88585,-0.0011247
2167.92147,-0.0011209
2166.95710,-0.0011171
2165.99272,-0.0011133
2165.02834,-0.0011095
2164.06396,-0.0011058
2163.09959,-0.0011020
2162.13521,-0.0010982
2161.17083,-0.0010944
2160.20645,-0.0010906
2159.24207,-0.0010868
2158.27770,-0.0010830
2157.31332,-0.0010793
2156.34894,-0.0010755
2155.38456,-0.0010717
2154.42018,-0.0010679
2153.45581,-0.0010641
2152.49143,-0.0010603
2151.52705,-0.0010565
2150.56267,-0.0010528
2149.59829,-0.0010490
2148.63392,-0.0010452
2147.66954,-0.0010414
2146.70516,-0.0010376
2145.74078,-0.0010338
2144.77641,-0.0010301
2143.81203,-0.0010263
2142.84765,-0.0010225
2141.88327,-0.0010187
2140.91889,-0.0010149
2139.95452,-0.0010111
2138.99014,-0.0010073
2138.02576,-0.0010036
2137.06138,-0.0009998
2136.09700,-0.0009960
2135.13263,-0.0009922
2134.16825,-0.0009884
2133.20387,-0.0009846
2132.23949,-0.0009808
2131.27512,-0.0009771
2130.31074,-0.0009733
2129.34636,-0.0009695
2128.38198,-0.0009657
2127.41760,-0.0009619
2126.45323,-0.0009581
2125.48885,-0.0009543
2124.52447,-0.0009506
2123.56009,-0.0009468
2122.59571,-0.0009430
2121.63134,-0.0009392
2120.66696,-0.0009354
2119.70258,-0.0009316
2118.73820,-0.0009279
2117.77382,-0.0009241
2116.80945,-0.0009203
2115.84507,-0.0009165
2114.88069,-0.0009127
2113.91631,-0.0009089
2112.95194,-0.0009051
2111.98756,-0.0009014
2111.02318,-0.0008976
2110.05880,-0.0008938
2109.09442,-0.0008900
2108.13005,-0.0008862
2107.16567,-0.0008824
2106.20129,-0.0008786
2105.23691,-0.0008749
2104.27253,-0.0008711
2103.30816,-0.0008673
2102.34378,-0.0008635
2101.37940,-0.0008597
2100.41502,-0.0008559
2099.45065,-0.0008521
2098.48627,-0.0008484
2097.52189,-0.0008446
2096.55751,-0.0008408
2095.59313,-0.0008370
2094.62876,-0.0008332
2093.66438,-0.0008294
2092.70000,-0.0008257
2091.73562,-0.0008219
2090.77124,-0.0008181
2089.80687,-0.0008143
2088.84249,-0.0008105
2087.87811,-0.0008067
2086.91373,-0.0008029
2085.94935,-0.0007992
2084.98498,-0.0007954
2084.02060,-0.0007916
2083.05622,-0.0007878
2082.09184,-0.0007840
2081.12747,-0.0007802
2080.16309,-0.0007764
2079.19871,-0.0007727
2078.23433,-0.0007689
2077.26995,-0.0007651
2076.30558,-0.0007613
2075.34120,-0.0007575
2074.37682,-0.0007537
2073.41244,-0.0007499
2072.44806,-0.0007462
2071.48369,-0.0007424
2070.51931,-0.0007386
2069.55493,-0.0007348
2068.59055,-0.0007310
2067.62618,-0.0007272
2066.66180,-0.0007235
2065.69742,-0.0007197
2064.73304,-0.0007159
2063.76866,-0.0007121
2062.80429,-0.0007083
2061.83991,-0.0007045
2060.87553,-0.0007007
2059.91115,-0.0006970
2058.94677,-0.0006932
2057.98240,-0.0006894
2057.01802,-0.0006856
2056.05364,-0.0006818
2055.08926,-0.0006780
2054.12488,-0.0006742
2053.16051,-0.0006705
2052.19613,-0.0006667
2051.23175,-0.0006629
2050.26737,-0.0006591
2049.30300,-0.0006553
2048.33862,-0.0006515
2047.37424,-0.0006477
2046.40986,-0.0006440
2045.44548,-0.0006402
2044.48111,-0.0006364
2043.51673,-0.0006326
2042.55235,-0.0006288
2041.58797,-0.0006250
2040.62359,-0.0006213
2039.65922,-0.0006175
2038.69484,-0.0006137
2037.73046,-0.0006099
2036.76608,-0.0006061
2035.80171,-0.0006023
2034.83733,-0.0005985
2033.87295,-0.0005948
2032.90857,-0.0005910
2031.94419,-0.0005872
2030.97982,-0.0005834
2030.01544,-0.0005796
2029.05106,-0.0005758
2028.08668,-0.0005720
2027.12230,-0.0005683
2026.15793,-0.0005645
2025.19355,-0.0005607
2024.22917,-0.0005569
2023.26479,-0.0005531
2022.30041,-0.0005493
2021.33604,-0.0005455
2020.37166,-0.0005418
2019.40728,-0.0005380
2018.44290,-0.0005342
2017.47853,-0.0005304
2016.51415,-0.0005266
2015.54977,-0.0005228
2014.58539,-0.0005191
2013.62101,-0.0005153
2012.65664,-0.0005115
2011.69226,-0.0005077
2010.72788,-0.0005039
2009.76350,-0.0005001
2008.79912,-0.0004963
2007.83475,-0.0004926
2006.87037,-0.0004888
2005.90599,-0.0004850
2004.94161,-0.0004812
2003.97724,-0.0004774
2003.01286,-0.0004736
2002.04848,-0.0004698
2001.08410,-0.0004661
2000.11972,-0.0004623
1999.15535,-0.0004585
1998.19097,-0.0004547
1997.22659,-0.0004509
1996.26221,-0.0004471
1995.29783,-0.0004433
1994.33346,-0.0004396
1993.36908,-0.0004358
1992.40470,-0.0004320
1991.44032,-0.0004282
1990.47594,-0.0004244
1989.51157,-0.0004206
1988.54719,-0.0004169
1987.58281,-0.0004131
1986.61843,-0.0004093
1985.65406,-0.0004055
1984.68968,-0.0004017
1983.72530,-0.0003979
1982.76092,-0.0003941
1981.79654,-0.0003904
1980.83217,-0.0003866
1979.86779,-0.0003828
1978.90341,-0.0003790
1977.93903,-0.0003752
1976.97465,-0.0003714
1976.01028,-0.0003676
1975.04590,-0.0003639
1974.08152,-0.0003601
1973.11714,-0.0003563
1972.15276,-0.0003525
1971.18839,-0.0003487
1970.22401,-0.0003449
1969.25963,-0.0003411
1968.29525,-0.0003374
1967.33088,-0.0003336
1966.36650,-0.0003298
1965.40212,-0.0003260
1964.43774,-0.0003222
1963.47336,-0.0003184
1962.50899,-0.0003147
1961.54461,-0.0003109
1960.58023,-0.0003071
1959.61585,-0.0003033
1958.65147,-0.0002995
1957.68710,-0.0002957
1956.72272,-0.0002919
1955.75834,-0.0002882
1954.79396,-0.0002844
1953.82959,-0.0002806
1952.86521,-0.0002768
1951.90083,-0.0002730
1950.93645,-0.0002692
1949.97207,-0.0002654
1949.00770,-0.0002617
1948.04332,-0.0002579
1947.07894,-0.0002541
1946.11456,-0.0002503
1945.15018,-0.0002465
1944.18581,-0.0002427
1943.22143,-0.0002389
1942.25705,-0.0002352
1941.29267,-0.0002314
1940.32829,-0.0002276
1939.36392,-0.0002238
1938.39954,-0.0002200
1937.43516,-0.0002424
1936.47078,-0.0002273
1935.50641,-0.0001685
1934.54203,-0.0001333
1933.57765,-0.0001511
1932.61327,-0.0001354
1931.64889,-0.0001124
1930.68452,-0.0001499
1929.72014,-0.0002528
1928.75576,-0.0003737
1927.79138,-0.0004321
1926.82700,-0.0004423
1925.86263,-0.0004360
1924.89825,-0.0003555
1923.93387,-0.0002467
1922.96949,-0.0001335
1922.00512,0.0000371
1921.04074,0.0002396
1920.07636,0.0003007
1919.11198,0.0002505
1918.14760,0.0001527
1917.18323,0.0000063
1916.21885,-0.0001074
1915.25447,-0.0001926
1914.29009,-0.0002667
1913.32571,-0.0003438
1912.36134,-0.0004125
1911.39696,-0.0003912
1910.43258,-0.0003689
1909.46820,-0.0004572
1908.50382,-0.0005680
1907.53945,-0.0006328
1906.57507,-0.0006762
1905.61069,-0.0007253
1904.64631,-0.0007461
1903.68194,-0.0006955
1902.71756,-0.0005757
1901.75318,-0.0003809
1900.78880,-0.0002066
1899.82442,-0.0001701
1898.86005,-0.0002429
1897.89567,-0.0002808
1896.93129,-0.0002715
1895.96691,-0.0003189
1895.00253,-0.0003269
1894.03816,-0.0003170
1893.07378,-0.0003617
1892.10940,-0.0003961
1891.14502,-0.0004094
1890.18065,-0.0003336
1889.21627,-0.0002712
1888.25189,-0.0002841
1887.28751,-0.0002313
1886.32313,-0.0001474
1885.35876,-0.0001142
1884.39438,-0.0000766
1883.43000,0.0000210
1882.46562,0.0000360
1881.50124,-0.0000497
1880.53687,-0.0001392
1879.57249,-0.0002282
1878.60811,-0.0002330
1877.64373,-0.0002019
1876.67935,-0.0001977
1875.71498,-0.0002093
1874.75060,-0.0002201
1873.78622,-0.0001617
1872.82184,-0.0000797
1871.85747,-0.0000198
1870.89309,0.0000176
1869.92871,0.0000485
1868.96433,0.0000734
1867.99995,0.0000800
1867.03558,0.0000745
1866.07120,0.0000237
1865.10682,-0.0000571
1864.14244,-0.0001383
1863.17806,-0.0001830
1862.21369,-0.0002161
1861.24931,-0.0002836
1860.28493,-0.0003189
1859.32055,-0.0003190
1858.35618,-0.0003409
1857.39180,-0.0003717
1856.42742,-0.0003542
1855.46304,-0.0003327
1854.49866,-0.0003479
1853.53429,-0.0003486
1852.56991,-0.0003366
1851.60553,-0.0003455
1850.64115,-0.0003957
1849.67677,-0.0003764
1848.71240,-0.0002443
1847.74802,-0.0001107
1846.78364,0.0000283
1845.81926,0.0001770
1844.85488,0.0003043
1843.89051,0.0003619
1842.92613,0.0003374
1841.96175,0.0003022
1840.99737,0.0002301
1840.03300,0.0000806
1839.06862,-0.0000732
1838.10424,-0.0001488
1837.13986,-0.0002037
1836.17548,-0.0002901
1835.21111,-0.0003097
1834.24673,-0.0002376
1833.28235,-0.0001344
1832.31797,-0.0000592
1831.35359,-0.0000306
1830.38922,0.0000363
1829.42484,0.0001417
1828.46046,0.0002216
1827.49608,0.0002784
1826.53171,0.0002788
1825.56733,0.0002194
1824.60295,0.0001513
1823.63857,0.0001159
1822.67419,0.0001211
1821.70982,0.0001057
1820.74544,0.0000321
1819.78106,-0.0000632
1818.81668,-0.0001065
1817.85230,-0.0001077
1816.88793,-0.0001104
1815.92355,-0.0000979
1814.95917,-0.0000962
1813.99479,-0.0001094
1813.03041,-0.0001207
1812.06604,-0.0001120
1811.10166,-0.0000735
1810.13728,-0.0000525
1809.17290,-0.0000589
1808.20853,-0.0000884
1807.24415,-0.0001107
1806.27977,-0.0001045
1805.31539,-0.0000690
1804.35101,0.0000001
1803.38664,0.0000338
1802.42226,0.0000300
1801.45788,0.0000493
1800.49350,0.0000758
1799.52912,0.0000346
1798.56475,-0.0000517
1797.60037,-0.0000706
1796.63599,-0.0000321
1795.67161,0.0000486
1794.70724,0.0001589
1793.74286,0.0002531
1792.77848,0.0003244
1791.81410,0.0003258
1790.84972,0.0002879
1789.88535,0.0002702
1788.92097,0.0002170
1787.95659,0.0001024
1786.99221,0.0000114
1786.02783,0.0000300
1785.06346,0.0000971
1784.09908,0.0001452
1783.13470,0.0001815
1782.17032,0.0001778
1781.20594,0.0001513
1780.24157,0.0001160
1779.27719,0.0000364
1778.31281,-0.0000032
1777.34843,0.0000884
1776.38406,0.0002547
1775.41968,0.0004028
1774.45530,0.0005060
1773.49092,0.0006040
1772.52654,0.0006980
1771.56217,0.0007448
1770.59779,0.0007211
1769.63341,0.0006475
1768.66903,0.0005027
1767.70465,0.0002987
1766.74028,0.0002355
1765.77590,0.0003334
1764.81152,0.0004068
1763.84714,0.0004050
1762.88276,0.0003694
1761.91839,0.0004097
1760.95401,0.0005005
1759.98963,0.0005394
1759.02525,0.0005502
1758.06088,0.0004896
1757.09650,0.0004100
1756.13212,0.0004815
1755.16774,0.0006663
1754.20336,0.0008324
1753.23899,0.0009584
1752.27461,0.0010794
1751.31023,0.0011991
1750.34585,0.0013086
1749.38147,0.0013651
1748.41710,0.0013685
1747.45272,0.0013310
1746.48834,0.0011873
1745.52396,0.0010849
1744.55959,0.0011576
1743.59521,0.0012396
1742.63083,0.0012897
1741.66645,0.0013005
1740.70207,0.0012191
1739.73770,0.0011893
1738.77332,0.0013356
1737.80894,0.0015817
1736.84456,0.0017966
1735.88018,0.0019185
1734.91581,0.0019575
1733.95143,0.0019783
1732.98705,0.0019947
1732.02267,0.0019030
1731.05829,0.0016862
1730.09392,0.0013616
1729.12954,0.0010065
1728.16516,0.0008312
1727.20078,0.0008564
1726.23641,0.0009038
1725.27203,0.0008629
1724.30765,0.0007682
1723.34327,0.0007835
1722.37889,0.0010167
1721.41452,0.0013333
1720.45014,0.0016095
1719.48576,0.0018792
1718.52138,0.0020884
1717.55700,0.0021921
1716.59263,0.0022086
1715.62825,0.0021274
1714.66387,0.0019576
1713.69949,0.0016695
1712.73512,0.0013274
1711.77074,0.0011324
1710.80636,0.0011482
1709.84198,0.0012058
1708.87760,0.0012661
1707.91323,0.0013325
1706.94885,0.0012478
1705.98447,0.0012086
1705.02009,0.0014580
1704.05571,0.0018147
1703.09134,0.0020459
1702.12696,0.0020734
1701.16258,0.0021810
1700.19820,0.0024840
1699.23382,0.0027453
1698.26945,0.0028447
1697.30507,0.0027593
1696.34069,0.0024710
1695.37631,0.0020617
1694.41194,0.0018148
1693.44756,0.0017849
1692.48318,0.0016658
1691.51880,0.0012991
1690.55442,0.0009696
1689.59005,0.0011625
1688.62567,0.0016925
1687.66129,0.0021406
1686.69691,0.0024325
1685.73253,0.0026068
1684.76816,0.0027069
1683.80378,0.0027193
1682.83940,0.0026239
1681.87502,0.0023922
1680.91065,0.0020858
1679.94627,0.0018374
1678.98189,0.0017576
1678.01751,0.0018969
1677.05313,0.0020821
1676.08876,0.0021792
1675.12438,0.0022076
1674.16000,0.0023082
1673.19562,0.0024641
1672.23124,0.0025305
1671.26687,0.0025061
1670.30249,0.0023982
1669.33811,0.0023084
1668.37373,0.0023192
1667.40935,0.0023432
1666.44498,0.0023200
1665.48060,0.0022679
1664.51622,0.0022148
1663.55184,0.0022041
1662.58747,0.0022798
1661.62309,0.0023088
1660.65871,0.0022187
1659.69433,0.0020512
1658.72995,0.0019598
1657.76558,0.0022394
1656.80120,0.0027997
1655.83682,0.0033500
1654.87244,0.0037004
1653.90806,0.0038667
1652.94369,0.0039093
1651.97931,0.0038383
1651.01493,0.0037308
1650.05055,0.0035076
1649.08618,0.0031116
1648.12180,0.0026712
1647.15742,0.0024300
1646.19304,0.0024848
1645.22866,0.0025231
1644.26429,0.0023712
1643.29991,0.0021097
1642.33553,0.0018137
1641.37115,0.0015872
1640.40677,0.0016606
1639.44240,0.0019852
1638.47802,0.0022658
1637.51364,0.0024239
1636.54926,0.0025011
1635.58488,0.0025127
1634.62051,0.0024320
1633.65613,0.0022840
1632.69175,0.0020961
1631.72737,0.0018627
1630.76300,0.0015958
1629.79862,0.0013970
1628.83424,0.0014584
1627.86986,0.0016092
1626.90548,0.0016864
1625.94111,0.0017346
1624.97673,0.0017424
1624.01235,0.0016923
1623.04797,0.0015294
1622.08359,0.0014763
1621.11922,0.0016263
1620.15484,0.0017548
1619.19046,0.0018010
1618.22608,0.0017883
1617.26171,0.0018047
1616.29733,0.0017973
1615.33295,0.0017037
1614.36857,0.0015629
1613.40419,0.0013642
1612.43982,0.0011134
1611.47544,0.0008699
1610.51106,0.0008207
1609.54668,0.0009005
1608.58230,0.0009263
1607.61793,0.0009334
1606.65355,0.0009298
1605.68917,0.0009158
1604.72479,0.0008881
1603.76041,0.0008574
1602.79604,0.0008342
1601.83166,0.0008070
1600.86728,0.0007858
1599.90290,0.0007689
1598.93853,0.0007537
1597.97415,0.0007379
1597.00977,0.0007351
1596.04539,0.0007392
1595.08101,0.0007415
1594.11664,0.0007441
1593.15226,0.0007443
1592.18788,0.0007377
1591.22350,0.0007263
1590.25912,0.0007124
1589.29475,0.0006912
1588.33037,0.0006839
1587.36599,0.0006723
1586.40161,0.0006557
1585.43724,0.0006366
1584.47286,0.0006166
1583.50848,0.0005777
1582.54410,0.0004713
1581.57972,0.0005001
1580.61535,0.0007536
1579.65097,0.0010373
1578.68659,0.0012579
1577.72221,0.0014181
1576.75783,0.0014970
1575.79346,0.0014708
1574.82908,0.0014580
1573.86470,0.0014638
1572.90032,0.0013980
1571.93594,0.0012218
1570.97157,0.0009955
1570.00719,0.0009808
1569.04281,0.0011084
1568.07843,0.0011458
1567.11406,0.0010531
1566.14968,0.0008674
1565.18530,0.0007719
1564.22092,0.0008993
1563.25654,0.0013655
1562.29217,0.0020036
1561.32779,0.0024527
1560.36341,0.0026848
1559.39903,0.0028616
1558.43465,0.0030050
1557.47028,0.0029702
1556.50590,0.0027022
1555.54152,0.0022534
1554.57714,0.0017880
1553.61276,0.0015030
1552.64839,0.0013702
1551.68401,0.0013470
1550.71963,0.0013502
1549.75525,0.0012855
1548.79088,0.0012181
1547.82650,0.0012824
1546.86212,0.0014497
1545.89774,0.0015571
1544.93336,0.0017331
1543.96899,0.0021426
1543.00461,0.0026001
1542.04023,0.0028991
1541.07585,0.0029735
1540.11147,0.0028488
1539.14710,0.0026747
1538.18272,0.0025322
1537.21834,0.0023001
1536.25396,0.0020305
1535.28959,0.0017799
1534.32521,0.0015052
1533.36083,0.0014108
1532.39645,0.0014963
1531.43207,0.0015370
1530.46770,0.0015288
1529.50332,0.0014911
1528.53894,0.0014065
1527.57456,0.0013702
1526.61018,0.0015068
1525.64581,0.0017710
1524.68143,0.0020304
1523.71705,0.0021649
1522.75267,0.0022215
1521.78829,0.0023000
1520.82392,0.0023217
1519.85954,0.0022804
1518.89516,0.0021711
1517.93078,0.0019673
1516.96641,0.0017111
1516.00203,0.0014622
1515.03765,0.0013502
1514.07327,0.0013155
1513.10889,0.0012257
1512.14452,0.0011903
1511.18014,0.0014104
1510.21576,0.0018289
1509.25138,0.0021900
1508.28700,0.0023995
1507.32263,0.0024474
1506.35825,0.0023838
1505.39387,0.0022113
1504.42949,0.0019268
1503.46512,0.0015968
1502.50074,0.0011870
1501.53636,0.0008942
1500.57198,0.0009139
1499.60760,0.0011227
1498.64323,0.0013479
1497.67885,0.0014422
1496.71447,0.0014138
1495.75009,0.0013666
1494.78571,0.0013289
1493.82134,0.0012582
1492.85696,0.0011919
1491.89258,0.0011580
1490.92820,0.0011049
1489.96382,0.0011400
1488.99945,0.0012287
1488.03507,0.0012187
1487.07069,0.0011376
1486.10631,0.0010173
1485.14194,0.0008956
1484.17756,0.0008251
1483.21318,0.0007708
1482.24880,0.0007008
1481.28442,0.0007001
1480.32005,0.0007476
1479.35567,0.0007680
1478.39129,0.0008552
1477.42691,0.0010590
1476.46253,0.0013237
1475.49816,0.0015605
1474.53378,0.0017313
1473.56940,0.0018324
1472.60502,0.0018324
1471.64065,0.0017161
1470.67627,0.0015639
1469.71189,0.0015130
1468.74751,0.0014678
1467.78313,0.0013890
1466.81876,0.0013900
1465.85438,0.0014366
1464.89000,0.0014920
1463.92562,0.0014720
1462.96124,0.0014088
1461.99687,0.0015208
1461.03249,0.0017845
1460.06811,0.0020351
1459.10373,0.0022587
1458.13935,0.0024783
1457.17498,0.0025901
1456.21060,0.0025713
1455.24622,0.0024238
1454.28184,0.0021376
1453.31747,0.0018297
1452.35309,0.0015414
1451.38871,0.0013448
1450.42433,0.0013691
1449.45995,0.0014896
1448.49558,0.0015410
1447.53120,0.0015451
1446.56682,0.0015354
1445.60244,0.0015089
1444.63806,0.0014713
1443.67369,0.0013509
1442.70931,0.0012234
1441.74493,0.0013010
1440.78055,0.0015124
1439.81618,0.0016860
1438.85180,0.0018091
1437.88742,0.0018959
1436.92304,0.0019260
1435.95866,0.0019092
1434.99429,0.0018670
1434.02991,0.0017985
1433.06553,0.0016817
1432.10115,0.0015212
1431.13677,0.0014187
1430.17240,0.0014555
1429.20802,0.0015327
1428.24364,0.0015662
1427.27926,0.0015822
1426.31488,0.0015358
1425.35051,0.0014578
1424.38613,0.0015198
1423.42175,0.0017057
1422.45737,0.0018939
1421.49300,0.0020378
1420.52862,0.0021378
1419.56424,0.0021775
1418.59986,0.0021604
1417.63548,0.0021343
1416.67111,0.0020815
1415.70673,0.0019706
1414.74235,0.0017980
1413.77797,0.0016689
1412.81359,0.0016925
1411.84922,0.0017377
1410.88484,0.0017410
1409.92046,0.0017703
1408.95608,0.0018104
1407.99171,0.0018304
1407.02733,0.0018337
1406.06295,0.0018239
1405.09857,0.0018134
1404.13419,0.0018326
1403.16982,0.0018618
1402.20544,0.0018814
1401.24106,0.0018866
1400.27668,0.0018871
1399.31230,0.0019540
1398.34793,0.0020637
1397.38355,0.0021302
1396.41917,0.0021347
1395.45479,0.0020888
1394.49041,0.0019880
1393.52604,0.0018758
1392.56166,0.0018411
1391.59728,0.0018487
1390.63290,0.0018366
1389.66853,0.0018094
1388.70415,0.0018122
1387.73977,0.0018765
1386.77539,0.0019220
1385.81101,0.0019110
1384.84664,0.0018687
1383.88226,0.0018002
1382.91788,0.0017171
1381.95350,0.0016506
1380.98912,0.0016376
1380.02475,0.0016392
1379.06037,0.0016444
1378.09599,0.0016821
1377.13161,0.0017304
1376.16724,0.0017706
1375.20286,0.0017778
1374.23848,0.0017587
1373.27410,0.0017362
1372.30972,0.0016961
1371.34535,0.0016414
1370.38097,0.0015735
1369.41659,0.0014896
1368.45221,0.0014368
1367.48783,0.0014563
1366.52346,0.0015118
1365.55908,0.0015532
1364.59470,0.0015709
1363.63032,0.0015814
1362.66594,0.0015994
1361.70157,0.0016090
1360.73719,0.0015919
1359.77281,0.0015598
1358.80843,0.0015200
1357.84406,0.0014653
1356.87968,0.0014213
1355.91530,0.0014007
1354.95092,0.0013852
1353.98654,0.0013741
1353.02217,0.0013651
1352.05779,0.0013693
1351.09341,0.0013872
1350.12903,0.0014032
1349.16465,0.0014168
1348.20028,0.0014225
1347.23590,0.0014148
1346.27152,0.0013870
1345.30714,0.0013616
1344.34276,0.0013603
1343.37839,0.0013703
1342.41401,0.0013909
1341.44963,0.0014206
1340.48525,0.0014500
1339.52088,0.0014677
1338.55650,0.0014632
1337.59212,0.0014336
1336.62774,0.0013918
1335.66336,0.0013428
1334.69899,0.0012832
1333.73461,0.0012426
1332.77023,0.0012280
1331.80585,0.0012277
1330.84147,0.0012347
1329.87710,0.0012330
1328.91272,0.0012302
1327.94834,0.0012277
1326.98396,0.0012142
1326.01959,0.0011959
1325.05521,0.0011940
1324.09083,0.0012027
1323.12645,0.0012042
1322.16207,0.0012136
1321.19770,0.0012241
1320.23332,0.0012312
1319.26894,0.0012342
1318.30456,0.0012287
1317.34018,0.0012358
1316.37581,0.0012350
1315.41143,0.0012120
1314.44705,0.0011906
1313.48267,0.0011786
1312.51829,0.0011679
1311.55392,0.0011514
1310.58954,0.0011367
1309.62516,0.0011252
1308.66078,0.0011203
1307.69641,0.0011238
1306.73203,0.0011311
1305.76765,0.0011424
1304.80327,0.0011476
1303.83889,0.0011557
1302.87452,0.0011712
1301.91014,0.0011826
1300.94576,0.0011904
1299.98138,0.0011892
1299.01700,0.0011792
1298.05263,0.0011622
1297.08825,0.0011416
1296.12387,0.0011271
1295.15949,0.0011216
1294.19512,0.0011295
1293.23074,0.0011572
1292.26636,0.0011987
1291.30198,0.0012388
1290.33760,0.0012746
1289.37323,0.0013052
1288.40885,0.0013192
1287.44447,0.0013149
1286.48009,0.0012958
1285.51571,0.0012722
1284.55134,0.0012544
1283.58696,0.0012325
1282.62258,0.0012138
1281.65820,0.0012152
1280.69382,0.0012149
1279.72945,0.0012078
1278.76507,0.0012082
1277.80069,0.0012051
1276.83631,0.0012019
1275.87194,0.0012055
1274.90756,0.0012159
1273.94318,0.0012380
1272.97880,0.0012594
1272.01442,0.0012684
1271.05005,0.0012817
1270.08567,0.0013058
1269.12129,0.0013121
1268.15691,0.0013054
1267.19253,0.0013061
1266.22816,0.0013043
1265.26378,0.0013113
1264.29940,0.0013284
1263.33502,0.0013434
1262.37065,0.0013565
1261.40627,0.0013593
1260.44189,0.0013619
1259.47751,0.0013697
1258.51313,0.0013657
1257.54876,0.0013504
1256.58438,0.0013385
1255.62000,0.0013369
1254.65562,0.0013405
1253.69124,0.0013498
1252.72687,0.0013584
1251.76249,0.0013578
1250.79811,0.0013570
1249.83373,0.0013565
1248.86935,0.0013598
1247.90498,0.0013628
1246.94060,0.0013560
1245.97622,0.0013471
1245.01184,0.0013412
1244.04747,0.0013477
1243.08309,0.0013590
1242.11871,0.0013607
1241.15433,0.0013565
1240.18995,0.0013505
1239.22558,0.0013553
1238.26120,0.0013666
1237.29682,0.0013772
1236.33244,0.0013853
1235.36806,0.0013833
1234.40369,0.0013803
1233.43931,0.0013907
1232.47493,0.0014193
1231.51055,0.0014442
1230.54618,0.0014603
1229.58180,0.0014818
1228.61742,0.0015051
1227.65304,0.0015419
1226.68866,0.0015839
1225.72429,0.0016047
1224.75991,0.0016106
1223.79553,0.0016203
1222.83115,0.0016357
1221.86677,0.0016547
1220.90240,0.0016859
1219.93802,0.0017229
1218.97364,0.0017595
1218.00926,0.0017978
1217.04488,0.0018459
1216.08051,0.0019116
1215.11613,0.0019763
1214.15175,0.0020287
1213.18737,0.0020820
1212.22300,0.0021446
1211.25862,0.0022064
1210.29424,0.0022716
1209.32986,0.0023396
1208.36548,0.0023951
1207.40111,0.0024522
1206.43673,0.0025162
1205.47235,0.0025804
1204.50797,0.0026394
1203.54359,0.0026916
1202.57922,0.0027419
1201.61484,0.0027790
1200.65046,0.0028037
1199.68608,0.0028244
1198.72171,0.0028395
1197.75733,0.0028380
1196.79295,0.0028292
1195.82857,0.0028333
1194.86419,0.0028411
1193.89982,0.0028604
1192.93544,0.0028968
1191.97106,0.0029407
1191.00668,0.0029897
1190.04230,0.0030379
1189.07793,0.0030881
1188.11355,0.0031435
1187.14917,0.0031950
1186.18479,0.0032289
1185.22041,0.0032524
1184.25604,0.0032661
1183.29166,0.0032730
1182.32728,0.0032962
1181.36290,0.0033259
1180.39853,0.0033471
1179.43415,0.0033626
1178.46977,0.0033854
1177.50539,0.0034119
1176.54101,0.0034275
1175.57664,0.0034392
1174.61226,0.0034456
1173.64788,0.0034555
1172.68350,0.0034699
1171.71912,0.0034800
1170.75475,0.0034907
1169.79037,0.0035053
1168.82599,0.0035270
1167.86161,0.0035472
1166.89724,0.0035738
1165.93286,0.0036046
1164.96848,0.0036309
1164.00410,0.0036561
1163.03972,0.0036645
1162.07535,0.0036643
1161.11097,0.0036542
1160.14659,0.0036295
1159.18221,0.0036166
1158.21783,0.0036292
1157.25346,0.0036600
1156.28908,0.0036899
1155.32470,0.0037281
1154.36032,0.0037889
1153.39594,0.0038568
1152.43157,0.0039087
1151.46719,0.0039349
1150.50281,0.0039518
1149.53843,0.0039651
1148.57406,0.0039816
1147.60968,0.0040105
1146.64530,0.0040415
1145.68092,0.0040605
1144.71654,0.0040715
1143.75217,0.0041118
1142.78779,0.0041888
1141.82341,0.0042676
1140.85903,0.0043248
1139.89465,0.0043670
1138.93028,0.0044203
1137.96590,0.0044865
1137.00152,0.0045476
1136.03714,0.0045960
1135.07276,0.0046419
1134.10839,0.0046822
1133.14401,0.0047212
1132.17963,0.0047908
1131.21525,0.0048685
1130.25088,0.0049221
1129.28650,0.0049676
1128.32212,0.0050216
1127.35774,0.0050755
1126.39336,0.0051081
1125.42899,0.0051247
1124.46461,0.0051343
1123.50023,0.0051474
1122.53585,0.0051669
1121.57147,0.0051845
1120.60710,0.0052204
1119.64272,0.0052660
1118.67834,0.0052962
1117.71396,0.0053191
1116.74959,0.0053420
1115.78521,0.0053571
1114.82083,0.0053640
1113.85645,0.0053767
1112.89207,0.0054018
1111.92770,0.0054521
1110.96332,0.0055184
1109.99894,0.0055744
1109.03456,0.0056342
1108.07018,0.0056911
1107.10581,0.0057126
1106.14143,0.0057203
1105.17705,0.0057389
1104.21267,0.0057427
1103.24829,0.0057311
1102.28392,0.0057218
1101.31954,0.0057147
1100.35516,0.0057072
1099.39078,0.0056843
1098.42641,0.0056530
1097.46203,0.0056350
1096.49765,0.0056327
1095.53327,0.0056394
1094.56889,0.0056536
1093.60452,0.0056549
1092.64014,0.0056166
1091.67576,0.0055660
1090.71138,0.0055199
1089.74700,0.0054602
1088.78263,0.0053766
1087.81825,0.0052750
1086.85387,0.0051713
1085.88949,0.0050698
1084.92512,0.0049825
1083.96074,0.0049131
1082.99636,0.0048482
1082.03198,0.0047626
1081.06760,0.0046704
1080.10323,0.0046154
1079.13885,0.0045805
1078.17447,0.0045431
1077.21009,0.0044856
1076.24571,0.0044115
1075.28134,0.0043281
1074.31696,0.0042252
1073.35258,0.0041303
1072.38820,0.0040440
1071.42382,0.0039587
1070.45945,0.0038663
1069.49507,0.0037850
1068.53069,0.0037345
1067.56631,0.0036712
1066.60194,0.0036096
1065.63756,0.0035598
1064.67318,0.0035047
1063.70880,0.0034363
1062.74442,0.0033556
1061.78005,0.0033051
1060.81567,0.0032682
1059.85129,0.0032220
1058.88691,0.0031694
1057.92253,0.0031155
1056.95816,0.0030772
1055.99378,0.0030378
1055.02940,0.0029981
1054.06502,0.0029467
1053.10065,0.0028702
1052.13627,0.0027861
1051.17189,0.0027027
1050.20751,0.0026203
1049.24313,0.0025233
1048.27876,0.0024186
1047.31438,0.0023286
1046.35000,0.0022606
1045.38562,0.0022125
1044.42124,0.0021803
1043.45687,0.0021663
1042.49249,0.0021617
1041.52811,0.0021534
1040.56373,0.0021329
1039.59935,0.0021028
1038.63498,0.0020590
1037.67060,0.0020026
1036.70622,0.0019545
1035.74184,0.0019273
1034.77747,0.0019136
1033.81309,0.0018885
1032.84871,0.0018711
1031.88433,0.0018821
1030.91995,0.0018910
1029.95558,0.0018814
1028.99120,0.0018422
1028.02682,0.0017892
1027.06244,0.0017471
1026.09806,0.0017049
1025.13369,0.0016777
1024.16931,0.0016836
1023.20493,0.0016932
1022.24055,0.0016856
1021.27618,0.0016818
1020.31180,0.0016893
1019.34742,0.0016955
1018.38304,0.0016947
1017.41866,0.0016811
1016.45429,0.0016748
1015.48991,0.0016816
1014.52553,0.0016701
1013.56115,0.0016491
1012.59677,0.0016350
1011.63240,0.0016230
1010.66802,0.0016076
1009.70364,0.0015816
1008.73926,0.0015625
1007.77488,0.0015449
1006.81051,0.0015237
1005.84613,0.0015336
1004.88175,0.0015597
1003.91737,0.0015627
1002.95300,0.0015464
1001.98862,0.0015383
1001.02424,0.0015450
1000.05986,0.0015484
999.09548,0.0015514
998.13111,0.0015748
997.16673,0.0016100
996.20235,0.0016323
995.23797,0.0016660
994.27359,0.0017261
993.30922,0.0017849
992.34484,0.0018415
991.38046,0.0018907
990.41608,0.0019138
989.45171,0.0019058
988.48733,0.0018763
987.52295,0.0018461
986.55857,0.0018254
985.59419,0.0018065
984.62982,0.0017828
983.66544,0.0017716
982.70106,0.0017641
981.73668,0.0017481
980.77230,0.0017409
979.80793,0.0017293
978.84355,0.0016950
977.87917,0.0016460
976.91479,0.0016105
975.95041,0.0016007
974.98604,0.0016134
974.02166,0.0016456
973.05728,0.0016724
972.09290,0.0017031
971.12853,0.0017434
970.16415,0.0017681
969.19977,0.0017863
968.23539,0.0017983
967.27101,0.0017799
966.30664,0.0017354
965.34226,0.0016966
964.37788,0.0016638
963.41350,0.0016117
962.44912,0.0015600
961.48475,0.0015361
960.52037,0.0015454
959.55599,0.0015837
958.59161,0.0016018
957.62724,0.0015919
956.66286,0.0016069
955.69848,0.0016350
954.73410,0.0016545
953.76972,0.0016721
952.80535,0.0016689
951.84097,0.0016314
950.87659,0.0015964
949.91221,0.0016094
948.94783,0.0016365
947.98346,0.0016244
947.01908,0.0015649
946.05470,0.0014991
945.09032,0.0014815
944.12594,0.0014818
943.16157,0.0014800
942.19719,0.0014856
941.23281,0.0014694
940.26843,0.0014432
939.30406,0.0014509
938.33968,0.0015004
937.37530,0.0015288
936.41092,0.0015026
935.44654,0.0014838
934.48217,0.0014902
933.51779,0.0014785
932.55341,0.0014453
931.58903,0.0014191
930.62465,0.0013920
929.66028,0.0013641
928.69590,0.0013660
927.73152,0.0013892
926.76714,0.0014195
925.80276,0.0014422
924.83839,0.0014559
923.87401,0.0014932
922.90963,0.0015285
921.94525,0.0015288
920.98088,0.0015310
920.01650,0.0015376
919.05212,0.0015299
918.08774,0.0015456
917.12336,0.0015840
916.15899,0.0015953
915.19461,0.0015694
914.23023,0.0015354
913.26585,0.0015133
912.30147,0.0014807
911.33710,0.0014404
910.37272,0.0014312
909.40834,0.0014552
908.44396,0.0014802
907.47959,0.0014929
906.51521,0.0015108
905.55083,0.0015181
904.58645,0.0014824
903.62207,0.0014121
902.65770,0.0013571
901.69332,0.0013295
900.72894,0.0013048
899.76456,0.0013236
898.80018,0.0013844
897.83581,0.0014384
896.87143,0.0014655
895.90705,0.0014536
894.94267,0.0014432
893.97829,0.0014418
893.01392,0.0014183
892.04954,0.0013609
891.08516,0.0012903
890.12078,0.0012628
889.15641,0.0012898
888.19203,0.0013315
887.22765,0.0013239
886.26327,0.0012887
885.29889,0.0012861
884.33452,0.0013192
883.37014,0.0013920
882.40576,0.0014490
881.44138,0.0014652
880.47700,0.0014682
879.51263,0.0014728
878.54825,0.0015113
877.58387,0.0015558
876.61949,0.0015650
875.65512,0.0015405
874.69074,0.0015196
873.72636,0.0015243
872.76198,0.0015181
871.79760,0.0014808
870.83323,0.0014354
869.86885,0.0014285
868.90447,0.0014535
867.94009,0.0014793
866.97571,0.0015076
866.01134,0.0015284
865.04696,0.0015329
864.08258,0.0015141
863.11820,0.0014924
862.15382,0.0014834
861.18945,0.0014622
860.22507,0.0014452
859.26069,0.0014626
858.29631,0.0014957
857.33194,0.0015174
856.36756,0.0015280
855.40318,0.0015338
854.43880,0.0015317
853.47442,0.0015106
852.51005,0.0014731
851.54567,0.0014505
850.58129,0.0014638
849.61691,0.0014975
848.65253,0.0015311
847.68816,0.0015591
846.72378,0.0015968
845.75940,0.0016661
844.79502,0.0017326
843.83065,0.0017612
842.86627,0.0017720
841.90189,0.0017598
840.93751,0.0017126
839.97313,0.0016517
839.00876,0.0016109
838.04438,0.0015752
837.08000,0.0015132
836.11562,0.0014783
835.15124,0.0014999
834.18687,0.0015479
833.22249,0.0015909
832.25811,0.0016171
831.29373,0.0016543
830.32935,0.0016768
829.36498,0.0016446
828.40060,0.0015948
827.43622,0.0015556
826.47184,0.0014971
825.50747,0.0014339
824.54309,0.0014292
823.57871,0.0014561
822.61433,0.0014685
821.64995,0.0014943
820.68558,0.0015464
819.72120,0.0016052
818.75682,0.0016420
817.79244,0.0016392
816.82806,0.0016159
815.86369,0.0016031
814.89931,0.0015922
813.93493,0.0015774
812.97055,0.0015908
812.00618,0.0016022
811.04180,0.0015839
810.07742,0.0015862
809.11304,0.0016214
808.14866,0.0016570
807.18429,0.0016801
806.21991,0.0016873
805.25553,0.0016737
804.29115,0.0016588
803.32677,0.0016537
802.36240,0.0016691
801.39802,0.0017268
800.43364,0.0017588
799.46926,0.0017331
798.50488,0.0017063
797.54051,0.0016938
796.57613,0.0016984
795.61175,0.0016808
794.64737,0.0016267
793.68300,0.0015610
792.71862,0.0015024
791.75424,0.0014981
790.78986,0.0015210
789.82548,0.0015245
788.86111,0.0015026
787.89673,0.0014800
786.93235,0.0014963
785.96797,0.0015534
785.00359,0.0016244
784.03922,0.0016379
783.07484,0.0016104
782.11046,0.0015933
781.14608,0.0015825
780.18171,0.0015742
779.21733,0.0015172
778.25295,0.0014306
777.28857,0.0013449
776.32419,0.0012520
775.35982,0.0011959
774.39544,0.0011889
773.43106,0.0012063
772.46668,0.0012263
771.50230,0.0012697
770.53793,0.0013479
769.57355,0.0014551
768.60917,0.0015834
767.64479,0.0016649
766.68041,0.0016742
765.71604,0.0016347
764.75166,0.0015801
763.78728,0.0015517
762.82290,0.0015461
761.85853,0.0015569
760.89415,0.0015990
759.92977,0.0016479
758.96539,0.0016628
758.00101,0.0016574
757.03664,0.0016436
756.07226,0.0016188
755.10788,0.0015797
754.14350,0.0015196
753.17912,0.0014882
752.21475,0.0015092
751.25037,0.0015138
750.28599,0.0014918
749.32161,0.0014841
748.35724,0.0014510
747.39286,0.0014068
746.42848,0.0014127
745.46410,0.0014598
744.49972,0.0015322
743.53535,0.0015942
742.57097,0.0016460
741.60659,0.0016982
740.64221,0.0017306
739.67783,0.0017431
738.71346,0.0017293
737.74908,0.0016905
736.78470,0.0016454
735.82032,0.0016515
734.85594,0.0017249
733.89157,0.0017894
732.92719,0.0018000
731.96281,0.0017973
730.99843,0.0018187
730.03406,0.0018247
729.06968,0.0018385
728.10530,0.0019048
727.14092,0.0019542
726.17654,0.0019710
725.21217,0.0020408
724.24779,0.0021858
723.28341,0.0023480
722.31903,0.0024299
721.35465,0.0023775
720.39028,0.0022775
719.42590,0.0021880
718.46152,0.0020660
717.49714,0.0018955
716.53276,0.0017224
715.56839,0.0015890
714.60401,0.0015045
713.63963,0.0014934
712.67525,0.0015374
711.71088,0.0015984
710.74650,0.0016450
709.78212,0.0016546
708.81774,0.0016738
707.85336,0.0017110
706.88899,0.0017282
705.92461,0.0017205
704.96023,0.0017104
703.99585,0.0016949
703.03147,0.0016633
702.06710,0.0016323
701.10272,0.0016071
700.13834,0.0016100
699.17396,0.0016460
698.20959,0.0017110
697.24521,0.0017767
696.28083,0.0018171
695.31645,0.0018587
694.35207,0.0018815
693.38770,0.0018870
692.42332,0.0018801
691.45894,0.0018554
690.49456,0.0018307
689.53018,0.0018169
688.56581,0.0018417
687.60143,0.0019067
686.63705,0.0019952
685.67267,0.0020478
684.70829,0.0020643
683.74392,0.0020741
682.77954,0.0020748
681.81516,0.0020912
680.85078,0.0020781
679.88641,0.0020371
678.92203,0.0020022
677.95765,0.0019806
676.99327,0.0019553
676.02889,0.0019136
675.06452,0.0017435
674.10014,0.0014086
673.13576,0.0016811
672.17138,0.0026729
671.20700,0.0036432
670.24263,0.0043505
669.27825,0.0047654
668.31387,0.0049438
667.34949,0.0048952
666.38512,0.0045798
665.42074,0.0040200
664.45636,0.0032014
663.49198,0.0021881
662.52760,0.0013502
661.56323,0.0013479
660.59885,0.0017569
659.63447,0.0018796
658.67009,0.0018856
657.70571,0.0019313
656.74134,0.0020397
655.77696,0.0021365
654.81258,0.0021893
653.84820,0.0022235
652.88382,0.0021938
651.91945,0.0021451
650.95507,0.0020845
649.99069,0.0020374
649.02631,0.0020087
648.06194,0.0019629
647.09756,0.0019199
646.13318,0.0019269
645.16880,0.0019660
644.20442,0.0019552
643.24005,0.0019504
642.27567,0.0019603
641.31129,0.0019747
640.34691,0.0020001
639.38253,0.0019754
638.41816,0.0019449
637.45378,0.0019487
636.48940,0.0019762
635.52502,0.0020019
634.56065,0.0020396
633.59627,0.0020414
632.63189,0.0019574
631.66751,0.0019618
630.70313,0.0020011
629.73876,0.0020534
628.77438,0.0021986
627.81000,0.0021696
626.84562,0.0020501
625.88124,0.0019920
624.91687,0.0020189
623.95249,0.0024196
622.98811,0.0033781
622.02373,0.0040509
621.05935,0.0039223
620.09498,0.0037079
619.13060,0.0037797
618.16622,0.0042468
617.20184,0.0050073
616.23747,0.0049622
615.27309,0.0041039
614.30871,0.0036448
613.34433,0.0037826
612.37995,0.0043484
611.41558,0.0048046
610.45120,0.0042429
609.48682,0.0032358
608.52244,0.0029208
607.55806,0.0031606
606.59369,0.0034277
605.62931,0.0036166
604.66493,0.0031722
603.70055,0.0024356
602.73618,0.0024739
601.77180,0.0028252
600.80742,0.0030195
599.84304,0.0029512
598.87866,0.0026614
597.91429,0.0026346
596.94991,0.0028441
595.98553,0.0028464
595.02115,0.0026440
594.05677,0.0026097
593.09240,0.0026083
592.12802,0.0024882
591.16364,0.0024726
590.19926,0.0025516
589.23488,0.0025930
588.27051,0.0025458
587.30613,0.0023830
586.34175,0.0021943
585.37737,0.0020899
584.41300,0.0020652
583.44862,0.0020934
582.48424,0.0021514
581.51986,0.0021914
580.55548,0.0022358
579.59111,0.0022857
578.62673,0.0022569
577.66235,0.0021801
576.69797,0.0021871
575.73359,0.0021760
574.76922,0.0020390
573.80484,0.0019959
572.84046,0.0020763
571.87608,0.0020716
570.91171,0.0019925
569.94733,0.0019453
568.98295,0.0019668
568.01857,0.0019798
567.05419,0.0018996
566.08982,0.0018707
565.12544,0.0019661
564.16106,0.0019940
563.19668,0.0019358
562.23230,0.0019456
561.26793,0.0019600
560.30355,0.0018556
559.33917,0.0017882
558.37479,0.0018283
557.41041,0.0018275
556.44604,0.0017971
555.48166,0.0017759
554.51728,0.0018238
553.55290,0.0019297
552.58853,0.0019568
551.62415,0.0019514
550.65977,0.0019699
549.69539,0.0020118
548.73101,0.0020569
547.76664,0.0021016
546.80226,0.0021056
545.83788,0.0020095
544.87350,0.0019052
543.90912,0.0018135
542.94475,0.0017893
541.98037,0.0018174
541.01599,0.0017733
540.05161,0.0017449
539.08724,0.0018176
538.12286,0.0019432
537.15848,0.0020410
536.19410,0.0021837
535.22972,0.0023373
534.26535,0.0023927
533.30097,0.0024280
532.33659,0.0023846
531.37221,0.0022608
530.40783,0.0021014
529.44346,0.0019331
528.47908,0.0018397
527.51470,0.0018224
526.55032,0.0018276
525.58594,0.0017440
524.62157,0.0017159
523.65719,0.0017919
522.69281,0.0018437
521.72843,0.0019143
520.76406,0.0018845
519.79968,0.0017901
518.83530,0.0018047
517.87092,0.0019352
516.90654,0.0020812
515.94217,0.0021388
514.97779,0.0021019
514.01341,0.0019136
513.04903,0.0017827
512.08465,0.0018070
511.12028,0.0017776
510.15590,0.0017238
509.19152,0.0016725
508.22714,0.0017017
507.26276,0.0017900
506.29839,0.0017956
505.33401,0.0017915
504.36963,0.0017980
503.40525,0.0017937
502.44088,0.0017596
501.47650,0.0017540
500.51212,0.0017959
499.54774,0.0017609
498.58336,0.0017040
497.61899,0.0017101
496.65461,0.0017671
495.69023,0.0017996
494.72585,0.0017955
493.76147,0.0018242
492.79710,0.0018522
491.83272,0.0018523
490.86834,0.0018204
489.90396,0.0018531
488.93959,0.0019824
487.97521,0.0020785
487.01083,0.0021350
486.04645,0.0021476
485.08207,0.0021026
484.11770,0.0020028
483.15332,0.0018040
482.18894,0.0015462
481.22456,0.0013678
480.26018,0.0013176
479.29581,0.0013153
478.33143,0.0013999
477.36705,0.0016227
476.40267,0.0018734
475.43829,0.0020080
474.47392,0.0020227
473.50954,0.0020164
472.54516,0.0019542
471.58078,0.0018347
470.61641,0.0017702
469.65203,0.0017975
468.68765,0.0018494
467.72327,0.0018433
466.75889,0.0017876
465.79452,0.0017061
464.83014,0.0015928
463.86576,0.0014667
462.90138,0.0014149
461.93700,0.0014860
460.97263,0.0015995
460.00825,0.0017302
459.04387,0.0019004
458.07949,0.0020518
457.11512,0.0021273
456.15074,0.0021103
455.18636,0.0020121
454.22198,0.0018517
453.25760,0.0016516
452.29323,0.0015394
451.32885,0.0015678
450.36447,0.0016225
449.40009,0.0016661
448.43571,0.0017414
447.47134,0.0018657
446.50696,0.0019178
445.54258,0.0018746
444.57820,0.0018612
443.61382,0.0018478
442.64945,0.0018025
441.68507,0.0017497
440.72069,0.0017681
439.75631,0.0018156
438.79194,0.0017734
437.82756,0.0017441
436.86318,0.0017495
435.89880,0.0017085
434.93442,0.0015839
433.97005,0.0014530
433.00567,0.0013775
432.04129,0.0012843
431.07691,0.0012368
430.11253,0.0012785
429.14816,0.0013725
428.18378,0.0014836
427.21940,0.0015982
426.25502,0.0017138
425.29065,0.0017877
424.32627,0.0018992
423.36189,0.0020670
422.39751,0.0022139
421.43313,0.0022798
420.46876,0.0022280
419.50438,0.0021126
418.54000,0.0019968
417.57562,0.0018885
416.61124,0.0017459
415.64687,0.0015425
414.68249,0.0013088
413.71811,0.0012186
412.75373,0.0013239
411.78935,0.0014803
410.82498,0.0016385
409.86060,0.0017079
408.89622,0.0016591
407.93184,0.0016030
406.96747,0.0016450
406.00309,0.0016849
405.03871,0.0015881
404.07433,0.0015881
403.10995,0.0015881
402.14558,0.0015881
401.18120,0.0015881
400.21682,0.0015881
399.25244,0.0015881
