3998.31069,-0.0136600
3997.34631,-0.0136600
3996.38194,-0.0136600
3995.41756,-0.0136600
3994.45318,-0.0136600
3993.48880,-0.0136600
3992.52442,-0.0136600
3991.56005,-0.0136379
3990.59567,-0.0136897
3989.63129,-0.0137492
3988.66691,-0.0137714
3987.70253,-0.0138211
3986.73816,-0.0138551
3985.77378,-0.0138476
3984.80940,-0.0138623
3983.84502,-0.0138190
3982.88065,-0.0137309
3981.91627,-0.0136867
3980.95189,-0.0137385
3979.98751,-0.0138890
3979.02313,-0.0140086
3978.05876,-0.0140388
3977.09438,-0.0140167
3976.13000,-0.0139855
3975.16562,-0.0139267
3974.20124,-0.0138385
3973.23687,-0.0137352
3972.27249,-0.0135554
3971.30811,-0.0134135
3970.34373,-0.0134485
3969.37935,-0.0135997
3968.41498,-0.0137380
3967.45060,-0.0138069
3966.48622,-0.0138542
3965.52184,-0.0138576
3964.55747,-0.0137932
3963.59309,-0.0136700
3962.62871,-0.0135260
3961.66433,-0.0134097
3960.69995,-0.0132891
3959.73558,-0.0132250
3958.77120,-0.0132701
3957.80682,-0.0133806
3956.84244,-0.0134786
3955.87806,-0.0134995
3954.91369,-0.0135008
3953.94931,-0.0134740
3952.98493,-0.0133834
3952.02055,-0.0133257
3951.05618,-0.0133350
3950.09180,-0.0133613
3949.12742,-0.0134217
3948.16304,-0.0134713
3947.19866,-0.0134459
3946.23429,-0.0134077
3945.26991,-0.0133467
3944.30553,-0.0132820
3943.34115,-0.0132483
3942.37677,-0.0131740
3941.41240,-0.0131027
3940.44802,-0.0131017
3939.48364,-0.0131510
3938.51926,-0.0132092
3937.55488,-0.0132533
3936.59051,-0.0132357
3935.62613,-0.0131429
3934.66175,-0.0130485
3933.69737,-0.0129839
3932.73300,-0.0130013
3931.76862,-0.0130568
3930.80424,-0.0130875
3929.83986,-0.0131314
3928.87548,-0.0131608
3927.91111,-0.0132248
3926.94673,-0.0133183
3925.98235,-0.0133615
3925.01797,-0.0133595
3924.05359,-0.0132931
3923.08922,-0.0131694
3922.12484,-0.0129926
3921.16046,-0.0128344
3920.19608,-0.0127447
3919.23171,-0.0126082
3918.26733,-0.0124265
3917.30295,-0.0123049
3916.33857,-0.0122803
3915.37419,-0.0123232
3914.40982,-0.0124051
3913.44544,-0.0125292
3912.48106,-0.0126439
3911.51668,-0.0127717
3910.55230,-0.0129147
3909.58793,-0.0129945
3908.62355,-0.0130532
3907.65917,-0.0129802
3906.69479,-0.0127376
3905.73041,-0.0125474
3904.76604,-0.0123857
3903.80166,-0.0121913
3902.83728,-0.0120810
3901.87290,-0.0120877
3900.90853,-0.0121619
3899.94415,-0.0123379
3898.97977,-0.0125720
3898.01539,-0.0127240
3897.05101,-0.0127903
3896.08664,-0.0126730
3895.12226,-0.0124719
3894.15788,-0.0124234
3893.19350,-0.0124108
3892.22912,-0.0123965
3891.26475,-0.0123733
3890.30037,-0.0122873
3889.33599,-0.0122168
3888.37161,-0.0122215
3887.40724,-0.0123079
3886.44286,-0.0123686
3885.47848,-0.0122538
3884.51410,-0.0119880
3883.54972,-0.0118272
3882.58535,-0.0118438
3881.62097,-0.0119571
3880.65659,-0.0121132
3879.69221,-0.0120980
3878.72783,-0.0119588
3877.76346,-0.0119258
3876.79908,-0.0120885
3875.83470,-0.0123127
3874.87032,-0.0122795
3873.90594,-0.0119835
3872.94157,-0.0116742
3871.97719,-0.0115653
3871.01281,-0.0116024
3870.04843,-0.0115775
3869.08406,-0.0114964
3868.11968,-0.0114310
3867.15530,-0.0114245
3866.19092,-0.0115402
3865.22654,-0.0117759
3864.26217,-0.0119559
3863.29779,-0.0119836
3862.33341,-0.0119997
3861.36903,-0.0122119
3860.40465,-0.0125787
3859.44028,-0.0126116
3858.47590,-0.0122009
3857.51152,-0.0116090
3856.54714,-0.0109387
3855.58276,-0.0103207
3854.61839,-0.0099149
3853.65401,-0.0097641
3852.68963,-0.0098542
3851.72525,-0.0101775
3850.76088,-0.0107063
3849.79650,-0.0114423
3848.83212,-0.0121223
3847.86774,-0.0124243
3846.90336,-0.0125149
3845.93899,-0.0124582
3844.97461,-0.0123505
3844.01023,-0.0123043
3843.04585,-0.0120705
3842.08147,-0.0117003
3841.11710,-0.0114113
3840.15272,-0.0111516
3839.18834,-0.0108589
3838.22396,-0.0106286
3837.25959,-0.0105337
3836.29521,-0.0105764
3835.33083,-0.0107310
3834.36645,-0.0109994
3833.40207,-0.0114242
3832.43770,-0.0117393
3831.47332,-0.0117631
3830.50894,-0.0118189
3829.54456,-0.0120096
3828.58018,-0.0122035
3827.61581,-0.0123460
3826.65143,-0.0123025
3825.68705,-0.0120423
3824.72267,-0.0116962
3823.75829,-0.0114117
3822.79392,-0.0113285
3821.82954,-0.0112698
3820.86516,-0.0109653
3819.90078,-0.0106456
3818.93641,-0.0105685
3817.97203,-0.0107066
3817.00765,-0.0110203
3816.04327,-0.0113138
3815.07889,-0.0114088
3814.11452,-0.0115511
3813.15014,-0.0118629
3812.18576,-0.0121177
3811.22138,-0.0122288
3810.25700,-0.0121050
3809.29263,-0.0117966
3808.32825,-0.0116412
3807.36387,-0.0115771
3806.39949,-0.0112986
3805.43512,-0.0109122
3804.47074,-0.0106477
3803.50636,-0.0105931
3802.54198,-0.0107338
3801.57760,-0.0108199
3800.61323,-0.0107067
3799.64885,-0.0106270
3798.68447,-0.0107387
3797.72009,-0.0110211
3796.75571,-0.0113745
3795.79134,-0.0115675
3794.82696,-0.0115214
3793.86258,-0.0114910
3792.89820,-0.0115820
3791.93382,-0.0117081
3790.96945,-0.0118192
3790.00507,-0.0117988
3789.04069,-0.0116880
3788.07631,-0.0116389
3787.11194,-0.0116483
3786.14756,-0.0117027
3785.18318,-0.0117257
3784.21880,-0.0116488
3783.25442,-0.0115672
3782.29005,-0.0115267
3781.32567,-0.0114675
3780.36129,-0.0114099
3779.39691,-0.0113686
3778.43253,-0.0112614
3777.46816,-0.0111703
3776.50378,-0.0112255
3775.53940,-0.0113219
3774.57502,-0.0113394
3773.61065,-0.0112967
3772.64627,-0.0112255
3771.68189,-0.0111631
3770.71751,-0.0111127
3769.75313,-0.0110415
3768.78876,-0.0109761
3767.82438,-0.0109415
3766.86000,-0.0109762
3765.89562,-0.0110876
3764.93124,-0.0111953
3763.96687,-0.0112472
3763.00249,-0.0112227
3762.03811,-0.0111986
3761.07373,-0.0112092
3760.10935,-0.0112172
3759.14498,-0.0113163
3758.18060,-0.0114134
3757.21622,-0.0112902
3756.25184,-0.0111133
3755.28747,-0.0109524
3754.32309,-0.0105756
3753.35871,-0.0100605
3752.39433,-0.0096941
3751.42995,-0.0096267
3750.46558,-0.0096690
3749.50120,-0.0094541
3748.53682,-0.0091796
3747.57244,-0.0091501
3746.60806,-0.0092347
3745.64369,-0.0092979
3744.67931,-0.0094983
3743.71493,-0.0098101
3742.75055,-0.0100342
3741.78618,-0.0102326
3740.82180,-0.0104802
3739.85742,-0.0107460
3738.89304,-0.0108130
3737.92866,-0.0104458
3736.96429,-0.0099278
3735.99991,-0.0095530
3735.03553,-0.0093931
3734.07115,-0.0094108
3733.10677,-0.0096199
3732.14240,-0.0100096
3731.17802,-0.0103303
3730.21364,-0.0105063
3729.24926,-0.0106141
3728.28488,-0.0107082
3727.32051,-0.0107919
3726.35613,-0.0107312
3725.39175,-0.0105366
3724.42737,-0.0103418
3723.46300,-0.0102243
3722.49862,-0.0102025
3721.53424,-0.0103217
3720.56986,-0.0104981
3719.60548,-0.0106428
3718.64111,-0.0108593
3717.67673,-0.0109528
3716.71235,-0.0108212
3715.74797,-0.0106664
3714.78359,-0.0105265
3713.81922,-0.0103529
3712.85484,-0.0101146
3711.89046,-0.0099035
3710.92608,-0.0097971
3709.96171,-0.0098190
3708.99733,-0.0099722
3708.03295,-0.0102222
3707.06857,-0.0104712
3706.10419,-0.0105009
3705.13982,-0.0104382
3704.17544,-0.0104724
3703.21106,-0.0105073
3702.24668,-0.0105465
3701.28230,-0.0106301
3700.31793,-0.0107266
3699.35355,-0.0107535
3698.38917,-0.0107652
3697.42479,-0.0108488
3696.46041,-0.0108803
3695.49604,-0.0108122
3694.53166,-0.0106658
3693.56728,-0.0103472
3692.60290,-0.0098839
3691.63853,-0.0095160
3690.67415,-0.0093286
3689.70977,-0.0092340
3688.74539,-0.0091944
3687.78101,-0.0092030
3686.81664,-0.0093912
3685.85226,-0.0097209
3684.88788,-0.0100234
3683.92350,-0.0103580
3682.95912,-0.0106994
3681.99475,-0.0108739
3681.03037,-0.0108013
3680.06599,-0.0105822
3679.10161,-0.0103198
3678.13724,-0.0100799
3677.17286,-0.0099307
3676.20848,-0.0097633
3675.24410,-0.0095505
3674.27972,-0.0093703
3673.31535,-0.0092997
3672.35097,-0.0094120
3671.38659,-0.0096232
3670.42221,-0.0098024
3669.45783,-0.0098273
3668.49346,-0.0098019
3667.52908,-0.0098933
3666.56470,-0.0100807
3665.60032,-0.0102770
3664.63594,-0.0102813
3663.67157,-0.0102095
3662.70719,-0.0102949
3661.74281,-0.0103711
3660.77843,-0.0103310
3659.81406,-0.0102522
3658.84968,-0.0102264
3657.88530,-0.0102378
3656.92092,-0.0102330
3655.95654,-0.0101982
3654.99217,-0.0100378
3654.02779,-0.0097516
3653.06341,-0.0094435
3652.09903,-0.0092124
3651.13465,-0.0090392
3650.17028,-0.0088685
3649.20590,-0.0088149
3648.24152,-0.0089486
3647.27714,-0.0092184
3646.31276,-0.0095265
3645.34839,-0.0098382
3644.38401,-0.0101366
3643.41963,-0.0103306
3642.45525,-0.0104230
3641.49088,-0.0104533
3640.52650,-0.0104219
3639.56212,-0.0103610
3638.59774,-0.0103180
3637.63336,-0.0102499
3636.66899,-0.0101927
3635.70461,-0.0102366
3634.74023,-0.0101774
3633.77585,-0.0098744
3632.81147,-0.0094720
3631.84710,-0.0090973
3630.88272,-0.0087825
3629.91834,-0.0086128
3628.95396,-0.0086559
3627.98959,-0.0087751
3627.02521,-0.0089437
3626.06083,-0.0092336
3625.09645,-0.0095823
3624.13207,-0.0098253
3623.16770,-0.0097771
3622.20332,-0.0094859
3621.23894,-0.0091561
3620.27456,-0.0089011
3619.31018,-0.0087495
3618.34581,-0.0087318
3617.38143,-0.0087673
3616.41705,-0.0088215
3615.45267,-0.0090098
3614.48829,-0.0091974
3613.52392,-0.0092275
3612.55954,-0.0091442
3611.59516,-0.0091000
3610.63078,-0.0091588
3609.66641,-0.0092320
3608.70203,-0.0093550
3607.73765,-0.0094864
3606.77327,-0.0095472
3605.80889,-0.0095454
3604.84452,-0.0095871
3603.88014,-0.0097218
3602.91576,-0.0097841
3601.95138,-0.0097970
3600.98700,-0.0097654
3600.02263,-0.0097238
3599.05825,-0.0097443
3598.09387,-0.0096796
3597.12949,-0.0095282
3596.16512,-0.0093424
3595.20074,-0.0091890
3594.23636,-0.0090748
3593.27198,-0.0089823
3592.30760,-0.0089527
3591.34323,-0.0089174
3590.37885,-0.0089204
3589.41447,-0.0089369
3588.45009,-0.0089897
3587.48571,-0.0091522
3586.52134,-0.0092826
3585.55696,-0.0093559
3584.59258,-0.0094430
3583.62820,-0.0095703
3582.66382,-0.0096495
3581.69945,-0.0096103
3580.73507,-0.0094812
3579.77069,-0.0093220
3578.80631,-0.0092338
3577.84194,-0.0091771
3576.87756,-0.0091522
3575.91318,-0.0092129
3574.94880,-0.0093256
3573.98442,-0.0094045
3573.02005,-0.0093934
3572.05567,-0.0093476
3571.09129,-0.0092533
3570.12691,-0.0091064
3569.16253,-0.0089180
3568.19816,-0.0087407
3567.23378,-0.0086615
3566.26940,-0.0086398
3565.30502,-0.0086748
3564.34065,-0.0087772
3563.37627,-0.0089352
3562.41189,-0.0090927
3561.44751,-0.0091970
3560.48313,-0.0092773
3559.51876,-0.0093513
3558.55438,-0.0094327
3557.59000,-0.0094356
3556.62562,-0.0093937
3555.66124,-0.0094005
3554.69687,-0.0094025
3553.73249,-0.0093800
3552.76811,-0.0092877
3551.80373,-0.0091653
3550.83935,-0.0090828
3549.87498,-0.0090217
3548.91060,-0.0089912
3547.94622,-0.0089862
3546.98184,-0.0089806
3546.01747,-0.0089506
3545.05309,-0.0089467
3544.08871,-0.0089939
3543.12433,-0.0090417
3542.15995,-0.0090505
3541.19558,-0.0090126
3540.23120,-0.0089814
3539.26682,-0.0089783
3538.30244,-0.0090108
3537.33806,-0.0090742
3536.37369,-0.0091418
3535.40931,-0.0091932
3534.44493,-0.0092088
3533.48055,-0.0092093
3532.51618,-0.0092075
3531.55180,-0.0092133
3530.58742,-0.0091813
3529.62304,-0.0090876
3528.65866,-0.0089790
3527.69429,-0.0088897
3526.72991,-0.0088712
3525.76553,-0.0088716
3524.80115,-0.0088307
3523.83677,-0.0087623
3522.87240,-0.0087073
3521.90802,-0.0087135
3520.94364,-0.0087273
3519.97926,-0.0087445
3519.01488,-0.0087863
3518.05051,-0.0088317
3517.08613,-0.0088749
3516.12175,-0.0089258
3515.15737,-0.0090001
3514.19300,-0.0089952
3513.22862,-0.0089133
3512.26424,-0.0088799
3511.29986,-0.0088757
3510.33548,-0.0088379
3509.37111,-0.0087448
3508.40673,-0.0086467
3507.44235,-0.0086018
3506.47797,-0.0085742
3505.51359,-0.0085068
3504.54922,-0.0084419
3503.58484,-0.0084467
3502.62046,-0.0084790
3501.65608,-0.0085357
3500.69171,-0.0086330
3499.72733,-0.0087192
3498.76295,-0.0087819
3497.79857,-0.0088364
3496.83419,-0.0088773
3495.86982,-0.0088761
3494.90544,-0.0088504
3493.94106,-0.0088134
3492.97668,-0.0087853
3492.01230,-0.0088304
3491.04793,-0.0088595
3490.08355,-0.0087992
3489.11917,-0.0087294
3488.15479,-0.0086778
3487.19041,-0.0086428
3486.22604,-0.0086274
3485.26166,-0.0086167
3484.29728,-0.0086148
3483.33290,-0.0086316
3482.36853,-0.0086640
3481.40415,-0.0087192
3480.43977,-0.0087433
3479.47539,-0.0086128
3478.51101,-0.0084154
3477.54664,-0.0083180
3476.58226,-0.0082628
3475.61788,-0.0082111
3474.65350,-0.0081880
3473.68912,-0.0081790
3472.72475,-0.0082138
3471.76037,-0.0082714
3470.79599,-0.0083313
3469.83161,-0.0084181
3468.86724,-0.0084361
3467.90286,-0.0083263
3466.93848,-0.0082217
3465.97410,-0.0082007
3465.00972,-0.0082081
3464.04535,-0.0082318
3463.08097,-0.0082641
3462.11659,-0.0082671
3461.15221,-0.0082657
3460.18783,-0.0082961
3459.22346,-0.0083583
3458.25908,-0.0084065
3457.29470,-0.0083799
3456.33032,-0.0082763
3455.36594,-0.0081278
3454.40157,-0.0080122
3453.43719,-0.0079939
3452.47281,-0.0080259
3451.50843,-0.0080329
3450.54406,-0.0080106
3449.57968,-0.0080113
3448.61530,-0.0080614
3447.65092,-0.0081220
3446.68654,-0.0081320
3445.72217,-0.0081074
3444.75779,-0.0080709
3443.79341,-0.0079826
3442.82903,-0.0078968
3441.86465,-0.0078728
3440.90028,-0.0078650
3439.93590,-0.0078591
3438.97152,-0.0078872
3438.00714,-0.0079194
3437.04276,-0.0079047
3436.07839,-0.0078687
3435.11401,-0.0078238
3434.14963,-0.0077975
3433.18525,-0.0077924
3432.22088,-0.0077361
3431.25650,-0.0076791
3430.29212,-0.0076710
3429.32774,-0.0076855
3428.36336,-0.0077279
3427.39899,-0.0078060
3426.43461,-0.0078889
3425.47023,-0.0079039
3424.50585,-0.0078549
3423.54147,-0.0077998
3422.57710,-0.0077948
3421.61272,-0.0078255
3420.64834,-0.0078310
3419.68396,-0.0078490
3418.71959,-0.0078683
3417.75521,-0.0078535
3416.79083,-0.0078221
3415.82645,-0.0078144
3414.86207,-0.0078746
3413.89770,-0.0079191
3412.93332,-0.0079089
3411.96894,-0.0079038
3411.00456,-0.0079338
3410.04018,-0.0080016
3409.07581,-0.0080354
3408.11143,-0.0079883
3407.14705,-0.0078892
3406.18267,-0.0077799
3405.21829,-0.0076834
3404.25392,-0.0076156
3403.28954,-0.0076103
3402.32516,-0.0076378
3401.36078,-0.0076479
3400.39641,-0.0076591
3399.43203,-0.0076858
3398.46765,-0.0076839
3397.50327,-0.0076067
3396.53889,-0.0074835
3395.57452,-0.0074166
3394.61014,-0.0074388
3393.64576,-0.0074696
3392.68138,-0.0075039
3391.71700,-0.0075865
3390.75263,-0.0076725
3389.78825,-0.0077087
3388.82387,-0.0077192
3387.85949,-0.0077169
3386.89512,-0.0076436
3385.93074,-0.0075333
3384.96636,-0.0074527
3384.00198,-0.0074037
3383.03760,-0.0073818
3382.07323,-0.0073400
3381.10885,-0.0073148
3380.14447,-0.0073115
3379.18009,-0.0072504
3378.21571,-0.0071901
3377.25134,-0.0071906
3376.28696,-0.0072238
3375.32258,-0.0072332
3374.35820,-0.0072366
3373.39382,-0.0072560
3372.42945,-0.0072536
3371.46507,-0.0072884
3370.50069,-0.0073547
3369.53631,-0.0073988
3368.57194,-0.0073919
3367.60756,-0.0073340
3366.64318,-0.0073034
3365.67880,-0.0072546
3364.71442,-0.0071719
3363.75005,-0.0071235
3362.78567,-0.0071241
3361.82129,-0.0071419
3360.85691,-0.0071237
3359.89253,-0.0071368
3358.92816,-0.0072099
3357.96378,-0.0072654
3356.99940,-0.0072217
3356.03502,-0.0071013
3355.07065,-0.0069985
3354.10627,-0.0068935
3353.14189,-0.0068649
3352.17751,-0.0069565
3351.21313,-0.0070512
3350.24876,-0.0071070
3349.28438,-0.0071372
3348.32000,-0.0072188
3347.35562,-0.0073449
3346.39124,-0.0074028
3345.42687,-0.0073462
3344.46249,-0.0072252
3343.49811,-0.0071189
3342.53373,-0.0070430
3341.56935,-0.0069989
3340.60498,-0.0069417
3339.64060,-0.0068380
3338.67622,-0.0067321
3337.71184,-0.0066840
3336.74747,-0.0067214
3335.78309,-0.0067665
3334.81871,-0.0067772
3333.85433,-0.0067985
3332.88995,-0.0068560
3331.92558,-0.0069411
3330.96120,-0.0070244
3329.99682,-0.0070806
3329.03244,-0.0070927
3328.06806,-0.0070515
3327.10369,-0.0069539
3326.13931,-0.0068541
3325.17493,-0.0067837
3324.21055,-0.0067163
3323.24618,-0.0066664
3322.28180,-0.0066588
3321.31742,-0.0066954
3320.35304,-0.0067253
3319.38866,-0.0067467
3318.42429,-0.0067980
3317.45991,-0.0068544
3316.49553,-0.0069119
3315.53115,-0.0069501
3314.56677,-0.0069538
3313.60240,-0.0069353
3312.63802,-0.0068969
3311.67364,-0.0068703
3310.70926,-0.0068556
3309.74488,-0.0068259
3308.78051,-0.0067714
3307.81613,-0.0066953
3306.85175,-0.0066224
3305.88737,-0.0065821
3304.92300,-0.0065726
3303.95862,-0.0065541
3302.99424,-0.0065128
3302.02986,-0.0064560
3301.06548,-0.0064084
3300.10111,-0.0064226
3299.13673,-0.0064873
3298.17235,-0.0065482
3297.20797,-0.0065755
3296.24359,-0.0065527
3295.27922,-0.0065135
3294.31484,-0.0064723
3293.35046,-0.0064023
3292.38608,-0.0063349
3291.42171,-0.0062917
3290.45733,-0.0062564
3289.49295,-0.0062433
3288.52857,-0.0062714
3287.56419,-0.0063050
3286.59982,-0.0063298
3285.63544,-0.0063614
3284.67106,-0.0063433
3283.70668,-0.0062820
3282.74230,-0.0062136
3281.77793,-0.0061283
3280.81355,-0.0060765
3279.84917,-0.0060561
3278.88479,-0.0060445
3277.92041,-0.0060722
3276.95604,-0.0061051
3275.99166,-0.0060921
3275.02728,-0.0060935
3274.06290,-0.0061356
3273.09853,-0.0061537
3272.13415,-0.0061821
3271.16977,-0.0062026
3270.20539,-0.0061605
3269.24101,-0.0061251
3268.27664,-0.0061042
3267.31226,-0.0060644
3266.34788,-0.0060261
3265.38350,-0.0060058
3264.41912,-0.0059866
3263.45475,-0.0059947
3262.49037,-0.0060749
3261.52599,-0.0061962
3260.56161,-0.0063066
3259.59724,-0.0063615
3258.63286,-0.0063723
3257.66848,-0.0063509
3256.70410,-0.0062801
3255.73972,-0.0061813
3254.77535,-0.0061110
3253.81097,-0.0061117
3252.84659,-0.0061207
3251.88221,-0.0061433
3250.91783,-0.0062117
3249.95346,-0.0062472
3248.98908,-0.0062455
3248.02470,-0.0062379
3247.06032,-0.0061897
3246.09594,-0.0060707
3245.13157,-0.0059559
3244.16719,-0.0059101
3243.20281,-0.0059307
3242.23843,-0.0060092
3241.27406,-0.0060728
3240.30968,-0.0061125
3239.34530,-0.0061256
3238.38092,-0.0060705
3237.41654,-0.0059931
3236.45217,-0.0059382
3235.48779,-0.0058900
3234.52341,-0.0058176
3233.55903,-0.0057605
3232.59465,-0.0057487
3231.63028,-0.0057711
3230.66590,-0.0057995
3229.70152,-0.0058042
3228.73714,-0.0058333
3227.77276,-0.0058870
3226.80839,-0.0059482
3225.84401,-0.0059893
3224.87963,-0.0059741
3223.91525,-0.0059431
3222.95088,-0.0058961
3221.98650,-0.0058444
3221.02212,-0.0058120
3220.05774,-0.0057793
3219.09336,-0.0057373
3218.12899,-0.0057283
3217.16461,-0.0057731
3216.20023,-0.0058219
3215.23585,-0.0058751
3214.27147,-0.0058749
3213.30710,-0.0058051
3212.34272,-0.0057880
3211.37834,-0.0058130
3210.41396,-0.0058239
3209.44959,-0.0058294
3208.48521,-0.0058117
3207.52083,-0.0057666
3206.55645,-0.0057336
3205.59207,-0.0057105
3204.62770,-0.0056922
3203.66332,-0.0056969
3202.69894,-0.0056961
3201.73456,-0.0057068
3200.77018,-0.0057322
3199.80581,-0.0057520
3198.84143,-0.0057886
3197.87705,-0.0058349
3196.91267,-0.0058935
3195.94829,-0.0059547
3194.98392,-0.0060026
3194.01954,-0.0060335
3193.05516,-0.0060451
3192.09078,-0.0060385
3191.12641,-0.0059970
3190.16203,-0.0059298
3189.19765,-0.0058259
3188.23327,-0.0056938
3187.26889,-0.0055974
3186.30452,-0.0055746
3185.34014,-0.0056074
3184.37576,-0.0056222
3183.41138,-0.0056111
3182.44700,-0.0056400
3181.48263,-0.0056887
3180.51825,-0.0056922
3179.55387,-0.0056736
3178.58949,-0.0056465
3177.62512,-0.0055849
3176.66074,-0.0055281
3175.69636,-0.0055082
3174.73198,-0.0055198
3173.76760,-0.0055393
3172.80323,-0.0055539
3171.83885,-0.0055945
3170.87447,-0.0056766
3169.91009,-0.0057556
3168.94571,-0.0057774
3167.98134,-0.0057617
3167.01696,-0.0057244
3166.05258,-0.0057000
3165.08820,-0.0057105
3164.12382,-0.0056632
3163.15945,-0.0055695
3162.19507,-0.0055031
3161.23069,-0.0054780
3160.26631,-0.0055198
3159.30194,-0.0055861
3158.33756,-0.0056209
3157.37318,-0.0056286
3156.40880,-0.0056382
3155.44442,-0.0056643
3154.48005,-0.0056781
3153.51567,-0.0056515
3152.55129,-0.0055956
3151.58691,-0.0055445
3150.62253,-0.0055000
3149.65816,-0.0054641
3148.69378,-0.0054421
3147.72940,-0.0054023
3146.76502,-0.0053420
3145.80065,-0.0052840
3144.83627,-0.0052341
3143.87189,-0.0051842
3142.90751,-0.0051413
3141.94313,-0.0051535
3140.97876,-0.0052289
3140.01438,-0.0053137
3139.05000,-0.0053960
3138.08562,-0.0054836
3137.12124,-0.0055617
3136.15687,-0.0056340
3135.19249,-0.0056556
3134.22811,-0.0055878
3133.26373,-0.0055022
3132.29935,-0.0054309
3131.33498,-0.0053487
3130.37060,-0.0052714
3129.40622,-0.0052064
3128.44184,-0.0051629
3127.47747,-0.0051742
3126.51309,-0.0052014
3125.54871,-0.0052051
3124.58433,-0.0052167
3123.61995,-0.0052111
3122.65558,-0.0052024
3121.69120,-0.0052491
3120.72682,-0.0053020
3119.76244,-0.0053187
3118.79806,-0.0053215
3117.83369,-0.0053387
3116.86931,-0.0053520
3115.90493,-0.0053385
3114.94055,-0.0053153
3113.97618,-0.0052967
3113.01180,-0.0052814
3112.04742,-0.0052612
3111.08304,-0.0052834
3110.11866,-0.0053113
3109.15429,-0.0052751
3108.18991,-0.0052308
3107.22553,-0.0051837
3106.26115,-0.0051299
3105.29677,-0.0050614
3104.33240,-0.0049824
3103.36802,-0.0049524
3102.40364,-0.0049531
3101.43926,-0.0049627
3100.47488,-0.0049903
3099.51051,-0.0050438
3098.54613,-0.0050700
3097.58175,-0.0050595
3096.61737,-0.0050727
3095.65300,-0.0050701
3094.68862,-0.0050599
3093.72424,-0.0050531
3092.75986,-0.0050512
3091.79548,-0.0050861
3090.83111,-0.0051160
3089.86673,-0.0051468
3088.90235,-0.0051648
3087.93797,-0.0051390
3086.97359,-0.0051182
3086.00922,-0.0051264
3085.04484,-0.0051199
3084.08046,-0.0050884
3083.11608,-0.0050876
3082.15171,-0.0051110
3081.18733,-0.0051443
3080.22295,-0.0051483
3079.25857,-0.0050908
3078.29419,-0.0050476
3077.32982,-0.0050068
3076.36544,-0.0049507
3075.40106,-0.0049314
3074.43668,-0.0048928
3073.47230,-0.0047907
3072.50793,-0.0047172
3071.54355,-0.0047322
3070.57917,-0.0047840
3069.61479,-0.0047966
3068.65041,-0.0047558
3067.68604,-0.0047326
3066.72166,-0.0047436
3065.75728,-0.0047664
3064.79290,-0.0048002
3063.82853,-0.0047972
3062.86415,-0.0047558
3061.89977,-0.0047479
3060.93539,-0.0048178
3059.97101,-0.0049204
3059.00664,-0.0049721
3058.04226,-0.0049506
3057.07788,-0.0049197
3056.11350,-0.0049109
3055.14912,-0.0048833
3054.18475,-0.0048634
3053.22037,-0.0048361
3052.25599,-0.0047812
3051.29161,-0.0047840
3050.32724,-0.0048353
3049.36286,-0.0048754
3048.39848,-0.0048889
3047.43410,-0.0048859
3046.46972,-0.0048818
3045.50535,-0.0048865
3044.54097,-0.0049144
3043.57659,-0.0049359
3042.61221,-0.0049275
3041.64783,-0.0048929
3040.68346,-0.0048720
3039.71908,-0.0048786
3038.75470,-0.0048499
3037.79032,-0.0047817
3036.82594,-0.0047239
3035.86157,-0.0047011
3034.89719,-0.0046722
3033.93281,-0.0046288
3032.96843,-0.0046165
3032.00406,-0.0045974
3031.03968,-0.0045767
3030.07530,-0.0046155
3029.11092,-0.0046965
3028.14654,-0.0047607
3027.18217,-0.0047795
3026.21779,-0.0047840
3025.25341,-0.0047754
3024.28903,-0.0047339
3023.32465,-0.0046817
3022.36028,-0.0046354
3021.39590,-0.0046014
3020.43152,-0.0045834
3019.46714,-0.0045977
3018.50276,-0.0046553
3017.53839,-0.0047174
3016.57401,-0.0047420
3015.60963,-0.0047362
3014.64525,-0.0047115
3013.68088,-0.0046459
3012.71650,-0.0045602
3011.75212,-0.0044957
3010.78774,-0.0044476
3009.82336,-0.0044364
3008.85899,-0.0044541
3007.89461,-0.0044564
3006.93023,-0.0044652
3005.96585,-0.0044858
3005.00147,-0.0044932
3004.03710,-0.0044956
3003.07272,-0.0044890
3002.10834,-0.0044627
3001.14396,-0.0044268
3000.17959,-0.0043952
2999.21521,-0.0043767
2998.25083,-0.0043630
2997.28645,-0.0043481
2996.32207,-0.0043546
2995.35770,-0.0043775
2994.39332,-0.0043912
2993.42894,-0.0043990
2992.46456,-0.0043897
2991.50018,-0.0043526
2990.53581,-0.0043018
2989.57143,-0.0042537
2988.60705,-0.0042145
2987.64267,-0.0041794
2986.67829,-0.0041633
2985.71392,-0.0041878
2984.74954,-0.0042500
2983.78516,-0.0043067
2982.82078,-0.0043256
2981.85641,-0.0043205
2980.89203,-0.0042799
2979.92765,-0.0042189
2978.96327,-0.0041844
2977.99889,-0.0041603
2977.03452,-0.0041146
2976.07014,-0.0040499
2975.10576,-0.0039977
2974.14138,-0.0039748
2973.17700,-0.0039876
2972.21263,-0.0040121
2971.24825,-0.0039964
2970.28387,-0.0039778
2969.31949,-0.0039915
2968.35512,-0.0040076
2967.39074,-0.0040227
2966.42636,-0.0040175
2965.46198,-0.0039649
2964.49760,-0.0038803
2963.53323,-0.0037967
2962.56885,-0.0037307
2961.60447,-0.0036812
2960.64009,-0.0036299
2959.67571,-0.0035677
2958.71134,-0.0035378
2957.74696,-0.0035409
2956.78258,-0.0035328
2955.81820,-0.0035340
2954.85382,-0.0035569
2953.88945,-0.0035741
2952.92507,-0.0035793
2951.96069,-0.0035774
2950.99631,-0.0035809
2950.03194,-0.0035975
2949.06756,-0.0036073
2948.10318,-0.0036052
2947.13880,-0.0036147
2946.17442,-0.0036246
2945.21005,-0.0036001
2944.24567,-0.0035490
2943.28129,-0.0034911
2942.31691,-0.0034229
2941.35253,-0.0033498
2940.38816,-0.0032767
2939.42378,-0.0032074
2938.45940,-0.0031581
2937.49502,-0.0031196
2936.53065,-0.0030763
2935.56627,-0.0030310
2934.60189,-0.0029742
2933.63751,-0.0028881
2932.67313,-0.0027734
2931.70876,-0.0026353
2930.74438,-0.0024959
2929.78000,-0.0023996
2928.81562,-0.0023444
2927.85124,-0.0023237
2926.88687,-0.0023416
2925.92249,-0.0023591
2924.95811,-0.0023651
2923.99373,-0.0023784
2923.02935,-0.0024020
2922.06498,-0.0024285
2921.10060,-0.0024395
2920.13622,-0.0024415
2919.17184,-0.0024706
2918.20747,-0.0025368
2917.24309,-0.0026136
2916.27871,-0.0026839
2915.31433,-0.0027612
2914.34995,-0.0028618
2913.38558,-0.0029593
2912.42120,-0.0030238
2911.45682,-0.0030627
2910.49244,-0.0030847
2909.52806,-0.0031108
2908.56369,-0.0031457
2907.59931,-0.0031596
2906.63493,-0.0031427
2905.67055,-0.0031288
2904.70618,-0.0031432
2903.74180,-0.0031771
2902.77742,-0.0032382
2901.81304,-0.0033028
2900.84866,-0.0033419
2899.88429,-0.0033461
2898.91991,-0.0033114
2897.95553,-0.0032804
2896.99115,-0.0032543
2896.02677,-0.0032231
2895.06240,-0.0032159
2894.09802,-0.0032555
2893.13364,-0.0033281
2892.16926,-0.0033871
2891.20488,-0.0034384
2890.24051,-0.0034768
2889.27613,-0.0034758
2888.31175,-0.0034321
2887.34737,-0.0033639
2886.38300,-0.0033139
2885.41862,-0.0032790
2884.45424,-0.0032646
2883.48986,-0.0032754
2882.52548,-0.0033151
2881.56111,-0.0033863
2880.59673,-0.0034388
2879.63235,-0.0034583
2878.66797,-0.0034510
2877.70359,-0.0034414
2876.73922,-0.0034397
2875.77484,-0.0034268
2874.81046,-0.0034134
2873.84608,-0.0033898
2872.88171,-0.0033635
2871.91733,-0.0033463
2870.95295,-0.0033286
2869.98857,-0.0032928
2869.02419,-0.0032386
2868.05982,-0.0032042
2867.09544,-0.0031919
2866.13106,-0.0031819
2865.16668,-0.0031420
2864.20230,-0.0030874
2863.23793,-0.0030632
2862.27355,-0.0030535
2861.30917,-0.0030461
2860.34479,-0.0030254
2859.38041,-0.0029792
2858.41604,-0.0029107
2857.45166,-0.0028549
2856.48728,-0.0028365
2855.52290,-0.0028173
2854.55853,-0.0027817
2853.59415,-0.0027341
2852.62977,-0.0027207
2851.66539,-0.0027607
2850.70101,-0.0028069
2849.73664,-0.0028517
2848.77226,-0.0028983
2847.80788,-0.0029689
2846.84350,-0.0030538
2845.87912,-0.0031168
2844.91475,-0.0031678
2843.95037,-0.0032116
2842.98599,-0.0032519
2842.02161,-0.0032885
2841.05724,-0.0033259
2840.09286,-0.0033638
2839.12848,-0.0033874
2838.16410,-0.0034129
2837.19972,-0.0034615
2836.23535,-0.0035141
2835.27097,-0.0035258
2834.30659,-0.0034886
2833.34221,-0.0034463
2832.37783,-0.0034276
2831.41346,-0.0034112
2830.44908,-0.0033928
2829.48470,-0.0033819
2828.52032,-0.0033725
2827.55594,-0.0033817
2826.59157,-0.0034131
2825.62719,-0.0034652
2824.66281,-0.0035048
2823.69843,-0.0034948
2822.73406,-0.0034780
2821.76968,-0.0034862
2820.80530,-0.0035138
2819.84092,-0.0035270
2818.87654,-0.0035097
2817.91217,-0.0034871
2816.94779,-0.0034735
2815.98341,-0.0034777
2815.01903,-0.0034876
2814.05465,-0.0035001
2813.09028,-0.0035015
2812.12590,-0.0034913
2811.16152,-0.0035112
2810.19714,-0.0035321
2809.23276,-0.0035165
2808.26839,-0.0034777
2807.30401,-0.0034385
2806.33963,-0.0034282
2805.37525,-0.0034530
2804.41088,-0.0034865
2803.44650,-0.0035042
2802.48212,-0.0035169
2801.51774,-0.0035469
2800.55336,-0.0035974
2799.58899,-0.0036293
2798.62461,-0.0036048
2797.66023,-0.0035551
2796.69585,-0.0035132
2795.73147,-0.0034756
2794.76710,-0.0034429
2793.80272,-0.0034289
2792.83834,-0.0034290
2791.87396,-0.0034193
2790.90959,-0.0034114
2789.94521,-0.0034265
2788.98083,-0.0034393
2788.01645,-0.0034294
2787.05207,-0.0034308
2786.08770,-0.0034550
2785.12332,-0.0034657
2784.15894,-0.0034602
2783.19456,-0.0034588
2782.23018,-0.0034566
2781.26581,-0.0034455
2780.30143,-0.0034290
2779.33705,-0.0034155
2778.37267,-0.0034201
2777.40829,-0.0034369
2776.44392,-0.0034475
2775.47954,-0.0034668
2774.51516,-0.0034973
2773.55078,-0.0035152
2772.58641,-0.0035202
2771.62203,-0.0035017
2770.65765,-0.0034348
2769.69327,-0.0033607
2768.72889,-0.0033226
2767.76452,-0.0033014
2766.80014,-0.0033006
2765.83576,-0.0033099
2764.87138,-0.0032901
2763.90700,-0.0032718
2762.94263,-0.0032801
2761.97825,-0.0032872
2761.01387,-0.0033060
2760.04949,-0.0033386
2759.08512,-0.0033561
2758.12074,-0.0033726
2757.15636,-0.0033921
2756.19198,-0.0034088
2755.22760,-0.0034234
2754.26323,-0.0034132
2753.29885,-0.0033782
2752.33447,-0.0033436
2751.37009,-0.0033256
2750.40571,-0.0033182
2749.44134,-0.0033244
2748.47696,-0.0033431
2747.51258,-0.0033513
2746.54820,-0.0033582
2745.58382,-0.0033751
2744.61945,-0.0033910
2743.65507,-0.0033955
2742.69069,-0.0033978
2741.72631,-0.0034101
2740.76194,-0.0034148
2739.79756,-0.0034047
2738.83318,-0.0033635
2737.86880,-0.0032937
2736.90442,-0.0032492
2735.94005,-0.0032394
2734.97567,-0.0032400
2734.01129,-0.0032412
2733.04691,-0.0032418
2732.08253,-0.0032496
2731.11816,-0.0032678
2730.15378,-0.0032809
2729.18940,-0.0032715
2728.22502,-0.0032483
2727.26065,-0.0032198
2726.29627,-0.0031964
2725.33189,-0.0031967
2724.36751,-0.0032026
2723.40313,-0.0032100
2722.43876,-0.0032361
2721.47438,-0.0032600
2720.51000,-0.0032685
2719.54562,-0.0032710
2718.58124,-0.0032630
2717.61687,-0.0032474
2716.65249,-0.0032432
2715.68811,-0.0032460
2714.72373,-0.0032380
2713.75935,-0.0032214
2712.79498,-0.0032006
2711.83060,-0.0031996
2710.86622,-0.0032195
2709.90184,-0.0032237
2708.93747,-0.0032234
2707.97309,-0.0032374
2707.00871,-0.0032659
2706.04433,-0.0032981
2705.07995,-0.0033138
2704.11558,-0.0033104
2703.15120,-0.0032942
2702.18682,-0.0032753
2701.22244,-0.0032470
2700.25806,-0.0032178
2699.29369,-0.0031930
2698.32931,-0.0031614
2697.36493,-0.0031373
2696.40055,-0.0031220
2695.43618,-0.0031229
2694.47180,-0.0031299
2693.50742,-0.0031258
2692.54304,-0.0031212
2691.57866,-0.0031148
2690.61429,-0.0031169
2689.64991,-0.0031307
2688.68553,-0.0031510
2687.72115,-0.0031629
2686.75677,-0.0031715
2685.79240,-0.0031910
2684.82802,-0.0031894
2683.86364,-0.0031730
2682.89926,-0.0031555
2681.93488,-0.0031334
2680.97051,-0.0031095
2680.00613,-0.0030832
2679.04175,-0.0030729
2678.07737,-0.0030758
2677.11300,-0.0030860
2676.14862,-0.0030879
2675.18424,-0.0030789
2674.21986,-0.0030661
2673.25548,-0.0030341
2672.29111,-0.0030058
2671.32673,-0.0029866
2670.36235,-0.0029786
2669.39797,-0.0030002
2668.43359,-0.0030331
2667.46922,-0.0030545
2666.50484,-0.0030665
2665.54046,-0.0030879
2664.57608,-0.0030990
2663.61171,-0.0030824
2662.64733,-0.0030593
2661.68295,-0.0030389
2660.71857,-0.0030284
2659.75419,-0.0030343
2658.78982,-0.0030513
2657.82544,-0.0030626
2656.86106,-0.0030571
2655.89668,-0.0030492
2654.93230,-0.0030582
2653.96793,-0.0030644
2653.00355,-0.0030456
2652.03917,-0.0030145
2651.07479,-0.0029829
2650.11041,-0.0029675
2649.14604,-0.0029767
2648.18166,-0.0030002
2647.21728,-0.0030092
2646.25290,-0.0029970
2645.28853,-0.0029897
2644.32415,-0.0029830
2643.35977,-0.0029647
2642.39539,-0.0029240
2641.43101,-0.0028808
2640.46664,-0.0028577
2639.50226,-0.0028490
2638.53788,-0.0028645
2637.57350,-0.0028889
2636.60912,-0.0029128
2635.64475,-0.0029310
2634.68037,-0.0029388
2633.71599,-0.0029429
2632.75161,-0.0029268
2631.78724,-0.0028848
2630.82286,-0.0028498
2629.85848,-0.0028617
2628.89410,-0.0028831
2627.92972,-0.0028830
2626.96535,-0.0028680
2626.00097,-0.0028433
2625.03659,-0.0028392
2624.07221,-0.0028298
2623.10783,-0.0027999
2622.14346,-0.0027536
2621.17908,-0.0026968
2620.21470,-0.0026610
2619.25032,-0.0026654
2618.28594,-0.0027232
2617.32157,-0.0027798
2616.35719,-0.0028037
2615.39281,-0.0028131
2614.42843,-0.0028339
2613.46406,-0.0028751
2612.49968,-0.0029101
2611.53530,-0.0029542
2610.57092,-0.0029898
2609.60654,-0.0030234
2608.64217,-0.0030673
2607.67779,-0.0030913
2606.71341,-0.0031072
2605.74903,-0.0031084
2604.78465,-0.0030795
2603.82028,-0.0030190
2602.85590,-0.0029766
2601.89152,-0.0029657
2600.92714,-0.0029669
2599.96276,-0.0029881
2598.99839,-0.0029933
2598.03401,-0.0029881
2597.06963,-0.0029597
2596.10525,-0.0029076
2595.14088,-0.0028550
2594.17650,-0.0027989
2593.21212,-0.0027653
2592.24774,-0.0027522
2591.28336,-0.0028006
2590.31899,-0.0028975
2589.35461,-0.0029550
2588.39023,-0.0029573
2587.42585,-0.0029412
2586.46147,-0.0029147
2585.49710,-0.0028339
2584.53272,-0.0027247
2583.56834,-0.0026066
2582.60396,-0.0025263
2581.63959,-0.0025301
2580.67521,-0.0025598
2579.71083,-0.0026285
2578.74645,-0.0027226
2577.78207,-0.0027749
2576.81770,-0.0027917
2575.85332,-0.0028174
2574.88894,-0.0028336
2573.92456,-0.0028095
2572.96018,-0.0027744
2571.99581,-0.0027369
2571.03143,-0.0027376
2570.06705,-0.0027318
2569.10267,-0.0026749
2568.13829,-0.0026600
2567.17392,-0.0026882
2566.20954,-0.0026947
2565.24516,-0.0026590
2564.28078,-0.0026532
2563.31641,-0.0026940
2562.35203,-0.0027082
2561.38765,-0.0027034
2560.42327,-0.0026870
2559.45889,-0.0026455
2558.49452,-0.0025468
2557.53014,-0.0024443
2556.56576,-0.0024312
2555.60138,-0.0024339
2554.63700,-0.0023961
2553.67263,-0.0023672
2552.70825,-0.0024145
2551.74387,-0.0025114
2550.77949,-0.0025543
2549.81512,-0.0025756
2548.85074,-0.0026135
2547.88636,-0.0026206
2546.92198,-0.0026200
2545.95760,-0.0026522
2544.99323,-0.0027023
2544.02885,-0.0027196
2543.06447,-0.0027215
2542.10009,-0.0027617
2541.13571,-0.0028134
2540.17134,-0.0028403
2539.20696,-0.0028003
2538.24258,-0.0027179
2537.27820,-0.0026483
2536.31382,-0.0026049
2535.34945,-0.0025816
2534.38507,-0.0024923
2533.42069,-0.0023727
2532.45631,-0.0022928
2531.49194,-0.0022787
2530.52756,-0.0023842
2529.56318,-0.0025037
2528.59880,-0.0025644
2527.63442,-0.0025932
2526.67005,-0.0026307
2525.70567,-0.0026888
2524.74129,-0.0027260
2523.77691,-0.0027152
2522.81253,-0.0026236
2521.84816,-0.0025407
2520.88378,-0.0025162
2519.91940,-0.0025375
2518.95502,-0.0025931
2517.99065,-0.0026007
2517.02627,-0.0025776
2516.06189,-0.0025484
2515.09751,-0.0025566
2514.13313,-0.0025919
2513.16876,-0.0026038
2512.20438,-0.0026042
2511.24000,-0.0025446
2510.27562,-0.0025056
2509.31124,-0.0025078
2508.34687,-0.0024620
2507.38249,-0.0024025
2506.41811,-0.0023797
2505.45373,-0.0023750
2504.48935,-0.0023594
2503.52498,-0.0024193
2502.56060,-0.0025121
2501.59622,-0.0025503
2500.63184,-0.0025651
2499.66747,-0.0025410
2498.70309,-0.0025147
2497.73871,-0.0024884
2496.77433,-0.0024879
2495.80995,-0.0025551
2494.84558,-0.0026138
2493.88120,-0.0026318
2492.91682,-0.0026475
2491.95244,-0.0026680
2490.98806,-0.0026014
2490.02369,-0.0024750
2489.05931,-0.0023834
2488.09493,-0.0022690
2487.13055,-0.0021455
2486.16618,-0.0020925
2485.20180,-0.0020848
2484.23742,-0.0020849
2483.27304,-0.0021079
2482.30866,-0.0021203
2481.34429,-0.0021393
2480.37991,-0.0022098
2479.41553,-0.0022675
2478.45115,-0.0023306
2477.48677,-0.0024035
2476.52240,-0.0024205
2475.55802,-0.0024111
2474.59364,-0.0024000
2473.62926,-0.0023730
2472.66488,-0.0023664
2471.70051,-0.0023963
2470.73613,-0.0023948
2469.77175,-0.0024075
2468.80737,-0.0024707
2467.84300,-0.0024747
2466.87862,-0.0024298
2465.91424,-0.0023667
2464.94986,-0.0022935
2463.98548,-0.0022646
2463.02111,-0.0022518
2462.05673,-0.0022423
2461.09235,-0.0022566
2460.12797,-0.0022970
2459.16359,-0.0023500
2458.19922,-0.0023689
2457.23484,-0.0023628
2456.27046,-0.0023478
2455.30608,-0.0023316
2454.34171,-0.0023675
2453.37733,-0.0024303
2452.41295,-0.0024354
2451.44857,-0.0023719
2450.48419,-0.0023081
2449.51982,-0.0022797
2448.55544,-0.0022549
2447.59106,-0.0022401
2446.62668,-0.0022334
2445.66230,-0.0022322
2444.69793,-0.0022461
2443.73355,-0.0022596
2442.76917,-0.0023171
2441.80479,-0.0023780
2440.84041,-0.0023835
2439.87604,-0.0024121
2438.91166,-0.0024556
2437.94728,-0.0024729
2436.98290,-0.0024872
2436.01853,-0.0024991
2435.05415,-0.0024891
2434.08977,-0.0024547
2433.12539,-0.0024254
2432.16101,-0.0023669
2431.19664,-0.0022826
2430.23226,-0.0022226
2429.26788,-0.0021703
2428.30350,-0.0021325
2427.33912,-0.0020548
2426.37475,-0.0019314
2425.41037,-0.0018798
2424.44599,-0.0018876
2423.48161,-0.0019028
2422.51724,-0.0019532
2421.55286,-0.0020418
2420.58848,-0.0021074
2419.62410,-0.0021488
2418.65972,-0.0022137
2417.69535,-0.0022762
2416.73097,-0.0023203
2415.76659,-0.0023064
2414.80221,-0.0022496
2413.83783,-0.0022454
2412.87346,-0.0022425
2411.90908,-0.0021790
2410.94470,-0.0021019
2409.98032,-0.0020490
2409.01594,-0.0020134
2408.05157,-0.0019933
2407.08719,-0.0020219
2406.12281,-0.0020974
2405.15843,-0.0021425
2404.19406,-0.0020996
2403.22968,-0.0020379
2402.26530,-0.0020150
2401.30092,-0.0020024
2400.33654,-0.0019638
2399.37217,-0.0018839
2398.40779,-0.0018240
2397.44341,-0.0018263
2396.47903,-0.0018624
2395.51465,-0.0019160
2394.55028,-0.0019553
2393.58590,-0.0019109
2392.62152,-0.0018178
2391.65714,-0.0017948
2390.69276,-0.0018269
2389.72839,-0.0018723
2388.76401,-0.0018964
2387.79963,-0.0018632
2386.83525,-0.0018501
2385.87088,-0.0018593
2384.90650,-0.0018328
2383.94212,-0.0017568
2382.97774,-0.0015941
2382.01336,-0.0013344
2381.04899,-0.0010280
2380.08461,-0.0007079
2379.12023,-0.0003229
2378.15585,0.0001322
2377.19147,0.0006404
2376.22710,0.0011901
2375.26272,0.0017128
2374.29834,0.0022367
2373.33396,0.0027965
2372.36959,0.0033886
2371.40521,0.0040156
2370.44083,0.0046078
2369.47645,0.0051485
2368.51207,0.0056426
2367.54770,0.0060819
2366.58332,0.0064520
2365.61894,0.0066943
2364.65456,0.0068367
2363.69018,0.0069301
2362.72581,0.0070021
2361.76143,0.0070633
2360.79705,0.0070857
2359.83267,0.0070638
2358.86829,0.0069656
2357.90392,0.0067788
2356.93954,0.0064980
2355.97516,0.0060963
2355.01078,0.0055254
2354.04641,0.0047151
2353.08203,0.0037766
2352.11765,0.0028859
2351.15327,0.0021538
2350.18889,0.0016858
2349.22452,0.0014934
2348.26014,0.0015761
2347.29576,0.0019102
2346.33138,0.0024404
2345.36700,0.0031058
2344.40263,0.0037769
2343.43825,0.0043228
2342.47387,0.0046505
2341.50949,0.0047943
2340.54512,0.0048442
2339.58074,0.0048405
2338.61636,0.0048105
2337.65198,0.0047422
2336.68760,0.0046707
2335.72323,0.0046184
2334.75885,0.0045693
2333.79447,0.0045327
2332.83009,0.0045042
2331.86571,0.0044732
2330.90134,0.0044018
2329.93696,0.0042945
2328.97258,0.0041676
2328.00820,0.0040166
2327.04382,0.0038762
2326.07945,0.0037366
2325.11507,0.0035406
2324.15069,0.0032653
2323.18631,0.0029847
2322.22194,0.0027496
2321.25756,0.0025165
2320.29318,0.0022647
2319.32880,0.0019993
2318.36442,0.0017418
2317.40005,0.0015225
2316.43567,0.0013465
2315.47129,0.0011821
2314.50691,0.0009915
2313.54253,0.0007521
2312.57816,0.0004931
2311.61378,0.0002793
2310.64940,0.0000828
2309.68502,-0.0001120
2308.72065,-0.0002776
2307.75627,-0.0004296
2306.79189,-0.0005715
2305.82751,-0.0006869
2304.86313,-0.0007704
2303.89876,-0.0008514
2302.93438,-0.0008886
2301.97000,-0.0008650
2301.00562,-0.0008790
2300.04124,-0.0009639
2299.07687,-0.0010479
2298.11249,-0.0010576
2297.14811,-0.0010467
2296.18373,-0.0010605
2295.21935,-0.0011036
2294.25498,-0.0011999
2293.29060,-0.0013277
2292.32622,-0.0014866
2291.36184,-0.0016207
2290.39747,-0.0017187
2289.43309,-0.0018275
2288.46871,-0.0018933
2287.50433,-0.0018396
2286.53995,-0.0016996
2285.57558,-0.0015802
2284.61120,-0.0014876
2283.64682,-0.0014797
2282.68244,-0.0015428
2281.71806,-0.0016537
2280.75369,-0.0018560
2279.78931,-0.0019621
2278.82493,-0.0019901
2277.86055,-0.0020228
2276.89618,-0.0019697
2275.93180,-0.0018600
2274.96742,-0.0017911
2274.00304,-0.0017874
2273.03866,-0.0017774
2272.07429,-0.0017924
2271.10991,-0.0017222
2270.14553,-0.0016510
2269.18115,-0.0017446
2268.21677,-0.0018293
2267.25240,-0.0019881
2266.28802,-0.0021416
2265.32364,-0.0021782
2264.35926,-0.0022026
2263.39488,-0.0022725
2262.43051,-0.0024193
2261.46613,-0.0024633
2260.50175,-0.0023793
2259.53737,-0.0021000
2258.57300,-0.0018029
2257.60862,-0.0017237
2256.64424,-0.0016632
2255.67986,-0.0016358
2254.71548,-0.0016021
2253.75111,-0.0015978
2252.78673,-0.0016173
2251.82235,-0.0016917
2250.85797,-0.0019603
2249.89359,-0.0021524
2248.92922,-0.0022301
2247.96484,-0.0021546
2247.00046,-0.0020146
2246.03608,-0.0019790
2245.07171,-0.0019311
2244.10733,-0.0019829
2243.14295,-0.0020094
2242.17857,-0.0018395
2241.21419,-0.0015770
2240.24982,-0.0014891
2239.28544,-0.0016595
2238.32106,-0.0019058
2237.35668,-0.0022187
2236.39230,-0.0025612
2235.42793,-0.0029356
2234.46355,-0.0033754
2233.49917,-0.0037957
2232.53479,-0.0041541
2231.57041,-0.0042913
2230.60604,-0.0041970
2229.64166,-0.0040772
2228.67728,-0.0040403
2227.71290,-0.0040314
2226.74853,-0.0040225
2225.78415,-0.0040136
2224.81977,-0.0040047
2223.85539,-0.0039958
2222.89101,-0.0039869
2221.92664,-0.0039780
2220.96226,-0.0039691
2219.99788,-0.0039602
2219.03350,-0.0039513
2218.06912,-0.0039424
2217.10475,-0.0039336
2216.14037,-0.0039247
2215.17599,-0.0039158
2214.21161,-0.0039069
2213.24724,-0.0038980
2212.28286,-0.0038891
2211.31848,-0.0038802
2210.35410,-0.0038713
2209.38972,-0.0038624
2208.42535,-0.0038535
2207.46097,-0.0038446
2206.49659,-0.0038357
2205.53221,-0.0038268
2204.56783,-0.0038180
2203.60346,-0.0038091
2202.63908,-0.0038002
2201.67470,-0.0037913
2200.71032,-0.0037824
2199.74594,-0.0037735
2198.78157,-0.0037646
2197.81719,-0.0037557
2196.85281,-0.0037468
2195.88843,-0.0037379
2194.92406,-0.0037290
2193.95968,-0.0037201
2192.99530,-0.0037112
2192.03092,-0.0037024
2191.06654,-0.0036935
2190.10217,-0.0036846
2189.13779,-0.0036757
2188.17341,-0.0036668
2187.20903,-0.0036579
2186.24465,-0.0036490
2185.28028,-0.0036401
2184.31590,-0.0036312
2183.35152,-0.0036223
2182.38714,-0.0036134
2181.42276,-0.0036045
2180.45839,-0.0035956
2179.49401,-0.0035868
2178.52963,-0.0035779
2177.56525,-0.0035690
2176.60088,-0.0035601
2175.63650,-0.0035512
2174.67212,-0.0035423
2173.70774,-0.0035334
2172.74336,-0.0035245
2171.77899,-0.0035156
2170.81461,-0.0035067
2169.85023,-0.0034978
2168.88585,-0.0034889
2167.92147,-0.0034800
2166.95710,-0.0034712
2165.99272,-0.0034623
2165.02834,-0.0034534
2164.06396,-0.0034445
2163.09959,-0.0034356
2162.13521,-0.0034267
2161.17083,-0.0034178
2160.20645,-0.0034089
2159.24207,-0.0034000
2158.27770,-0.0033911
2157.31332,-0.0033822
2156.34894,-0.0033733
2155.38456,-0.0033644
2154.42018,-0.0033556
2153.45581,-0.0033467
2152.49143,-0.0033378
2151.52705,-0.0033289
2150.56267,-0.0033200
2149.59829,-0.0033111
2148.63392,-0.0033022
2147.66954,-0.0032933
2146.70516,-0.0032844
2145.74078,-0.0032755
2144.77641,-0.0032666
2143.81203,-0.0032577
2142.84765,-0.0032488
2141.88327,-0.0032400
2140.91889,-0.0032311
2139.95452,-0.0032222
2138.99014,-0.0032133
2138.02576,-0.0032044
2137.06138,-0.0031955
2136.09700,-0.0031866
2135.13263,-0.0031777
2134.16825,-0.0031688
2133.20387,-0.0031599
2132.23949,-0.0031510
2131.27512,-0.0031421
2130.31074,-0.0031333
2129.34636,-0.0031244
2128.38198,-0.0031155
2127.41760,-0.0031066
2126.45323,-0.0030977
2125.48885,-0.0030888
2124.52447,-0.0030799
2123.56009,-0.0030710
2122.59571,-0.0030621
2121.63134,-0.0030532
2120.66696,-0.0030443
2119.70258,-0.0030354
2118.73820,-0.0030265
2117.77382,-0.0030177
2116.80945,-0.0030088
2115.84507,-0.0029999
2114.88069,-0.0029910
2113.91631,-0.0029821
2112.95194,-0.0029732
2111.98756,-0.0029643
2111.02318,-0.0029554
2110.05880,-0.0029465
2109.09442,-0.0029376
2108.13005,-0.0029287
2107.16567,-0.0029198
2106.20129,-0.0029109
2105.23691,-0.0029021
2104.27253,-0.0028932
2103.30816,-0.0028843
2102.34378,-0.0028754
2101.37940,-0.0028665
2100.41502,-0.0028576
2099.45065,-0.0028487
2098.48627,-0.0028398
2097.52189,-0.0028309
2096.55751,-0.0028220
2095.59313,-0.0028131
2094.62876,-0.0028042
2093.66438,-0.0027953
2092.70000,-0.0027865
2091.73562,-0.0027776
2090.77124,-0.0027687
2089.80687,-0.0027598
2088.84249,-0.0027509
2087.87811,-0.0027420
2086.91373,-0.0027331
2085.94935,-0.0027242
2084.98498,-0.0027153
2084.02060,-0.0027064
2083.05622,-0.0026975
2082.09184,-0.0026886
2081.12747,-0.0026797
2080.16309,-0.0026709
2079.19871,-0.0026620
2078.23433,-0.0026531
2077.26995,-0.0026442
2076.30558,-0.0026353
2075.34120,-0.0026264
2074.37682,-0.0026175
2073.41244,-0.0026086
2072.44806,-0.0025997
2071.48369,-0.0025908
2070.51931,-0.0025819
2069.55493,-0.0025730
2068.59055,-0.0025641
2067.62618,-0.0025553
2066.66180,-0.0025464
2065.69742,-0.0025375
2064.73304,-0.0025286
2063.76866,-0.0025197
2062.80429,-0.0025108
2061.83991,-0.0025019
2060.87553,-0.0024930
2059.91115,-0.0024841
2058.94677,-0.0024752
2057.98240,-0.0024663
2057.01802,-0.0024574
2056.05364,-0.0024485
2055.08926,-0.0024397
2054.12488,-0.0024308
2053.16051,-0.0024219
2052.19613,-0.0024130
2051.23175,-0.0024041
2050.26737,-0.0023952
2049.30300,-0.0023863
2048.33862,-0.0023774
2047.37424,-0.0023685
2046.40986,-0.0023596
2045.44548,-0.0023507
2044.48111,-0.0023418
2043.51673,-0.0023329
2042.55235,-0.0023241
2041.58797,-0.0023152
2040.62359,-0.0023063
2039.65922,-0.0022974
2038.69484,-0.0022885
2037.73046,-0.0022796
2036.76608,-0.0022707
2035.80171,-0.0022618
2034.83733,-0.0022529
2033.87295,-0.0022440
2032.90857,-0.0022351
2031.94419,-0.0022262
2030.97982,-0.0022173
2030.01544,-0.0022085
2029.05106,-0.0021996
2028.08668,-0.0021907
2027.12230,-0.0021818
2026.15793,-0.0021729
2025.19355,-0.0021640
2024.22917,-0.0021551
2023.26479,-0.0021462
2022.30041,-0.0021373
2021.33604,-0.0021284
2020.37166,-0.0021195
2019.40728,-0.0021106
2018.44290,-0.0021017
2017.47853,-0.0020929
2016.51415,-0.0020840
2015.54977,-0.0020751
2014.58539,-0.0020662
2013.62101,-0.0020573
2012.65664,-0.0020484
2011.69226,-0.0020395
2010.72788,-0.0020306
2009.76350,-0.0020217
2008.79912,-0.0020128
2007.83475,-0.0020039
2006.87037,-0.0019950
2005.90599,-0.0019861
2004.94161,-0.0019773
2003.97724,-0.0019684
2003.01286,-0.0019595
2002.04848,-0.0019506
2001.08410,-0.0019417
2000.11972,-0.0019328
1999.15535,-0.0019239
1998.19097,-0.0019150
1997.22659,-0.0019061
1996.26221,-0.0018972
1995.29783,-0.0018883
1994.33346,-0.0018794
1993.36908,-0.0018705
1992.40470,-0.0018617
1991.44032,-0.0018528
1990.47594,-0.0018439
1989.51157,-0.0018350
1988.54719,-0.0018261
1987.58281,-0.0018172
1986.61843,-0.0018083
1985.65406,-0.0017994
1984.68968,-0.0017905
1983.72530,-0.0017816
1982.76092,-0.0017727
1981.79654,-0.0017638
1980.83217,-0.0017549
1979.86779,-0.0017461
1978.90341,-0.0017372
1977.93903,-0.0017283
1976.97465,-0.0017194
1976.01028,-0.0017105
1975.04590,-0.0017016
1974.08152,-0.0016927
1973.11714,-0.0016838
1972.15276,-0.0016749
1971.18839,-0.0016660
1970.22401,-0.0016571
1969.25963,-0.0016482
1968.29525,-0.0016393
1967.33088,-0.0016305
1966.36650,-0.0016216
1965.40212,-0.0016127
1964.43774,-0.0016038
1963.47336,-0.0015949
1962.50899,-0.0015860
1961.54461,-0.0015771
1960.58023,-0.0015682
1959.61585,-0.0015593
1958.65147,-0.0015504
1957.68710,-0.0015415
1956.72272,-0.0015326
1955.75834,-0.0015238
1954.79396,-0.0015149
1953.82959,-0.0015060
1952.86521,-0.0014971
1951.90083,-0.0014882
1950.93645,-0.0014793
1949.97207,-0.0014704
1949.00770,-0.0014615
1948.04332,-0.0014526
1947.07894,-0.0014437
1946.11456,-0.0014348
1945.15018,-0.0014259
1944.18581,-0.0014170
1943.22143,-0.0014082
1942.25705,-0.0013993
1941.29267,-0.0013904
1940.32829,-0.0013815
1939.36392,-0.0013726
1938.39954,-0.0013637
1937.43516,-0.0013686
1936.47078,-0.0013653
1935.50641,-0.0013015
1934.54203,-0.0013071
1933.57765,-0.0013567
1932.61327,-0.0013081
1931.64889,-0.0012076
1930.68452,-0.0011427
1929.72014,-0.0011244
1928.75576,-0.0010601
1927.79138,-0.0008616
1926.82700,-0.0006426
1925.86263,-0.0005243
1924.89825,-0.0004919
1923.93387,-0.0005488
1922.96949,-0.0006875
1922.00512,-0.0006934
1921.04074,-0.0006062
1920.07636,-0.0006422
1919.11198,-0.0007675
1918.14760,-0.0008701
1917.18323,-0.0008775
1916.21885,-0.0008121
1915.25447,-0.0008142
1914.29009,-0.0008880
1913.32571,-0.0009591
1912.36134,-0.0009936
1911.39696,-0.0009192
1910.43258,-0.0008117
1909.46820,-0.0008293
1908.50382,-0.0008993
1907.53945,-0.0008823
1906.57507,-0.0007704
1905.61069,-0.0006692
1904.64631,-0.0006545
1903.68194,-0.0006502
1902.71756,-0.0005782
1901.75318,-0.0004340
1900.78880,-0.0003181
1899.82442,-0.0003243
1898.86005,-0.0003848
1897.89567,-0.0004215
1896.93129,-0.0004058
1895.96691,-0.0003291
1895.00253,-0.0001956
1894.03816,-0.0000763
1893.07378,-0.0000599
1892.10940,-0.0001415
1891.14502,-0.0002460
1890.18065,-0.0002859
1889.21627,-0.0003450
1888.25189,-0.0004489
1887.28751,-0.0004790
1886.32313,-0.0004929
1885.35876,-0.0005140
1884.39438,-0.0005000
1883.43000,-0.0004887
1882.46562,-0.0005140
1881.50124,-0.0006022
1880.53687,-0.0007388
1879.57249,-0.0008474
1878.60811,-0.0008796
1877.64373,-0.0008964
1876.67935,-0.0009095
1875.71498,-0.0008845
1874.75060,-0.0007891
1873.78622,-0.0005676
1872.82184,-0.0003397
1871.85747,-0.0002227
1870.89309,-0.0001617
1869.92871,-0.0000954
1868.96433,-0.0000417
1867.99995,-0.0000764
1867.03558,-0.0002004
1866.07120,-0.0003679
1865.10682,-0.0005446
1864.14244,-0.0006689
1863.17806,-0.0006937
1862.21369,-0.0006650
1861.24931,-0.0006723
1860.28493,-0.0007063
1859.32055,-0.0007285
1858.35618,-0.0007465
1857.39180,-0.0007491
1856.42742,-0.0007376
1855.46304,-0.0007418
1854.49866,-0.0007465
1853.53429,-0.0007234
1852.56991,-0.0006704
1851.60553,-0.0006402
1850.64115,-0.0006529
1849.67677,-0.0005533
1848.71240,-0.0003347
1847.74802,-0.0001509
1846.78364,-0.0000076
1845.81926,0.0001173
1844.85488,0.0002132
1843.89051,0.0002313
1842.92613,0.0001740
1841.96175,0.0000954
1840.99737,-0.0000274
1840.03300,-0.0002076
1839.06862,-0.0003667
1838.10424,-0.0003752
1837.13986,-0.0003530
1836.17548,-0.0004121
1835.21111,-0.0003963
1834.24673,-0.0002979
1833.28235,-0.0001679
1832.31797,-0.0000671
1831.35359,-0.0000363
1830.38922,0.0000205
1829.42484,0.0000891
1828.46046,0.0001298
1827.49608,0.0001352
1826.53171,0.0000955
1825.56733,0.0000073
1824.60295,-0.0001063
1823.63857,-0.0001533
1822.67419,-0.0001488
1821.70982,-0.0001410
1820.74544,-0.0001762
1819.78106,-0.0002545
1818.81668,-0.0002769
1817.85230,-0.0002687
1816.88793,-0.0002626
1815.92355,-0.0002364
1814.95917,-0.0001896
1813.99479,-0.0001419
1813.03041,-0.0001459
1812.06604,-0.0001612
1811.10166,-0.0001482
1810.13728,-0.0001341
1809.17290,-0.0001440
1808.20853,-0.0001817
1807.24415,-0.0002153
1806.27977,-0.0002345
1805.31539,-0.0002060
1804.35101,-0.0001188
1803.38664,-0.0000351
1802.42226,0.0000009
1801.45788,0.0000035
1800.49350,-0.0000042
1799.52912,-0.0000809
1798.56475,-0.0001849
1797.60037,-0.0001687
1796.63599,-0.0000543
1795.67161,0.0000930
1794.70724,0.0002509
1793.74286,0.0003799
1792.77848,0.0004648
1791.81410,0.0004745
1790.84972,0.0004088
1789.88535,0.0003350
1788.92097,0.0002407
1787.95659,0.0000769
1786.99221,-0.0000542
1786.02783,-0.0000228
1785.06346,0.0000829
1784.09908,0.0001553
1783.13470,0.0002057
1782.17032,0.0001948
1781.20594,0.0001474
1780.24157,0.0000905
1779.27719,-0.0000274
1778.31281,-0.0000700
1777.34843,0.0000751
1776.38406,0.0003105
1775.41968,0.0005200
1774.45530,0.0006668
1773.49092,0.0008089
1772.52654,0.0009408
1771.56217,0.0009997
1770.59779,0.0009564
1769.63341,0.0008393
1768.66903,0.0006247
1767.70465,0.0003389
1766.74028,0.0002581
1765.77590,0.0003920
1764.81152,0.0004926
1763.84714,0.0004809
1762.88276,0.0004047
1761.91839,0.0004403
1760.95401,0.0005468
1759.98963,0.0005759
1759.02525,0.0005609
1758.06088,0.0004597
1757.09650,0.0003538
1756.13212,0.0004518
1755.16774,0.0006935
1754.20336,0.0008978
1753.23899,0.0010373
1752.27461,0.0011410
1751.31023,0.0012260
1750.34585,0.0013199
1749.38147,0.0013446
1748.41710,0.0012882
1747.45272,0.0011808
1746.48834,0.0009635
1745.52396,0.0008403
1744.55959,0.0009581
1743.59521,0.0010912
1742.63083,0.0011797
1741.66645,0.0012038
1740.70207,0.0010906
1739.73770,0.0010628
1738.77332,0.0013031
1737.80894,0.0016774
1736.84456,0.0019928
1735.88018,0.0021618
1734.91581,0.0022186
1733.95143,0.0022469
1732.98705,0.0022570
1732.02267,0.0021257
1731.05829,0.0018136
1730.09392,0.0013512
1729.12954,0.0008590
1728.16516,0.0006285
1727.20078,0.0006803
1726.23641,0.0007526
1725.27203,0.0007014
1724.30765,0.0005759
1723.34327,0.0005916
1722.37889,0.0008706
1721.41452,0.0012569
1720.45014,0.0016137
1719.48576,0.0019584
1718.52138,0.0022257
1717.55700,0.0023589
1716.59263,0.0023788
1715.62825,0.0022626
1714.66387,0.0020097
1713.69949,0.0016077
1712.73512,0.0011519
1711.77074,0.0008893
1710.80636,0.0008988
1709.84198,0.0009799
1708.87760,0.0010895
1707.91323,0.0012106
1706.94885,0.0011176
1705.98447,0.0010813
1705.02009,0.0014438
1704.05571,0.0019381
1703.09134,0.0022372
1702.12696,0.0022526
1701.16258,0.0023769
1700.19820,0.0027576
1699.23382,0.0030734
1698.26945,0.0031830
1697.30507,0.0030579
1696.34069,0.0026614
1695.37631,0.0020929
1694.41194,0.0017342
1693.44756,0.0016678
1692.48318,0.0014741
1691.51880,0.0009297
1690.55442,0.0004177
1689.59005,0.0006253
1688.62567,0.0013066
1687.66129,0.0018829
1686.69691,0.0022713
1685.73253,0.0025161
1684.76816,0.0026501
1683.80378,0.0026415
1682.83940,0.0024603
1681.87502,0.0020779
1680.91065,0.0015994
1679.94627,0.0012077
1678.98189,0.0010436
1678.01751,0.0011869
1677.05313,0.0013984
1676.08876,0.0014973
1675.12438,0.0015231
1674.16000,0.0016562
1673.19562,0.0018520
1672.23124,0.0019195
1671.26687,0.0018593
1670.30249,0.0016823
1669.33811,0.0015525
1668.37373,0.0015703
1667.40935,0.0015936
1666.44498,0.0015458
1665.48060,0.0014642
1664.51622,0.0013851
1663.55184,0.0013526
1662.58747,0.0014488
1661.62309,0.0014962
1660.65871,0.0013815
1659.69433,0.0011559
1658.72995,0.0010366
1657.76558,0.0014436
1656.80120,0.0022168
1655.83682,0.0029566
1654.87244,0.0034270
1653.90806,0.0036515
1652.94369,0.0037083
1651.97931,0.0035857
1651.01493,0.0034201
1650.05055,0.0031284
1649.08618,0.0026204
1648.12180,0.0020683
1647.15742,0.0017921
1646.19304,0.0019255
1645.22866,0.0020280
1644.26429,0.0018691
1643.29991,0.0015705
1642.33553,0.0012128
1641.37115,0.0009235
1640.40677,0.0010192
1639.44240,0.0014633
1638.47802,0.0018698
1637.51364,0.0021157
1636.54926,0.0022346
1635.58488,0.0022376
1634.62051,0.0021082
1633.65613,0.0018957
1632.69175,0.0016499
1631.72737,0.0013530
1630.76300,0.0009990
1629.79862,0.0007398
1628.83424,0.0008548
1627.86986,0.0011037
1626.90548,0.0012479
1625.94111,0.0013424
1624.97673,0.0013632
1624.01235,0.0012878
1623.04797,0.0010584
1622.08359,0.0009957
1621.11922,0.0012362
1620.15484,0.0014523
1619.19046,0.0015491
1618.22608,0.0015667
1617.26171,0.0016205
1616.29733,0.0016402
1615.33295,0.0015427
1614.36857,0.0013778
1613.40419,0.0011245
1612.43982,0.0007868
1611.47544,0.0004641
1610.51106,0.0004206
1609.54668,0.0005502
1608.58230,0.0005929
1607.61793,0.0006016
1606.65355,0.0005968
1605.68917,0.0005843
1604.72479,0.0005625
1603.76041,0.0005463
1602.79604,0.0005405
1601.83166,0.0005244
1600.86728,0.0005145
1599.90290,0.0005180
1598.93853,0.0005279
1597.97415,0.0005278
1597.00977,0.0005369
1596.04539,0.0005524
1595.08101,0.0005685
1594.11664,0.0005816
1593.15226,0.0005845
1592.18788,0.0005782
1591.22350,0.0005647
1590.25912,0.0005551
1589.29475,0.0005376
1588.33037,0.0005348
1587.36599,0.0005262
1586.40161,0.0005096
1585.43724,0.0004903
1584.47286,0.0004699
1583.50848,0.0004260
1582.54410,0.0002875
1581.57972,0.0003301
1580.61535,0.0006846
1579.65097,0.0010816
1578.68659,0.0013917
1577.72221,0.0016097
1576.75783,0.0017114
1575.79346,0.0016705
1574.82908,0.0016467
1573.86470,0.0016499
1572.90032,0.0015501
1571.93594,0.0013065
1570.97157,0.0010054
1570.00719,0.0009955
1569.04281,0.0011831
1568.07843,0.0012351
1567.11406,0.0011029
1566.14968,0.0008566
1565.18530,0.0007466
1564.22092,0.0009404
1563.25654,0.0015821
1562.29217,0.0024501
1561.32779,0.0030612
1560.36341,0.0033764
1559.39903,0.0036069
1558.43465,0.0037809
1557.47028,0.0037048
1556.50590,0.0032988
1555.54152,0.0026442
1554.57714,0.0019768
1553.61276,0.0015646
1552.64839,0.0013720
1551.68401,0.0013333
1550.71963,0.0013356
1549.75525,0.0012606
1548.79088,0.0011772
1547.82650,0.0012573
1546.86212,0.0014792
1545.89774,0.0016222
1544.93336,0.0018556
1543.96899,0.0024049
1543.00461,0.0030225
1542.04023,0.0034322
1541.07585,0.0035405
1540.11147,0.0033766
1539.14710,0.0031458
1538.18272,0.0029553
1537.21834,0.0026284
1536.25396,0.0022424
1535.28959,0.0018966
1534.32521,0.0015328
1533.36083,0.0014173
1532.39645,0.0015423
1531.43207,0.0016022
1530.46770,0.0016023
1529.50332,0.0015662
1528.53894,0.0014605
1527.57456,0.0014137
1526.61018,0.0015974
1525.64581,0.0019601
1524.68143,0.0023230
1523.71705,0.0025092
1522.75267,0.0025705
1521.78829,0.0026512
1520.82392,0.0026650
1519.85954,0.0026039
1518.89516,0.0024614
1517.93078,0.0022029
1516.96641,0.0018770
1516.00203,0.0015634
1515.03765,0.0014368
1514.07327,0.0014161
1513.10889,0.0013141
1512.14452,0.0012739
1511.18014,0.0015734
1510.21576,0.0021440
1509.25138,0.0026441
1508.28700,0.0029316
1507.32263,0.0030040
1506.35825,0.0029477
1505.39387,0.0027383
1504.42949,0.0023592
1503.46512,0.0019190
1502.50074,0.0013716
1501.53636,0.0009856
1500.57198,0.0010313
1499.60760,0.0013304
1498.64323,0.0016368
1497.67885,0.0017506
1496.71447,0.0016916
1495.75009,0.0016137
1494.78571,0.0015629
1493.82134,0.0014650
1492.85696,0.0013711
1491.89258,0.0013352
1490.92820,0.0012715
1489.96382,0.0013236
1488.99945,0.0014395
1488.03507,0.0013994
1487.07069,0.0012573
1486.10631,0.0010640
1485.14194,0.0008797
1484.17756,0.0007787
1483.21318,0.0007141
1482.24880,0.0006409
1481.28442,0.0006662
1480.32005,0.0007676
1479.35567,0.0008212
1478.39129,0.0009311
1477.42691,0.0011644
1476.46253,0.0014682
1475.49816,0.0017497
1474.53378,0.0019433
1473.56940,0.0020395
1472.60502,0.0020044
1471.64065,0.0018229
1470.67627,0.0015976
1469.71189,0.0015062
1468.74751,0.0014238
1467.78313,0.0012869
1466.81876,0.0012656
1465.85438,0.0013202
1464.89000,0.0013856
1463.92562,0.0013545
1462.96124,0.0012713
1461.99687,0.0014272
1461.03249,0.0017851
1460.06811,0.0021223
1459.10373,0.0024124
1458.13935,0.0026944
1457.17498,0.0028365
1456.21060,0.0028024
1455.24622,0.0026159
1454.28184,0.0022425
1453.31747,0.0018198
1452.35309,0.0014301
1451.38871,0.0011741
1450.42433,0.0012074
1449.45995,0.0013500
1448.49558,0.0013959
1447.53120,0.0013896
1446.56682,0.0013703
1445.60244,0.0013255
1444.63806,0.0012668
1443.67369,0.0011024
1442.70931,0.0009324
1441.74493,0.0010523
1440.78055,0.0013639
1439.81618,0.0016207
1438.85180,0.0018027
1437.88742,0.0019317
1436.92304,0.0019858
1435.95866,0.0019829
1434.99429,0.0019428
1434.02991,0.0018571
1433.06553,0.0016906
1432.10115,0.0014397
1431.13677,0.0012687
1430.17240,0.0013006
1429.20802,0.0013762
1428.24364,0.0013889
1427.27926,0.0013970
1426.31488,0.0013322
1425.35051,0.0012242
1424.38613,0.0013121
1423.42175,0.0015640
1422.45737,0.0018155
1421.49300,0.0020005
1420.52862,0.0021011
1419.56424,0.0021137
1418.59986,0.0020397
1417.63548,0.0019292
1416.67111,0.0017806
1415.70673,0.0015698
1414.74235,0.0012876
1413.77797,0.0010770
1412.81359,0.0010901
1411.84922,0.0011434
1410.88484,0.0011587
1409.92046,0.0012043
1408.95608,0.0012493
1407.99171,0.0012808
1407.02733,0.0012939
1406.06295,0.0012855
1405.09857,0.0012720
1404.13419,0.0013018
1403.16982,0.0013572
1402.20544,0.0013998
1401.24106,0.0014130
1400.27668,0.0014166
1399.31230,0.0015147
1398.34793,0.0016607
1397.38355,0.0017527
1396.41917,0.0017729
1395.45479,0.0017207
1394.49041,0.0015979
1393.52604,0.0014619
1392.56166,0.0014398
1391.59728,0.0014783
1390.63290,0.0014870
1389.66853,0.0014774
1388.70415,0.0015026
1387.73977,0.0016048
1386.77539,0.0016695
1385.81101,0.0016601
1384.84664,0.0016077
1383.88226,0.0015141
1382.91788,0.0014180
1381.95350,0.0013544
1380.98912,0.0013658
1380.02475,0.0013986
1379.06037,0.0014346
1378.09599,0.0014975
1377.13161,0.0015586
1376.16724,0.0016136
1375.20286,0.0016284
1374.23848,0.0016206
1373.27410,0.0016100
1372.30972,0.0015788
1371.34535,0.0015461
1370.38097,0.0014873
1369.41659,0.0014024
1368.45221,0.0013668
1367.48783,0.0014168
1366.52346,0.0015065
1365.55908,0.0015927
1364.59470,0.0016503
1363.63032,0.0016761
1362.66594,0.0017000
1361.70157,0.0017070
1360.73719,0.0016831
1359.77281,0.0016488
1358.80843,0.0016052
1357.84406,0.0015564
1356.87968,0.0015348
1355.91530,0.0015478
1354.95092,0.0015749
1353.98654,0.0016059
1353.02217,0.0016204
1352.05779,0.0016273
1351.09341,0.0016402
1350.12903,0.0016489
1349.16465,0.0016612
1348.20028,0.0016737
1347.23590,0.0016752
1346.27152,0.0016618
1345.30714,0.0016557
1344.34276,0.0016848
1343.37839,0.0017341
1342.41401,0.0017832
1341.44963,0.0018302
1340.48525,0.0018783
1339.52088,0.0019183
1338.55650,0.0019346
1337.59212,0.0019243
1336.62774,0.0018958
1335.66336,0.0018559
1334.69899,0.0018187
1333.73461,0.0018075
1332.77023,0.0018230
1331.80585,0.0018496
1330.84147,0.0018650
1329.87710,0.0018637
1328.91272,0.0018644
1327.94834,0.0018651
1326.98396,0.0018595
1326.01959,0.0018598
1325.05521,0.0018787
1324.09083,0.0019105
1323.12645,0.0019458
1322.16207,0.0019894
1321.19770,0.0020313
1320.23332,0.0020638
1319.26894,0.0020824
1318.30456,0.0020888
1317.34018,0.0021039
1316.37581,0.0021122
1315.41143,0.0021035
1314.44705,0.0021005
1313.48267,0.0021039
1312.51829,0.0021098
1311.55392,0.0021142
1310.58954,0.0021173
1309.62516,0.0021221
1308.66078,0.0021312
1307.69641,0.0021538
1306.73203,0.0021779
1305.76765,0.0021916
1304.80327,0.0021951
1303.83889,0.0021964
1302.87452,0.0022068
1301.91014,0.0022282
1300.94576,0.0022625
1299.98138,0.0022937
1299.01700,0.0023113
1298.05263,0.0023185
1297.08825,0.0023208
1296.12387,0.0023330
1295.15949,0.0023424
1294.19512,0.0023404
1293.23074,0.0023456
1292.26636,0.0023654
1291.30198,0.0023916
1290.33760,0.0024219
1289.37323,0.0024536
1288.40885,0.0024765
1287.44447,0.0024901
1286.48009,0.0024858
1285.51571,0.0024753
1284.55134,0.0024816
1283.58696,0.0024890
1282.62258,0.0024920
1281.65820,0.0025046
1280.69382,0.0025189
1279.72945,0.0025243
1278.76507,0.0025335
1277.80069,0.0025476
1276.83631,0.0025646
1275.87194,0.0025852
1274.90756,0.0025993
1273.94318,0.0026212
1272.97880,0.0026592
1272.01442,0.0027038
1271.05005,0.0027474
1270.08567,0.0027803
1269.12129,0.0027981
1268.15691,0.0028109
1267.19253,0.0028282
1266.22816,0.0028350
1265.26378,0.0028386
1264.29940,0.0028552
1263.33502,0.0028808
1262.37065,0.0029097
1261.40627,0.0029310
1260.44189,0.0029558
1259.47751,0.0029812
1258.51313,0.0029961
1257.54876,0.0030074
1256.58438,0.0030207
1255.62000,0.0030405
1254.65562,0.0030550
1253.69124,0.0030761
1252.72687,0.0031124
1251.76249,0.0031475
1250.79811,0.0031763
1249.83373,0.0031956
1248.86935,0.0032155
1247.90498,0.0032363
1246.94060,0.0032536
1245.97622,0.0032659
1245.01184,0.0032760
1244.04747,0.0032962
1243.08309,0.0033178
1242.11871,0.0033437
1241.15433,0.0033728
1240.18995,0.0033962
1239.22558,0.0034180
1238.26120,0.0034366
1237.29682,0.0034608
1236.33244,0.0034915
1235.36806,0.0035192
1234.40369,0.0035343
1233.43931,0.0035479
1232.47493,0.0035795
1231.51055,0.0036155
1230.54618,0.0036513
1229.58180,0.0036847
1228.61742,0.0037029
1227.65304,0.0037124
1226.68866,0.0037249
1225.72429,0.0037325
1224.75991,0.0037240
1223.79553,0.0037130
1222.83115,0.0037089
1221.86677,0.0037177
1220.90240,0.0037347
1219.93802,0.0037453
1218.97364,0.0037574
1218.00926,0.0037736
1217.04488,0.0037919
1216.08051,0.0038051
1215.11613,0.0038038
1214.15175,0.0037890
1213.18737,0.0037685
1212.22300,0.0037610
1211.25862,0.0037680
1210.29424,0.0037839
1209.32986,0.0037967
1208.36548,0.0038008
1207.40111,0.0038114
1206.43673,0.0038305
1205.47235,0.0038544
1204.50797,0.0038592
1203.54359,0.0038468
1202.57922,0.0038448
1201.61484,0.0038428
1200.65046,0.0038436
1199.68608,0.0038543
1198.72171,0.0038668
1197.75733,0.0038751
1196.79295,0.0038773
1195.82857,0.0038795
1194.86419,0.0038818
1193.89982,0.0038944
1192.93544,0.0039151
1191.97106,0.0039333
1191.00668,0.0039548
1190.04230,0.0039792
1189.07793,0.0040068
1188.11355,0.0040320
1187.14917,0.0040428
1186.18479,0.0040412
1185.22041,0.0040367
1184.25604,0.0040256
1183.29166,0.0040059
1182.32728,0.0040023
1181.36290,0.0040206
1180.39853,0.0040358
1179.43415,0.0040448
1178.46977,0.0040592
1177.50539,0.0040818
1176.54101,0.0041023
1175.57664,0.0041022
1174.61226,0.0040975
1173.64788,0.0041103
1172.68350,0.0041214
1171.71912,0.0041130
1170.75475,0.0040962
1169.79037,0.0040898
1168.82599,0.0040834
1167.86161,0.0040719
1166.89724,0.0040738
1165.93286,0.0040777
1164.96848,0.0040689
1164.00410,0.0040457
1163.03972,0.0040158
1162.07535,0.0039866
1161.11097,0.0039431
1160.14659,0.0038887
1159.18221,0.0038451
1158.21783,0.0038124
1157.25346,0.0037773
1156.28908,0.0037519
1155.32470,0.0037449
1154.36032,0.0037343
1153.39594,0.0037149
1152.43157,0.0036919
1151.46719,0.0036631
1150.50281,0.0036248
1149.53843,0.0035794
1148.57406,0.0035534
1147.60968,0.0035400
1146.64530,0.0035045
1145.68092,0.0034679
1144.71654,0.0034483
1143.75217,0.0034212
1142.78779,0.0033778
1141.82341,0.0033220
1140.85903,0.0032722
1139.89465,0.0032395
1138.93028,0.0032124
1137.96590,0.0031982
1137.00152,0.0032067
1136.03714,0.0032231
1135.07276,0.0032399
1134.10839,0.0032685
1133.14401,0.0032912
1132.17963,0.0032886
1131.21525,0.0032726
1130.25088,0.0032474
1129.28650,0.0032273
1128.32212,0.0032156
1127.35774,0.0031978
1126.39336,0.0031757
1125.42899,0.0031505
1124.46461,0.0031295
1123.50023,0.0031178
1122.53585,0.0031099
1121.57147,0.0030972
1120.60710,0.0030808
1119.64272,0.0030648
1118.67834,0.0030467
1117.71396,0.0030357
1116.74959,0.0030320
1115.78521,0.0030293
1114.82083,0.0030345
1113.85645,0.0030442
1112.89207,0.0030549
1111.92770,0.0030770
1110.96332,0.0031109
1109.99894,0.0031336
1109.03456,0.0031332
1108.07018,0.0031161
1107.10581,0.0030876
1106.14143,0.0030535
1105.17705,0.0030208
1104.21267,0.0029994
1103.24829,0.0029855
1102.28392,0.0029604
1101.31954,0.0029245
1100.35516,0.0029053
1099.39078,0.0029134
1098.42641,0.0029219
1097.46203,0.0029207
1096.49765,0.0029241
1095.53327,0.0029386
1094.56889,0.0029598
1093.60452,0.0029792
1092.64014,0.0030001
1091.67576,0.0030113
1090.71138,0.0030029
1089.74700,0.0029893
1088.78263,0.0029685
1087.81825,0.0029466
1086.85387,0.0029237
1085.88949,0.0028999
1084.92512,0.0028991
1083.96074,0.0029169
1082.99636,0.0029497
1082.03198,0.0029842
1081.06760,0.0030184
1080.10323,0.0030749
1079.13885,0.0031317
1078.17447,0.0031724
1077.21009,0.0031877
1076.24571,0.0031965
1075.28134,0.0032337
1074.31696,0.0032819
1073.35258,0.0033356
1072.38820,0.0033957
1071.42382,0.0034584
1070.45945,0.0035064
1069.49507,0.0035398
1068.53069,0.0035849
1067.56631,0.0036133
1066.60194,0.0036249
1065.63756,0.0036310
1064.67318,0.0036343
1063.70880,0.0036578
1062.74442,0.0036799
1061.78005,0.0037131
1060.81567,0.0037688
1059.85129,0.0038162
1058.88691,0.0038575
1057.92253,0.0039042
1056.95816,0.0039691
1055.99378,0.0040355
1055.02940,0.0040785
1054.06502,0.0040973
1053.10065,0.0040960
1052.13627,0.0040866
1051.17189,0.0040674
1050.20751,0.0040432
1049.24313,0.0040103
1048.27876,0.0039589
1047.31438,0.0039120
1046.35000,0.0038807
1045.38562,0.0038614
1044.42124,0.0038433
1043.45687,0.0038177
1042.49249,0.0037989
1041.52811,0.0037895
1040.56373,0.0037779
1039.59935,0.0037553
1038.63498,0.0037207
1037.67060,0.0036817
1036.70622,0.0036483
1035.74184,0.0036368
1034.77747,0.0036385
1033.81309,0.0036275
1032.84871,0.0036164
1031.88433,0.0036152
1030.91995,0.0036038
1029.95558,0.0035818
1028.99120,0.0035491
1028.02682,0.0035006
1027.06244,0.0034532
1026.09806,0.0034118
1025.13369,0.0033778
1024.16931,0.0033637
1023.20493,0.0033503
1022.24055,0.0033235
1021.27618,0.0033070
1020.31180,0.0032951
1019.34742,0.0032676
1018.38304,0.0032464
1017.41866,0.0032421
1016.45429,0.0032368
1015.48991,0.0032167
1014.52553,0.0031691
1013.56115,0.0031056
1012.59677,0.0030458
1011.63240,0.0029864
1010.66802,0.0029309
1009.70364,0.0028884
1008.73926,0.0028594
1007.77488,0.0028394
1006.81051,0.0028317
1005.84613,0.0028521
1004.88175,0.0028772
1003.91737,0.0028705
1002.95300,0.0028375
1001.98862,0.0027904
1001.02424,0.0027392
1000.05986,0.0026963
999.09548,0.0026714
998.13111,0.0026715
997.16673,0.0026782
996.20235,0.0026683
995.23797,0.0026486
994.27359,0.0026368
993.30922,0.0026352
992.34484,0.0026464
991.38046,0.0026575
990.41608,0.0026391
989.45171,0.0026029
988.48733,0.0025718
987.52295,0.0025509
986.55857,0.0025493
985.59419,0.0025539
984.62982,0.0025484
983.66544,0.0025436
982.70106,0.0025338
981.73668,0.0025097
980.77230,0.0025068
979.80793,0.0025172
978.84355,0.0024929
977.87917,0.0024605
976.91479,0.0024488
975.95041,0.0024445
974.98604,0.0024521
974.02166,0.0024591
973.05728,0.0024482
972.09290,0.0024445
971.12853,0.0024424
970.16415,0.0024144
969.19977,0.0023952
968.23539,0.0023884
967.27101,0.0023662
966.30664,0.0023576
965.34226,0.0023660
964.37788,0.0023656
963.41350,0.0023584
962.44912,0.0023498
961.48475,0.0023412
960.52037,0.0023555
959.55599,0.0024051
958.59161,0.0024360
957.62724,0.0024324
956.66286,0.0024458
955.69848,0.0024759
954.73410,0.0024988
953.76972,0.0025134
952.80535,0.0025115
951.84097,0.0024792
950.87659,0.0024225
949.91221,0.0023709
948.94783,0.0023375
947.98346,0.0023043
947.01908,0.0022540
946.05470,0.0022176
945.09032,0.0022239
944.12594,0.0022422
943.16157,0.0022615
942.19719,0.0022915
941.23281,0.0023096
940.26843,0.0023093
939.30406,0.0023099
938.33968,0.0023125
937.37530,0.0022968
936.41092,0.0022580
935.44654,0.0022282
934.48217,0.0022263
933.51779,0.0022266
932.55341,0.0022225
931.58903,0.0022371
930.62465,0.0022588
929.66028,0.0022732
928.69590,0.0022943
927.73152,0.0023082
926.76714,0.0022990
925.80276,0.0022828
924.83839,0.0022728
923.87401,0.0022810
922.90963,0.0023029
921.94525,0.0023263
920.98088,0.0023666
920.01650,0.0024084
919.05212,0.0024262
918.08774,0.0024374
917.12336,0.0024418
916.15899,0.0024129
915.19461,0.0023477
914.23023,0.0022934
913.26585,0.0022859
912.30147,0.0022972
911.33710,0.0023108
910.37272,0.0023672
909.40834,0.0024711
908.44396,0.0025573
907.47959,0.0026272
906.51521,0.0027107
905.55083,0.0027620
904.58645,0.0027682
903.62207,0.0027631
902.65770,0.0027613
901.69332,0.0027605
900.72894,0.0027625
899.76456,0.0027747
898.80018,0.0028127
897.83581,0.0028749
896.87143,0.0029203
895.90705,0.0029532
894.94267,0.0029923
893.97829,0.0030199
893.01392,0.0030389
892.04954,0.0030299
891.08516,0.0029684
890.12078,0.0029193
889.15641,0.0029332
888.19203,0.0029335
887.22765,0.0029060
886.26327,0.0028986
885.29889,0.0028886
884.33452,0.0029154
883.37014,0.0029992
882.40576,0.0030730
881.44138,0.0031122
880.47700,0.0031347
879.51263,0.0031730
878.54825,0.0032290
877.58387,0.0032585
876.61949,0.0032276
875.65512,0.0031859
874.69074,0.0031708
873.72636,0.0031526
872.76198,0.0031545
871.79760,0.0031748
870.83323,0.0031829
869.86885,0.0032063
868.90447,0.0032630
867.94009,0.0033456
866.97571,0.0034084
866.01134,0.0034175
865.04696,0.0034200
864.08258,0.0034460
863.11820,0.0034553
862.15382,0.0034121
861.18945,0.0033384
860.22507,0.0033011
859.26069,0.0033214
858.29631,0.0033445
857.33194,0.0033418
856.36756,0.0033400
855.40318,0.0033368
854.43880,0.0033056
853.47442,0.0032680
852.51005,0.0032270
851.54567,0.0031698
850.58129,0.0031254
849.61691,0.0031048
848.65253,0.0031228
847.68816,0.0031590
846.72378,0.0031797
845.75940,0.0032071
844.79502,0.0032292
843.83065,0.0032233
842.86627,0.0031926
841.90189,0.0031346
840.93751,0.0030414
839.97313,0.0029533
839.00876,0.0029125
838.04438,0.0028787
837.08000,0.0028395
836.11562,0.0028212
835.15124,0.0028536
834.18687,0.0029087
833.22249,0.0029108
832.25811,0.0028895
831.29373,0.0028859
830.32935,0.0028699
829.36498,0.0028045
828.40060,0.0027496
827.43622,0.0027586
826.47184,0.0027675
825.50747,0.0027748
824.54309,0.0027907
823.57871,0.0027955
822.61433,0.0027725
821.64995,0.0027408
820.68558,0.0027560
819.72120,0.0027717
818.75682,0.0027643
817.79244,0.0027406
816.82806,0.0027227
815.86369,0.0027557
814.89931,0.0028078
813.93493,0.0028587
812.97055,0.0028787
812.00618,0.0028690
811.04180,0.0028568
810.07742,0.0028554
809.11304,0.0028742
808.14866,0.0028564
807.18429,0.0028265
806.21991,0.0028120
805.25553,0.0027729
804.29115,0.0027387
803.32677,0.0027287
802.36240,0.0027309
801.39802,0.0027321
800.43364,0.0027283
799.46926,0.0027269
798.50488,0.0027267
797.54051,0.0027328
796.57613,0.0027355
795.61175,0.0027333
794.64737,0.0027272
793.68300,0.0026916
792.71862,0.0026519
791.75424,0.0026363
790.78986,0.0026055
789.82548,0.0025547
788.86111,0.0025167
787.89673,0.0025104
786.93235,0.0025189
785.96797,0.0025224
785.00359,0.0025151
784.03922,0.0024934
783.07484,0.0025071
782.11046,0.0025515
781.14608,0.0026090
780.18171,0.0026719
779.21733,0.0026590
778.25295,0.0026138
777.28857,0.0025780
776.32419,0.0025147
775.35982,0.0024639
774.39544,0.0024260
773.43106,0.0023806
772.46668,0.0023660
771.50230,0.0024331
770.53793,0.0025591
769.57355,0.0026955
768.60917,0.0028179
767.64479,0.0028833
766.68041,0.0029125
765.71604,0.0029063
764.75166,0.0028643
763.78728,0.0028377
762.82290,0.0027871
761.85853,0.0027099
760.89415,0.0026472
759.92977,0.0025904
758.96539,0.0025722
758.00101,0.0025780
757.03664,0.0025704
756.07226,0.0025865
755.10788,0.0026271
754.14350,0.0026660
753.17912,0.0027036
752.21475,0.0027333
751.25037,0.0027206
750.28599,0.0026690
749.32161,0.0026112
748.35724,0.0025296
747.39286,0.0024791
746.42848,0.0025075
745.46410,0.0025762
744.49972,0.0026577
743.53535,0.0027112
742.57097,0.0027640
741.60659,0.0028208
740.64221,0.0028630
739.67783,0.0029139
738.71346,0.0029339
737.74908,0.0029048
736.78470,0.0028291
735.82032,0.0027630
734.85594,0.0027737
733.89157,0.0027903
732.92719,0.0027443
731.96281,0.0026862
730.99843,0.0026847
730.03406,0.0027225
729.06968,0.0027969
728.10530,0.0028893
727.14092,0.0029139
726.17654,0.0028924
725.21217,0.0029105
724.24779,0.0029852
723.28341,0.0030596
722.31903,0.0030712
721.35465,0.0030388
720.39028,0.0030009
719.42590,0.0029593
718.46152,0.0029150
717.49714,0.0028521
716.53276,0.0027691
715.56839,0.0027086
714.60401,0.0027026
713.63963,0.0027551
712.67525,0.0028381
711.71088,0.0029121
710.74650,0.0029611
709.78212,0.0029916
708.81774,0.0029889
707.85336,0.0029437
706.88899,0.0028763
705.92461,0.0027972
704.96023,0.0027341
703.99585,0.0026906
703.03147,0.0026615
702.06710,0.0026512
701.10272,0.0026470
700.13834,0.0026546
699.17396,0.0026801
698.20959,0.0027410
697.24521,0.0027925
696.28083,0.0028129
695.31645,0.0028450
694.35207,0.0028794
693.38770,0.0029183
692.42332,0.0029383
691.45894,0.0029457
690.49456,0.0029418
689.53018,0.0029137
688.56581,0.0029041
687.60143,0.0029215
686.63705,0.0029756
685.67267,0.0030225
684.70829,0.0030455
683.74392,0.0030652
682.77954,0.0030935
681.81516,0.0031248
680.85078,0.0031050
679.88641,0.0030849
678.92203,0.0030735
677.95765,0.0030737
676.99327,0.0030769
676.02889,0.0030371
675.06452,0.0028592
674.10014,0.0025041
673.13576,0.0027327
672.17138,0.0036961
671.20700,0.0046519
670.24263,0.0053251
669.27825,0.0057161
668.31387,0.0058990
667.34949,0.0058626
666.38512,0.0055658
665.42074,0.0049946
664.45636,0.0041521
663.49198,0.0031516
662.52760,0.0023372
661.56323,0.0023658
660.59885,0.0028106
659.63447,0.0029433
658.67009,0.0029451
657.70571,0.0029762
656.74134,0.0030485
655.77696,0.0031002
654.81258,0.0030915
653.84820,0.0030727
652.88382,0.0030545
651.91945,0.0030706
650.95507,0.0030869
649.99069,0.0030817
649.02631,0.0030513
648.06194,0.0029970
647.09756,0.0029606
646.13318,0.0029474
645.16880,0.0029144
644.20442,0.0028370
643.24005,0.0027631
642.27567,0.0027084
641.31129,0.0026732
640.34691,0.0026437
639.38253,0.0026040
638.41816,0.0025708
637.45378,0.0025672
636.48940,0.0026093
635.52502,0.0026525
634.56065,0.0026591
633.59627,0.0025825
632.63189,0.0024557
631.66751,0.0023563
630.70313,0.0022177
629.73876,0.0020159
628.77438,0.0016948
627.81000,0.0013645
626.84562,0.0012799
625.88124,0.0017432
624.91687,0.0027517
623.95249,0.0039683
622.98811,0.0050851
622.02373,0.0058001
621.05935,0.0063754
620.09498,0.0067808
619.13060,0.0067905
618.16622,0.0065249
617.20184,0.0063175
616.23747,0.0062184
615.27309,0.0057216
614.30871,0.0049985
613.34433,0.0040916
612.37995,0.0035222
611.41558,0.0033634
610.45120,0.0030658
609.48682,0.0028671
608.52244,0.0026689
607.55806,0.0026341
606.59369,0.0029856
605.62931,0.0037444
604.66493,0.0043491
603.70055,0.0040717
602.73618,0.0033854
601.77180,0.0029035
600.80742,0.0032777
599.84304,0.0039668
598.87866,0.0042853
597.91429,0.0044124
596.94991,0.0044085
595.98553,0.0043956
595.02115,0.0044206
594.05677,0.0045317
593.09240,0.0046320
592.12802,0.0046051
591.16364,0.0045410
590.19926,0.0045893
589.23488,0.0047357
588.27051,0.0047894
587.30613,0.0047510
586.34175,0.0046186
585.37737,0.0044321
584.41300,0.0043650
583.44862,0.0044492
582.48424,0.0045687
581.51986,0.0046512
580.55548,0.0047317
579.59111,0.0047311
578.62673,0.0046646
577.66235,0.0045956
576.69797,0.0045095
575.73359,0.0044380
574.76922,0.0043016
573.80484,0.0041950
572.84046,0.0041988
571.87608,0.0041260
570.91171,0.0039413
569.94733,0.0037617
568.98295,0.0036637
568.01857,0.0035793
567.05419,0.0034845
566.08982,0.0034474
565.12544,0.0034767
564.16106,0.0035198
563.19668,0.0034555
562.23230,0.0033866
561.26793,0.0034072
560.30355,0.0033370
559.33917,0.0032344
558.37479,0.0032219
557.41041,0.0032440
556.44604,0.0032495
555.48166,0.0032361
554.51728,0.0033095
553.55290,0.0033939
552.58853,0.0033953
551.62415,0.0033535
550.65977,0.0032984
549.69539,0.0033590
548.73101,0.0034424
547.76664,0.0034780
546.80226,0.0034963
545.83788,0.0034280
544.87350,0.0033284
543.90912,0.0032311
542.94475,0.0031895
541.98037,0.0031119
541.01599,0.0029648
540.05161,0.0028462
539.08724,0.0027448
538.12286,0.0027937
537.15848,0.0029084
536.19410,0.0030049
535.22972,0.0030963
534.26535,0.0031304
533.30097,0.0032090
532.33659,0.0032881
531.37221,0.0033634
530.40783,0.0033969
529.44346,0.0033344
528.47908,0.0032419
527.51470,0.0031040
526.55032,0.0029478
525.58594,0.0027635
524.62157,0.0026530
523.65719,0.0026082
522.69281,0.0025645
521.72843,0.0026223
520.76406,0.0027055
519.79968,0.0028002
518.83530,0.0028836
517.87092,0.0029211
516.90654,0.0029134
515.94217,0.0028274
514.97779,0.0027402
514.01341,0.0026597
513.04903,0.0026891
512.08465,0.0028127
511.12028,0.0028641
510.15590,0.0029002
509.19152,0.0029412
508.22714,0.0029812
507.26276,0.0030147
506.29839,0.0030120
505.33401,0.0029626
504.36963,0.0028516
503.40525,0.0027622
502.44088,0.0027594
501.47650,0.0028122
500.51212,0.0028124
499.54774,0.0026946
498.58336,0.0025628
497.61899,0.0025460
496.65461,0.0026056
495.69023,0.0026215
494.72585,0.0026243
493.76147,0.0026115
492.79710,0.0025493
491.83272,0.0025373
490.86834,0.0025523
489.90396,0.0025630
488.93959,0.0026416
487.97521,0.0027513
487.01083,0.0028728
486.04645,0.0030241
485.08207,0.0030835
484.11770,0.0030141
483.15332,0.0029316
482.18894,0.0027924
481.22456,0.0026049
480.26018,0.0024740
479.29581,0.0023497
478.33143,0.0023343
477.36705,0.0025369
476.40267,0.0027680
475.43829,0.0029043
474.47392,0.0030049
473.50954,0.0031123
472.54516,0.0031879
471.58078,0.0031983
470.61641,0.0031854
469.65203,0.0031568
468.68765,0.0030879
467.72327,0.0030227
466.75889,0.0030165
465.79452,0.0030457
464.83014,0.0029750
463.86576,0.0028414
462.90138,0.0028933
461.93700,0.0031202
460.97263,0.0033307
460.00825,0.0034583
459.04387,0.0035220
458.07949,0.0034655
457.11512,0.0033005
456.15074,0.0031858
455.18636,0.0031075
454.22198,0.0029912
453.25760,0.0028142
452.29323,0.0026912
451.32885,0.0027520
450.36447,0.0028500
449.40009,0.0029116
448.43571,0.0029352
447.47134,0.0028989
446.50696,0.0027920
445.54258,0.0026948
444.57820,0.0027290
443.61382,0.0027469
442.64945,0.0027046
441.68507,0.0027010
440.72069,0.0027749
439.75631,0.0028897
438.79194,0.0029482
437.82756,0.0029899
436.86318,0.0029911
435.89880,0.0029383
434.93442,0.0028687
433.97005,0.0028026
433.00567,0.0027326
432.04129,0.0025866
431.07691,0.0024851
430.11253,0.0025131
429.14816,0.0025901
428.18378,0.0026707
427.21940,0.0027466
426.25502,0.0027534
425.29065,0.0026918
424.32627,0.0027727
423.36189,0.0030105
422.39751,0.0032231
421.43313,0.0033254
420.46876,0.0033759
419.50438,0.0034188
418.54000,0.0033928
417.57562,0.0032699
416.61124,0.0030799
415.64687,0.0028512
414.68249,0.0025147
413.71811,0.0022485
412.75373,0.0022544
411.78935,0.0023658
410.82498,0.0024651
409.86060,0.0025242
408.89622,0.0025895
407.93184,0.0026561
406.96747,0.0026906
406.00309,0.0026535
405.03871,0.0025352
404.07433,0.0025352
403.10995,0.0025352
402.14558,0.0025352
401.18120,0.0025352
400.21682,0.0025352
399.25244,0.0025352
