3998.31069,0.0587772
3997.34631,0.0587772
3996.38194,0.0587772
3995.41756,0.0587772
3994.45318,0.0587772
3993.48880,0.0587772
3992.52442,0.0587772
3991.56005,0.0588573
3990.59567,0.0588105
3989.63129,0.0586906
3988.66691,0.0586787
3987.70253,0.0586928
3986.73816,0.0586288
3985.77378,0.0585660
3984.80940,0.0585769
3983.84502,0.0586589
3982.88065,0.0587586
3981.91627,0.0588901
3980.95189,0.0589668
3979.98751,0.0589059
3979.02313,0.0587822
3978.05876,0.0586749
3977.09438,0.0586662
3976.13000,0.0586837
3975.16562,0.0586619
3974.20124,0.0586347
3973.23687,0.0585998
3972.27249,0.0586220
3971.30811,0.0586791
3970.34373,0.0586683
3969.37935,0.0585786
3968.41498,0.0584902
3967.45060,0.0584316
3966.48622,0.0583808
3965.52184,0.0583679
3964.55747,0.0583756
3963.59309,0.0584258
3962.62871,0.0584832
3961.66433,0.0585160
3960.69995,0.0586255
3959.73558,0.0587494
3958.77120,0.0588049
3957.80682,0.0588098
3956.84244,0.0587663
3955.87806,0.0586917
3954.91369,0.0585891
3953.94931,0.0584652
3952.98493,0.0583937
3952.02055,0.0583789
3951.05618,0.0583314
3950.09180,0.0583454
3949.12742,0.0584552
3948.16304,0.0585622
3947.19866,0.0586869
3946.23429,0.0587898
3945.26991,0.0588154
3944.30553,0.0587475
3943.34115,0.0586412
3942.37677,0.0585672
3941.41240,0.0584938
3940.44802,0.0583571
3939.48364,0.0581564
3938.51926,0.0580665
3937.55488,0.0581002
3936.59051,0.0581744
3935.62613,0.0583075
3934.66175,0.0584276
3933.69737,0.0584965
3932.73300,0.0584921
3931.76862,0.0584751
3930.80424,0.0584659
3929.83986,0.0584206
3928.87548,0.0583757
3927.91111,0.0582986
3926.94673,0.0582761
3925.98235,0.0583424
3925.01797,0.0584141
3924.05359,0.0584810
3923.08922,0.0585144
3922.12484,0.0585583
3921.16046,0.0586076
3920.19608,0.0586295
3919.23171,0.0586581
3918.26733,0.0587152
3917.30295,0.0587788
3916.33857,0.0587841
3915.37419,0.0587409
3914.40982,0.0586853
3913.44544,0.0586524
3912.48106,0.0586416
3911.51668,0.0585691
3910.55230,0.0584573
3909.58793,0.0584107
3908.62355,0.0584080
3907.65917,0.0584779
3906.69479,0.0586781
3905.73041,0.0588445
3904.76604,0.0589315
3903.80166,0.0590449
3902.83728,0.0591562
3901.87290,0.0592245
3900.90853,0.0592011
3899.94415,0.0590085
3898.97977,0.0586944
3898.01539,0.0583815
3897.05101,0.0581545
3896.08664,0.0581536
3895.12226,0.0582723
3894.15788,0.0582700
3893.19350,0.0582457
3892.22912,0.0582717
3891.26475,0.0583666
3890.30037,0.0585745
3889.33599,0.0587901
3888.37161,0.0588730
3887.40724,0.0587375
3886.44286,0.0585457
3885.47848,0.0585672
3884.51410,0.0587528
3883.54972,0.0588026
3882.58535,0.0586505
3881.62097,0.0583598
3880.65659,0.0580193
3879.69221,0.0579273
3878.72783,0.0580663
3877.76346,0.0581512
3876.79908,0.0580213
3875.83470,0.0578273
3874.87032,0.0579775
3873.90594,0.0584503
3872.94157,0.0588964
3871.97719,0.0590890
3871.01281,0.0591064
3870.04843,0.0591553
3869.08406,0.0592167
3868.11968,0.0592385
3867.15530,0.0592101
3866.19092,0.0590635
3865.22654,0.0587651
3864.26217,0.0585086
3863.29779,0.0584637
3862.33341,0.0584791
3861.36903,0.0582366
3860.40465,0.0577516
3859.44028,0.0576675
3858.47590,0.0581115
3857.51152,0.0587151
3856.54714,0.0594097
3855.58276,0.0601155
3854.61839,0.0606273
3853.65401,0.0608092
3852.68963,0.0607006
3851.72525,0.0603588
3850.76088,0.0597596
3849.79650,0.0588809
3848.83212,0.0580163
3847.86774,0.0575695
3846.90336,0.0573792
3845.93899,0.0573860
3844.97461,0.0574960
3844.01023,0.0575488
3843.04585,0.0578225
3842.08147,0.0582079
3841.11710,0.0584765
3840.15272,0.0586813
3839.18834,0.0588273
3838.22396,0.0589264
3837.25959,0.0589654
3836.29521,0.0588971
3835.33083,0.0587165
3834.36645,0.0584575
3833.40207,0.0580543
3832.43770,0.0577048
3831.47332,0.0576747
3830.50894,0.0576125
3829.54456,0.0574071
3828.58018,0.0572005
3827.61581,0.0569646
3826.65143,0.0569430
3825.68705,0.0572037
3824.72267,0.0575167
3823.75829,0.0577385
3822.79392,0.0577927
3821.82954,0.0578525
3820.86516,0.0581547
3819.90078,0.0585393
3818.93641,0.0587285
3817.97203,0.0586717
3817.00765,0.0583670
3816.04327,0.0579844
3815.07889,0.0577989
3814.11452,0.0575799
3813.15014,0.0571830
3812.18576,0.0568780
3811.22138,0.0567268
3810.25700,0.0568364
3809.29263,0.0571760
3808.32825,0.0573727
3807.36387,0.0574888
3806.39949,0.0578055
3805.43512,0.0581891
3804.47074,0.0584351
3803.50636,0.0584721
3802.54198,0.0582970
3801.57760,0.0581143
3800.61323,0.0580853
3799.64885,0.0580606
3798.68447,0.0578963
3797.72009,0.0575659
3796.75571,0.0571787
3795.79134,0.0570323
3794.82696,0.0571672
3793.86258,0.0572191
3792.89820,0.0570780
3791.93382,0.0568731
3790.96945,0.0566533
3790.00507,0.0564989
3789.04069,0.0564399
3788.07631,0.0564376
3787.11194,0.0564286
3786.14756,0.0563724
3785.18318,0.0563735
3784.21880,0.0564659
3783.25442,0.0565607
3782.29005,0.0566085
3781.32567,0.0566326
3780.36129,0.0566280
3779.39691,0.0565634
3778.43253,0.0565400
3777.46816,0.0565414
3776.50378,0.0564314
3775.53940,0.0563119
3774.57502,0.0563214
3773.61065,0.0564058
3772.64627,0.0564792
3771.68189,0.0565701
3770.71751,0.0567439
3769.75313,0.0569245
3768.78876,0.0570248
3767.82438,0.0570545
3766.86000,0.0569799
3765.89562,0.0567881
3764.93124,0.0566001
3763.96687,0.0565368
3763.00249,0.0565745
3762.03811,0.0565607
3761.07373,0.0564769
3760.10935,0.0564626
3759.14498,0.0564524
3758.18060,0.0564341
3757.21622,0.0566519
3756.25184,0.0569303
3755.28747,0.0571445
3754.32309,0.0575978
3753.35871,0.0582108
3752.39433,0.0586087
3751.42995,0.0585299
3750.46558,0.0582319
3749.50120,0.0583105
3748.53682,0.0585302
3747.57244,0.0584775
3746.60806,0.0583540
3745.64369,0.0583385
3744.67931,0.0581592
3743.71493,0.0578334
3742.75055,0.0576525
3741.78618,0.0574886
3740.82180,0.0571718
3739.85742,0.0567667
3738.89304,0.0565806
3737.92866,0.0568939
3736.96429,0.0573397
3735.99991,0.0576056
3735.03553,0.0576875
3734.07115,0.0575867
3733.10677,0.0572670
3732.14240,0.0568212
3731.17802,0.0565398
3730.21364,0.0564562
3729.24926,0.0564323
3728.28488,0.0564323
3727.32051,0.0564189
3726.35613,0.0564641
3725.39175,0.0565929
3724.42737,0.0566676
3723.46300,0.0566144
3722.49862,0.0564532
3721.53424,0.0562120
3720.56986,0.0560049
3719.60548,0.0558535
3718.64111,0.0556388
3717.67673,0.0555813
3716.71235,0.0558142
3715.74797,0.0560701
3714.78359,0.0562412
3713.81922,0.0564197
3712.85484,0.0565960
3711.89046,0.0566224
3710.92608,0.0565095
3709.96171,0.0563681
3708.99733,0.0561494
3708.03295,0.0558015
3707.06857,0.0555100
3706.10419,0.0555210
3705.13982,0.0556337
3704.17544,0.0556304
3703.21106,0.0556511
3702.24668,0.0557219
3701.28230,0.0557091
3700.31793,0.0555861
3699.35355,0.0555340
3698.38917,0.0555242
3697.42479,0.0554046
3696.46041,0.0553534
3695.49604,0.0554539
3694.53166,0.0556400
3693.56728,0.0559871
3692.60290,0.0564931
3691.63853,0.0569577
3690.67415,0.0572553
3689.70977,0.0573917
3688.74539,0.0573702
3687.78101,0.0572709
3686.81664,0.0569844
3685.85226,0.0565453
3684.88788,0.0561966
3683.92350,0.0558530
3682.95912,0.0555670
3681.99475,0.0555403
3681.03037,0.0558188
3680.06599,0.0563169
3679.10161,0.0568327
3678.13724,0.0572263
3677.17286,0.0574772
3676.20848,0.0577620
3675.24410,0.0580671
3674.27972,0.0583078
3673.31535,0.0585110
3672.35097,0.0585318
3671.38659,0.0583693
3670.42221,0.0581766
3669.45783,0.0581279
3668.49346,0.0581686
3667.52908,0.0580745
3666.56470,0.0578461
3665.60032,0.0576424
3664.63594,0.0576851
3663.67157,0.0578527
3662.70719,0.0580415
3661.74281,0.0584465
3660.77843,0.0589629
3659.81406,0.0594288
3658.84968,0.0597983
3657.88530,0.0601114
3656.92092,0.0603881
3655.95654,0.0605767
3654.99217,0.0607982
3654.02779,0.0611215
3653.06341,0.0615374
3652.09903,0.0620277
3651.13465,0.0625796
3650.17028,0.0631635
3649.20590,0.0635960
3648.24152,0.0638324
3647.27714,0.0639437
3646.31276,0.0639172
3645.34839,0.0637816
3644.38401,0.0636624
3643.41963,0.0636532
3642.45525,0.0637861
3641.49088,0.0640709
3640.52650,0.0644060
3639.56212,0.0646725
3638.59774,0.0648986
3637.63336,0.0651709
3636.66899,0.0653974
3635.70461,0.0654601
3634.74023,0.0655424
3633.77585,0.0658911
3632.81147,0.0664752
3631.84710,0.0670939
3630.88272,0.0676735
3629.91834,0.0681098
3628.95396,0.0683010
3627.98959,0.0683755
3627.02521,0.0683764
3626.06083,0.0682338
3625.09645,0.0679404
3624.13207,0.0676705
3623.16770,0.0676895
3622.20332,0.0680203
3621.23894,0.0684399
3620.27456,0.0687692
3619.31018,0.0690400
3618.34581,0.0692510
3617.38143,0.0693955
3616.41705,0.0694381
3615.45267,0.0693459
3614.48829,0.0693100
3613.52392,0.0693834
3612.55954,0.0695442
3611.59516,0.0697333
3610.63078,0.0698440
3609.66641,0.0698428
3608.70203,0.0697314
3607.73765,0.0696704
3606.77327,0.0696600
3605.80889,0.0696435
3604.84452,0.0696031
3603.88014,0.0695365
3602.91576,0.0695193
3601.95138,0.0694547
3600.98700,0.0694323
3600.02263,0.0694558
3599.05825,0.0694073
3598.09387,0.0693998
3597.12949,0.0694489
3596.16512,0.0695256
3595.20074,0.0695769
3594.23636,0.0697047
3593.27198,0.0699221
3592.30760,0.0700599
3591.34323,0.0701336
3590.37885,0.0701210
3589.41447,0.0700867
3588.45009,0.0700301
3587.48571,0.0698801
3586.52134,0.0697070
3585.55696,0.0695271
3584.59258,0.0693619
3583.62820,0.0692786
3582.66382,0.0694052
3581.69945,0.0696594
3580.73507,0.0698863
3579.77069,0.0700535
3578.80631,0.0700956
3577.84194,0.0700846
3576.87756,0.0700771
3575.91318,0.0700314
3574.94880,0.0698781
3573.98442,0.0697274
3573.02005,0.0697530
3572.05567,0.0699212
3571.09129,0.0702290
3570.12691,0.0705525
3569.16253,0.0708168
3568.19816,0.0710661
3567.23378,0.0712580
3566.26940,0.0714092
3565.30502,0.0715093
3564.34065,0.0715178
3563.37627,0.0713801
3562.41189,0.0712210
3561.44751,0.0711824
3560.48313,0.0712093
3559.51876,0.0712882
3558.55438,0.0713559
3557.59000,0.0714839
3556.62562,0.0717183
3555.66124,0.0719166
3554.69687,0.0720696
3553.73249,0.0722063
3552.76811,0.0723571
3551.80373,0.0725321
3550.83935,0.0727613
3549.87498,0.0730345
3548.91060,0.0732293
3547.94622,0.0733566
3546.98184,0.0734883
3546.01747,0.0736392
3545.05309,0.0737608
3544.08871,0.0738012
3543.12433,0.0738155
3542.15995,0.0738900
3541.19558,0.0740828
3540.23120,0.0743606
3539.26682,0.0746009
3538.30244,0.0747304
3537.33806,0.0747597
3536.37369,0.0747789
3535.40931,0.0748911
3534.44493,0.0750519
3533.48055,0.0751745
3532.51618,0.0752544
3531.55180,0.0753482
3530.58742,0.0755355
3529.62304,0.0757965
3528.65866,0.0760554
3527.69429,0.0762429
3526.72991,0.0763666
3525.76553,0.0764950
3524.80115,0.0766456
3523.83677,0.0768583
3522.87240,0.0770945
3521.90802,0.0772925
3520.94364,0.0774687
3519.97926,0.0776251
3519.01488,0.0777952
3518.05051,0.0779867
3517.08613,0.0781861
3516.12175,0.0783443
3515.15737,0.0784171
3514.19300,0.0784801
3513.22862,0.0785443
3512.26424,0.0785980
3511.29986,0.0787098
3510.33548,0.0788736
3509.37111,0.0790470
3508.40673,0.0792642
3507.44235,0.0795487
3506.47797,0.0798331
3505.51359,0.0800823
3504.54922,0.0803107
3503.58484,0.0804911
3502.62046,0.0806164
3501.65608,0.0806890
3500.69171,0.0807438
3499.72733,0.0808463
3498.76295,0.0809521
3497.79857,0.0810178
3496.83419,0.0810714
3495.86982,0.0811398
3494.90544,0.0812338
3493.94106,0.0813256
3492.97668,0.0814102
3492.01230,0.0814821
3491.04793,0.0815548
3490.08355,0.0816625
3489.11917,0.0818043
3488.15479,0.0820040
3487.19041,0.0822219
3486.22604,0.0823917
3485.26166,0.0825299
3484.29728,0.0826830
3483.33290,0.0828352
3482.36853,0.0829038
3481.40415,0.0829112
3480.43977,0.0829405
3479.47539,0.0830228
3478.51101,0.0831138
3477.54664,0.0831685
3476.58226,0.0832847
3475.61788,0.0834730
3474.65350,0.0836373
3473.68912,0.0837685
3472.72475,0.0838418
3471.76037,0.0838666
3470.79599,0.0838977
3469.83161,0.0839398
3468.86724,0.0840323
3467.90286,0.0842015
3466.93848,0.0843659
3465.97410,0.0844885
3465.00972,0.0846381
3464.04535,0.0848097
3463.08097,0.0849442
3462.11659,0.0850530
3461.15221,0.0851200
3460.18783,0.0851622
3459.22346,0.0852420
3458.25908,0.0853381
3457.29470,0.0854649
3456.33032,0.0856148
3455.36594,0.0857188
3454.40157,0.0857781
3453.43719,0.0858145
3452.47281,0.0858617
3451.50843,0.0859272
3450.54406,0.0859782
3449.57968,0.0860016
3448.61530,0.0859981
3447.65092,0.0859847
3446.68654,0.0859933
3445.72217,0.0860278
3444.75779,0.0860349
3443.79341,0.0860417
3442.82903,0.0861322
3441.86465,0.0862677
3440.90028,0.0863779
3439.93590,0.0864263
3438.97152,0.0863972
3438.00714,0.0863605
3437.04276,0.0863537
3436.07839,0.0863577
3435.11401,0.0864069
3434.14963,0.0864355
3433.18525,0.0864262
3432.22088,0.0864981
3431.25650,0.0866078
3430.29212,0.0866789
3429.32774,0.0866879
3428.36336,0.0866423
3427.39899,0.0866178
3426.43461,0.0866672
3425.47023,0.0868088
3424.50585,0.0869985
3423.54147,0.0871766
3422.57710,0.0872778
3421.61272,0.0873259
3420.64834,0.0873662
3419.68396,0.0873252
3418.71959,0.0872378
3417.75521,0.0871490
3416.79083,0.0870836
3415.82645,0.0870762
3414.86207,0.0870526
3413.89770,0.0870193
3412.93332,0.0870162
3411.96894,0.0870097
3411.00456,0.0869672
3410.04018,0.0869315
3409.07581,0.0869662
3408.11143,0.0870487
3407.14705,0.0871582
3406.18267,0.0872789
3405.21829,0.0873884
3404.25392,0.0874713
3403.28954,0.0875000
3402.32516,0.0874830
3401.36078,0.0874688
3400.39641,0.0874590
3399.43203,0.0874298
3398.46765,0.0874352
3397.50327,0.0874797
3396.53889,0.0875201
3395.57452,0.0875361
3394.61014,0.0875036
3393.64576,0.0874694
3392.68138,0.0874468
3391.71700,0.0874058
3390.75263,0.0873850
3389.78825,0.0874208
3388.82387,0.0874858
3387.85949,0.0875319
3386.89512,0.0875398
3385.93074,0.0875051
3384.96636,0.0874629
3384.00198,0.0874582
3383.03760,0.0875115
3382.07323,0.0875932
3381.10885,0.0876260
3380.14447,0.0876447
3379.18009,0.0877177
3378.21571,0.0877770
3377.25134,0.0877465
3376.28696,0.0876456
3375.32258,0.0875197
3374.35820,0.0873974
3373.39382,0.0873192
3372.42945,0.0873000
3371.46507,0.0872832
3370.50069,0.0872221
3369.53631,0.0871435
3368.57194,0.0870885
3367.60756,0.0870526
3366.64318,0.0870023
3365.67880,0.0869476
3364.71442,0.0869436
3363.75005,0.0869944
3362.78567,0.0870346
3361.82129,0.0870662
3360.85691,0.0871258
3359.89253,0.0871390
3358.92816,0.0870828
3357.96378,0.0870048
3356.99940,0.0869407
3356.03502,0.0869334
3355.07065,0.0869376
3354.10627,0.0869216
3353.14189,0.0868727
3352.17751,0.0867717
3351.21313,0.0866645
3350.24876,0.0865929
3349.28438,0.0865521
3348.32000,0.0864568
3347.35562,0.0863506
3346.39124,0.0863370
3345.42687,0.0863833
3344.46249,0.0864855
3343.49811,0.0865932
3342.53373,0.0866631
3341.56935,0.0867164
3340.60498,0.0867570
3339.64060,0.0867833
3338.67622,0.0867589
3337.71184,0.0866562
3336.74747,0.0864933
3335.78309,0.0863891
3334.81871,0.0863461
3333.85433,0.0862607
3332.88995,0.0861813
3331.92558,0.0861136
3330.96120,0.0860520
3329.99682,0.0860338
3329.03244,0.0860375
3328.06806,0.0860249
3327.10369,0.0859859
3326.13931,0.0859385
3325.17493,0.0858718
3324.21055,0.0858183
3323.24618,0.0857957
3322.28180,0.0857886
3321.31742,0.0857922
3320.35304,0.0857802
3319.38866,0.0857796
3318.42429,0.0857972
3317.45991,0.0858051
3316.49553,0.0857545
3315.53115,0.0856578
3314.56677,0.0855720
3313.60240,0.0854440
3312.63802,0.0853070
3311.67364,0.0852193
3310.70926,0.0851403
3309.74488,0.0850638
3308.78051,0.0850277
3307.81613,0.0850574
3306.85175,0.0850999
3305.88737,0.0850984
3304.92300,0.0850501
3303.95862,0.0850211
3302.99424,0.0850370
3302.02986,0.0850381
3301.06548,0.0850330
3300.10111,0.0850028
3299.13673,0.0849329
3298.17235,0.0848619
3297.20797,0.0847969
3296.24359,0.0847606
3295.27922,0.0847334
3294.31484,0.0846857
3293.35046,0.0846655
3292.38608,0.0846966
3291.42171,0.0847044
3290.45733,0.0846687
3289.49295,0.0846320
3288.52857,0.0845512
3287.56419,0.0844456
3286.59982,0.0843734
3285.63544,0.0843215
3284.67106,0.0843135
3283.70668,0.0843361
3282.74230,0.0843602
3281.77793,0.0844097
3280.81355,0.0844175
3279.84917,0.0843191
3278.88479,0.0841932
3277.92041,0.0840737
3276.95604,0.0839256
3275.99166,0.0837930
3275.02728,0.0836857
3274.06290,0.0835749
3273.09853,0.0834931
3272.13415,0.0834348
3271.16977,0.0834227
3270.20539,0.0835008
3269.24101,0.0835855
3268.27664,0.0836569
3267.31226,0.0837613
3266.34788,0.0838336
3265.38350,0.0838311
3264.41912,0.0837564
3263.45475,0.0836270
3262.49037,0.0834814
3261.52599,0.0833049
3260.56161,0.0831071
3259.59724,0.0829519
3258.63286,0.0828520
3257.66848,0.0827874
3256.70410,0.0827845
3255.73972,0.0828401
3254.77535,0.0828825
3253.81097,0.0828946
3252.84659,0.0828934
3251.88221,0.0828802
3250.91783,0.0828620
3249.95346,0.0828126
3248.98908,0.0827322
3248.02470,0.0826642
3247.06032,0.0826255
3246.09594,0.0826024
3245.13157,0.0826003
3244.16719,0.0826400
3243.20281,0.0826748
3242.23843,0.0826719
3241.27406,0.0826462
3240.30968,0.0826016
3239.34530,0.0825616
3238.38092,0.0825175
3237.41654,0.0824600
3236.45217,0.0823953
3235.48779,0.0823021
3234.52341,0.0821610
3233.55903,0.0820136
3232.59465,0.0819442
3231.63028,0.0819237
3230.66590,0.0819372
3229.70152,0.0819865
3228.73714,0.0819844
3227.77276,0.0819354
3226.80839,0.0818829
3225.84401,0.0818539
3224.87963,0.0818406
3223.91525,0.0818024
3222.95088,0.0817282
3221.98650,0.0816322
3221.02212,0.0815805
3220.05774,0.0815570
3219.09336,0.0815418
3218.12899,0.0814876
3217.16461,0.0813362
3216.20023,0.0812082
3215.23585,0.0811139
3214.27147,0.0810457
3213.30710,0.0810290
3212.34272,0.0809678
3211.37834,0.0808917
3210.41396,0.0808436
3209.44959,0.0808036
3208.48521,0.0807966
3207.52083,0.0808203
3206.55645,0.0808147
3205.59207,0.0807798
3204.62770,0.0807720
3203.66332,0.0807301
3202.69894,0.0806406
3201.73456,0.0805475
3200.77018,0.0804466
3199.80581,0.0803781
3198.84143,0.0803356
3197.87705,0.0803033
3196.91267,0.0802673
3195.94829,0.0801803
3194.98392,0.0800585
3194.01954,0.0799512
3193.05516,0.0798746
3192.09078,0.0798059
3191.12641,0.0797427
3190.16203,0.0797062
3189.19765,0.0797020
3188.23327,0.0797167
3187.26889,0.0797282
3186.30452,0.0797158
3185.34014,0.0796456
3184.37576,0.0795592
3183.41138,0.0795206
3182.44700,0.0794951
3181.48263,0.0794618
3180.51825,0.0794454
3179.55387,0.0794199
3178.58949,0.0793480
3177.62512,0.0792723
3176.66074,0.0792086
3175.69636,0.0791137
3174.73198,0.0789957
3173.76760,0.0788602
3172.80323,0.0787244
3171.83885,0.0785994
3170.87447,0.0784434
3169.91009,0.0782995
3168.94571,0.0782215
3167.98134,0.0781729
3167.01696,0.0781477
3166.05258,0.0781515
3165.08820,0.0781444
3164.12382,0.0781261
3163.15945,0.0780909
3162.19507,0.0780060
3161.23069,0.0779100
3160.26631,0.0777945
3159.30194,0.0776419
3158.33756,0.0775270
3157.37318,0.0774662
3156.40880,0.0774365
3155.44442,0.0773993
3154.48005,0.0773268
3153.51567,0.0772586
3152.55129,0.0771912
3151.58691,0.0771046
3150.62253,0.0770139
3149.65816,0.0769289
3148.69378,0.0768444
3147.72940,0.0767727
3146.76502,0.0767519
3145.80065,0.0767900
3144.83627,0.0768502
3143.87189,0.0768644
3142.90751,0.0768230
3141.94313,0.0767516
3140.97876,0.0766285
3140.01438,0.0764918
3139.05000,0.0763637
3138.08562,0.0762206
3137.12124,0.0761183
3136.15687,0.0760682
3135.19249,0.0760471
3134.22811,0.0760635
3133.26373,0.0760516
3132.29935,0.0759719
3131.33498,0.0758757
3130.37060,0.0757886
3129.40622,0.0757095
3128.44184,0.0756397
3127.47747,0.0755679
3126.51309,0.0755176
3125.54871,0.0755227
3124.58433,0.0755291
3123.61995,0.0754965
3122.65558,0.0754316
3121.69120,0.0753004
3120.72682,0.0751466
3119.76244,0.0750272
3118.79806,0.0749084
3117.83369,0.0747855
3116.86931,0.0746853
3115.90493,0.0746451
3114.94055,0.0746660
3113.97618,0.0746836
3113.01180,0.0746656
3112.04742,0.0746272
3111.08304,0.0745672
3110.11866,0.0744935
3109.15429,0.0744352
3108.18991,0.0743595
3107.22553,0.0742573
3106.26115,0.0741804
3105.29677,0.0741389
3104.33240,0.0741316
3103.36802,0.0741111
3102.40364,0.0740324
3101.43926,0.0739320
3100.47488,0.0738203
3099.51051,0.0736963
3098.54613,0.0736043
3097.58175,0.0735425
3096.61737,0.0734709
3095.65300,0.0734037
3094.68862,0.0733490
3093.72424,0.0732876
3092.75986,0.0732145
3091.79548,0.0731241
3090.83111,0.0730327
3089.86673,0.0729376
3088.90235,0.0728203
3087.93797,0.0727225
3086.97359,0.0726779
3086.00922,0.0726317
3085.04484,0.0725567
3084.08046,0.0724978
3083.11608,0.0724416
3082.15171,0.0723665
3081.18733,0.0722916
3080.22295,0.0722636
3079.25857,0.0722917
3078.29419,0.0722602
3077.32982,0.0721637
3076.36544,0.0720774
3075.40106,0.0719801
3074.43668,0.0718889
3073.47230,0.0718308
3072.50793,0.0717901
3071.54355,0.0717179
3070.57917,0.0715996
3069.61479,0.0715237
3068.65041,0.0715137
3067.68604,0.0714898
3066.72166,0.0714037
3065.75728,0.0712755
3064.79290,0.0711131
3063.82853,0.0709542
3062.86415,0.0708575
3061.89977,0.0707567
3060.93539,0.0706192
3059.97101,0.0704786
3059.00664,0.0703594
3058.04226,0.0703306
3057.07788,0.0703511
3056.11350,0.0703640
3055.14912,0.0703866
3054.18475,0.0703735
3053.22037,0.0703179
3052.25599,0.0702421
3051.29161,0.0701203
3050.32724,0.0699601
3049.36286,0.0697992
3048.39848,0.0696407
3047.43410,0.0694779
3046.46972,0.0693481
3045.50535,0.0692564
3044.54097,0.0691786
3043.57659,0.0691343
3042.61221,0.0691261
3041.64783,0.0691311
3040.68346,0.0691267
3039.71908,0.0691276
3038.75470,0.0691533
3037.79032,0.0691382
3036.82594,0.0690502
3035.86157,0.0689366
3034.89719,0.0688435
3033.93281,0.0687646
3032.96843,0.0686493
3032.00406,0.0685397
3031.03968,0.0684613
3030.07530,0.0683523
3029.11092,0.0682140
3028.14654,0.0680778
3027.18217,0.0679633
3026.21779,0.0678448
3025.25341,0.0677427
3024.28903,0.0677141
3023.32465,0.0676950
3022.36028,0.0676602
3021.39590,0.0676385
3020.43152,0.0676287
3019.46714,0.0675987
3018.50276,0.0674953
3017.53839,0.0673573
3016.57401,0.0672373
3015.60963,0.0671426
3014.64525,0.0670652
3013.68088,0.0670213
3012.71650,0.0670049
3011.75212,0.0669498
3010.78774,0.0669008
3009.82336,0.0668660
3008.85899,0.0667758
3007.89461,0.0666407
3006.93023,0.0664904
3005.96585,0.0663809
3005.00147,0.0662994
3004.03710,0.0662116
3003.07272,0.0661573
3002.10834,0.0661491
3001.14396,0.0661439
3000.17959,0.0660999
2999.21521,0.0660535
2998.25083,0.0659867
2997.28645,0.0658616
2996.32207,0.0657097
2995.35770,0.0655635
2994.39332,0.0654834
2993.42894,0.0654343
2992.46456,0.0653787
2991.50018,0.0653761
2990.53581,0.0654102
2989.57143,0.0654191
2988.60705,0.0653903
2987.64267,0.0653493
2986.67829,0.0652796
2985.71392,0.0651801
2984.74954,0.0650700
2983.78516,0.0649490
2982.82078,0.0648483
2981.85641,0.0647453
2980.89203,0.0646451
2979.92765,0.0645950
2978.96327,0.0645758
2977.99889,0.0645572
2977.03452,0.0645209
2976.07014,0.0644606
2975.10576,0.0643815
2974.14138,0.0643233
2973.17700,0.0642734
2972.21263,0.0641920
2971.24825,0.0641096
2970.28387,0.0640228
2969.31949,0.0639463
2968.35512,0.0639069
2967.39074,0.0638982
2966.42636,0.0639059
2965.46198,0.0638883
2964.49760,0.0638464
2963.53323,0.0638059
2962.56885,0.0637831
2961.60447,0.0637570
2960.64009,0.0637088
2959.67571,0.0636543
2958.71134,0.0635868
2957.74696,0.0635334
2956.78258,0.0635026
2955.81820,0.0634748
2954.85382,0.0634438
2953.88945,0.0633870
2952.92507,0.0633131
2951.96069,0.0632448
2950.99631,0.0631768
2950.03194,0.0630915
2949.06756,0.0630021
2948.10318,0.0629156
2947.13880,0.0628235
2946.17442,0.0627379
2945.21005,0.0626801
2944.24567,0.0626636
2943.28129,0.0626493
2942.31691,0.0626446
2941.35253,0.0626588
2940.38816,0.0626624
2939.42378,0.0626831
2938.45940,0.0626933
2937.49502,0.0626757
2936.53065,0.0626539
2935.56627,0.0626316
2934.60189,0.0626120
2933.63751,0.0625840
2932.67313,0.0625693
2931.70876,0.0625601
2930.74438,0.0625543
2929.78000,0.0625530
2928.81562,0.0625338
2927.85124,0.0625261
2926.88687,0.0625164
2925.92249,0.0624945
2924.95811,0.0624926
2923.99373,0.0625083
2923.02935,0.0624917
2922.06498,0.0624293
2921.10060,0.0623767
2920.13622,0.0623142
2919.17184,0.0622353
2918.20747,0.0621799
2917.24309,0.0621175
2916.27871,0.0620388
2915.31433,0.0619698
2914.34995,0.0619097
2913.38558,0.0618617
2912.42120,0.0618288
2911.45682,0.0617870
2910.49244,0.0617464
2909.52806,0.0616932
2908.56369,0.0616074
2907.59931,0.0615547
2906.63493,0.0615228
2905.67055,0.0614504
2904.70618,0.0613597
2903.74180,0.0612826
2902.77742,0.0612196
2901.81304,0.0611643
2900.84866,0.0611286
2899.88429,0.0611134
2898.91991,0.0610947
2897.95553,0.0610462
2896.99115,0.0609914
2896.02677,0.0609558
2895.06240,0.0608936
2894.09802,0.0607979
2893.13364,0.0607134
2892.16926,0.0606462
2891.20488,0.0605858
2890.24051,0.0605526
2889.27613,0.0605683
2888.31175,0.0606183
2887.34737,0.0606468
2886.38300,0.0606343
2885.41862,0.0606146
2884.45424,0.0605830
2883.48986,0.0605353
2882.52548,0.0604648
2881.56111,0.0603852
2880.59673,0.0603384
2879.63235,0.0603141
2878.66797,0.0603203
2877.70359,0.0603442
2876.73922,0.0603547
2875.77484,0.0603523
2874.81046,0.0603326
2873.84608,0.0603120
2872.88171,0.0602856
2871.91733,0.0602418
2870.95295,0.0601924
2869.98857,0.0601780
2869.02419,0.0602021
2868.05982,0.0602230
2867.09544,0.0602444
2866.13106,0.0602594
2865.16668,0.0602923
2864.20230,0.0603369
2863.23793,0.0603473
2862.27355,0.0603439
2861.30917,0.0603122
2860.34479,0.0602595
2859.38041,0.0602369
2858.41604,0.0602426
2857.45166,0.0602442
2856.48728,0.0602313
2855.52290,0.0602159
2854.55853,0.0602153
2853.59415,0.0602397
2852.62977,0.0602351
2851.66539,0.0601941
2850.70101,0.0601614
2849.73664,0.0601297
2848.77226,0.0601020
2847.80788,0.0600644
2846.84350,0.0599970
2845.87912,0.0599204
2844.91475,0.0598502
2843.95037,0.0597879
2842.98599,0.0597434
2842.02161,0.0597060
2841.05724,0.0596439
2840.09286,0.0595756
2839.12848,0.0595397
2838.16410,0.0595223
2837.19972,0.0594773
2836.23535,0.0594160
2835.27097,0.0593840
2834.30659,0.0593871
2833.34221,0.0593977
2832.37783,0.0593927
2831.41346,0.0593985
2830.44908,0.0594088
2829.48470,0.0593997
2828.52032,0.0593789
2827.55594,0.0593473
2826.59157,0.0593114
2825.62719,0.0592476
2824.66281,0.0591821
2823.69843,0.0591508
2822.73406,0.0591026
2821.76968,0.0590208
2820.80530,0.0589436
2819.84092,0.0589038
2818.87654,0.0588967
2817.91217,0.0589081
2816.94779,0.0589152
2815.98341,0.0589211
2815.01903,0.0589336
2814.05465,0.0589089
2813.09028,0.0588718
2812.12590,0.0588270
2811.16152,0.0587510
2810.19714,0.0586917
2809.23276,0.0586483
2808.26839,0.0586012
2807.30401,0.0585543
2806.33963,0.0585028
2805.37525,0.0584453
2804.41088,0.0583879
2803.44650,0.0583285
2802.48212,0.0582737
2801.51774,0.0582414
2800.55336,0.0582005
2799.58899,0.0581742
2798.62461,0.0582020
2797.66023,0.0582189
2796.69585,0.0582049
2795.73147,0.0581984
2794.76710,0.0582093
2793.80272,0.0582242
2792.83834,0.0582154
2791.87396,0.0581828
2790.90959,0.0581464
2789.94521,0.0581048
2788.98083,0.0580457
2788.01645,0.0579858
2787.05207,0.0579453
2786.08770,0.0578886
2785.12332,0.0577977
2784.15894,0.0577228
2783.19456,0.0576871
2782.23018,0.0576617
2781.26581,0.0576259
2780.30143,0.0575898
2779.33705,0.0575580
2778.37267,0.0575178
2777.40829,0.0574680
2776.44392,0.0574230
2775.47954,0.0573919
2774.51516,0.0573431
2773.55078,0.0572771
2772.58641,0.0572412
2771.62203,0.0572390
2770.65765,0.0572428
2769.69327,0.0572257
2768.72889,0.0571924
2767.76452,0.0571557
2766.80014,0.0571167
2765.83576,0.0570850
2764.87138,0.0570577
2763.90700,0.0570274
2762.94263,0.0569867
2761.97825,0.0569505
2761.01387,0.0569109
2760.04949,0.0568417
2759.08512,0.0567571
2758.12074,0.0566592
2757.15636,0.0565763
2756.19198,0.0565366
2755.22760,0.0565157
2754.26323,0.0564955
2753.29885,0.0564701
2752.33447,0.0564464
2751.37009,0.0564211
2750.40571,0.0563844
2749.44134,0.0563329
2748.47696,0.0562739
2747.51258,0.0562239
2746.54820,0.0561717
2745.58382,0.0561153
2744.61945,0.0560669
2743.65507,0.0560175
2742.69069,0.0559635
2741.72631,0.0559130
2740.76194,0.0558745
2739.79756,0.0558554
2738.83318,0.0558505
2737.86880,0.0558446
2736.90442,0.0558233
2735.94005,0.0557767
2734.97567,0.0557172
2734.01129,0.0556547
2733.04691,0.0555871
2732.08253,0.0555148
2731.11816,0.0554330
2730.15378,0.0553516
2729.18940,0.0552866
2728.22502,0.0552447
2727.26065,0.0552150
2726.29627,0.0551766
2725.33189,0.0551328
2724.36751,0.0551055
2723.40313,0.0550878
2722.43876,0.0550545
2721.47438,0.0550178
2720.51000,0.0549814
2719.54562,0.0549433
2718.58124,0.0549272
2717.61687,0.0549194
2716.65249,0.0548990
2715.68811,0.0548675
2714.72373,0.0548324
2713.75935,0.0548100
2712.79498,0.0547947
2711.83060,0.0547563
2710.86622,0.0546993
2709.90184,0.0546430
2708.93747,0.0545705
2707.97309,0.0544983
2707.00871,0.0544499
2706.04433,0.0544070
2705.07995,0.0543557
2704.11558,0.0542966
2703.15120,0.0542530
2702.18682,0.0542317
2701.22244,0.0542151
2700.25806,0.0541856
2699.29369,0.0541415
2698.32931,0.0540976
2697.36493,0.0540548
2696.40055,0.0540168
2695.43618,0.0539716
2694.47180,0.0539141
2693.50742,0.0538617
2692.54304,0.0538201
2691.57866,0.0537905
2690.61429,0.0537621
2689.64991,0.0537299
2688.68553,0.0536946
2687.72115,0.0536622
2686.75677,0.0536341
2685.79240,0.0536001
2684.82802,0.0535572
2683.86364,0.0534912
2682.89926,0.0534204
2681.93488,0.0533740
2680.97051,0.0533424
2680.00613,0.0533112
2679.04175,0.0532786
2678.07737,0.0532538
2677.11300,0.0532357
2676.14862,0.0532247
2675.18424,0.0532133
2674.21986,0.0531948
2673.25548,0.0531728
2672.29111,0.0531350
2671.32673,0.0530841
2670.36235,0.0530201
2669.39797,0.0529371
2668.43359,0.0528477
2667.46922,0.0527791
2666.50484,0.0527368
2665.54046,0.0526909
2664.57608,0.0526532
2663.61171,0.0526316
2662.64733,0.0526085
2661.68295,0.0525853
2660.71857,0.0525487
2659.75419,0.0525016
2658.78982,0.0524426
2657.82544,0.0523589
2656.86106,0.0522850
2655.89668,0.0522403
2654.93230,0.0521859
2653.96793,0.0521102
2653.00355,0.0520416
2652.03917,0.0519683
2651.07479,0.0518803
2650.11041,0.0517907
2649.14604,0.0516900
2648.18166,0.0515803
2647.21728,0.0514703
2646.25290,0.0513782
2645.28853,0.0513312
2644.32415,0.0513181
2643.35977,0.0513168
2642.39539,0.0513074
2641.43101,0.0512738
2640.46664,0.0512186
2639.50226,0.0511428
2638.53788,0.0510510
2637.57350,0.0509446
2636.60912,0.0508237
2635.64475,0.0507105
2634.68037,0.0506296
2633.71599,0.0505809
2632.75161,0.0505595
2631.78724,0.0505560
2630.82286,0.0505087
2629.85848,0.0504048
2628.89410,0.0503132
2627.92972,0.0502390
2626.96535,0.0501862
2626.00097,0.0501744
2625.03659,0.0501588
2624.07221,0.0501380
2623.10783,0.0501446
2622.14346,0.0501498
2621.17908,0.0501387
2620.21470,0.0501203
2619.25032,0.0500504
2618.28594,0.0499243
2617.32157,0.0498093
2616.35719,0.0497273
2615.39281,0.0496628
2614.42843,0.0496124
2613.46406,0.0495648
2612.49968,0.0494996
2611.53530,0.0494201
2610.57092,0.0493343
2609.60654,0.0492707
2608.64217,0.0492544
2607.67779,0.0492434
2606.71341,0.0492242
2605.74903,0.0492099
2604.78465,0.0492071
2603.82028,0.0492053
2602.85590,0.0491678
2601.89152,0.0491156
2600.92714,0.0490440
2599.96276,0.0489434
2598.99839,0.0488465
2598.03401,0.0487540
2597.06963,0.0486712
2596.10525,0.0486040
2595.14088,0.0485672
2594.17650,0.0485343
2593.21212,0.0484858
2592.24774,0.0484586
2591.28336,0.0484110
2590.31899,0.0483286
2589.35461,0.0482724
2588.39023,0.0482574
2587.42585,0.0482464
2586.46147,0.0482361
2585.49710,0.0482756
2584.53272,0.0483554
2583.56834,0.0484402
2582.60396,0.0484707
2581.63959,0.0484172
2580.67521,0.0483570
2579.71083,0.0482490
2578.74645,0.0480654
2577.78207,0.0479433
2576.81770,0.0478603
2575.85332,0.0477255
2574.88894,0.0476020
2573.92456,0.0475532
2572.96018,0.0475730
2571.99581,0.0476069
2571.03143,0.0476161
2570.06705,0.0476388
2569.10267,0.0477017
2568.13829,0.0477400
2567.17392,0.0477369
2566.20954,0.0477377
2565.24516,0.0476744
2564.28078,0.0475224
2563.31641,0.0473666
2562.35203,0.0472645
2561.38765,0.0472226
2560.42327,0.0471951
2559.45889,0.0472199
2558.49452,0.0473122
2557.53014,0.0473590
2556.56576,0.0473460
2555.60138,0.0473473
2554.63700,0.0473435
2553.67263,0.0472855
2552.70825,0.0471978
2551.74387,0.0471068
2550.77949,0.0470537
2549.81512,0.0470310
2548.85074,0.0469843
2547.88636,0.0469233
2546.92198,0.0468197
2545.95760,0.0466607
2544.99323,0.0464857
2544.02885,0.0463542
2543.06447,0.0462873
2542.10009,0.0462481
2541.13571,0.0462636
2540.17134,0.0463392
2539.20696,0.0464174
2538.24258,0.0464267
2537.27820,0.0463682
2536.31382,0.0462661
2535.34945,0.0461577
2534.38507,0.0461538
2533.42069,0.0462138
2532.45631,0.0462953
2531.49194,0.0463704
2530.52756,0.0463443
2529.56318,0.0462871
2528.59880,0.0462623
2527.63442,0.0461997
2526.67005,0.0460780
2525.70567,0.0459718
2524.74129,0.0458606
2523.77691,0.0457894
2522.81253,0.0458581
2521.84816,0.0459380
2520.88378,0.0459444
2519.91940,0.0458661
2518.95502,0.0457494
2517.99065,0.0456906
2517.02627,0.0457282
2516.06189,0.0458465
2515.09751,0.0459460
2514.13313,0.0460040
2513.16876,0.0459686
2512.20438,0.0458901
2511.24000,0.0458660
2510.27562,0.0457873
2509.31124,0.0456459
2508.34687,0.0455199
2507.38249,0.0454464
2506.41811,0.0453718
2505.45373,0.0453496
2504.48935,0.0454196
2503.52498,0.0454170
2502.56060,0.0453398
2501.59622,0.0452178
2500.63184,0.0451393
2499.66747,0.0451305
2498.70309,0.0450996
2497.73871,0.0451011
2496.77433,0.0451004
2495.80995,0.0450817
2494.84558,0.0450660
2493.88120,0.0450829
2492.91682,0.0451049
2491.95244,0.0450561
2490.98806,0.0450445
2490.02369,0.0450641
2489.05931,0.0450681
2488.09493,0.0450575
2487.13055,0.0450253
2486.16618,0.0449879
2485.20180,0.0449042
2484.23742,0.0448175
2483.27304,0.0447418
2482.30866,0.0446684
2481.34429,0.0446199
2480.37991,0.0446160
2479.41553,0.0446451
2478.45115,0.0446172
2477.48677,0.0445503
2476.52240,0.0444650
2475.55802,0.0443620
2474.59364,0.0442975
2473.62926,0.0442711
2472.66488,0.0442338
2471.70051,0.0441961
2470.73613,0.0442306
2469.77175,0.0442964
2468.80737,0.0443466
2467.84300,0.0443677
2466.87862,0.0443608
2465.91424,0.0443415
2464.94986,0.0442625
2463.98548,0.0441608
2463.02111,0.0440670
2462.05673,0.0439767
2461.09235,0.0438982
2460.12797,0.0438218
2459.16359,0.0437789
2458.19922,0.0437675
2457.23484,0.0437810
2456.27046,0.0438010
2455.30608,0.0437954
2454.34171,0.0437461
2453.37733,0.0436755
2452.41295,0.0436313
2451.44857,0.0435871
2450.48419,0.0435599
2449.51982,0.0435789
2448.55544,0.0436166
2447.59106,0.0436358
2446.62668,0.0436496
2445.66230,0.0437042
2444.69793,0.0437327
2443.73355,0.0436972
2442.76917,0.0436195
2441.80479,0.0435038
2440.84041,0.0433615
2439.87604,0.0432143
2438.91166,0.0431310
2437.94728,0.0431200
2436.98290,0.0431317
2436.01853,0.0431118
2435.05415,0.0430913
2434.08977,0.0431369
2433.12539,0.0431637
2432.16101,0.0431302
2431.19664,0.0430759
2430.23226,0.0430150
2429.26788,0.0429699
2428.30350,0.0429809
2427.33912,0.0430675
2426.37475,0.0431764
2425.41037,0.0432510
2424.44599,0.0432459
2423.48161,0.0431973
2422.51724,0.0431633
2421.55286,0.0430957
2420.58848,0.0429836
2419.62410,0.0428616
2418.65972,0.0427558
2417.69535,0.0426759
2416.73097,0.0426543
2415.76659,0.0427232
2414.80221,0.0428053
2413.83783,0.0428133
2412.87346,0.0427768
2411.90908,0.0428031
2410.94470,0.0428761
2409.98032,0.0429107
2409.01594,0.0428971
2408.05157,0.0428302
2407.08719,0.0427480
2406.12281,0.0426929
2405.15843,0.0427029
2404.19406,0.0427606
2403.22968,0.0427709
2402.26530,0.0427358
2401.30092,0.0427025
2400.33654,0.0426967
2399.37217,0.0426759
2398.40779,0.0425771
2397.44341,0.0424287
2396.47903,0.0422779
2395.51465,0.0421711
2394.55028,0.0421242
2393.58590,0.0421346
2392.62152,0.0421745
2391.65714,0.0421925
2390.69276,0.0422084
2389.72839,0.0422403
2388.76401,0.0422737
2387.79963,0.0422902
2386.83525,0.0422778
2385.87088,0.0422838
2384.90650,0.0423438
2383.94212,0.0424380
2382.97774,0.0425878
2382.01336,0.0428263
2381.04899,0.0431179
2380.08461,0.0434349
2379.12023,0.0438201
2378.15585,0.0443061
2377.19147,0.0448560
2376.22710,0.0454440
2375.26272,0.0460525
2374.29834,0.0466855
2373.33396,0.0473750
2372.36959,0.0480731
2371.40521,0.0487582
2370.44083,0.0494194
2369.47645,0.0500036
2368.51207,0.0505054
2367.54770,0.0509187
2366.58332,0.0512340
2365.61894,0.0514246
2364.65456,0.0515253
2363.69018,0.0516232
2362.72581,0.0517315
2361.76143,0.0518294
2360.79705,0.0518565
2359.83267,0.0517934
2358.86829,0.0516560
2357.90392,0.0514171
2356.93954,0.0510501
2355.97516,0.0505376
2355.01078,0.0498232
2354.04641,0.0488516
2353.08203,0.0477709
2352.11765,0.0467967
2351.15327,0.0460091
2350.18889,0.0454822
2349.22452,0.0452855
2348.26014,0.0454154
2347.29576,0.0458199
2346.33138,0.0464421
2345.36700,0.0471786
2344.40263,0.0478910
2343.43825,0.0484333
2342.47387,0.0487261
2341.50949,0.0488462
2340.54512,0.0488682
2339.58074,0.0488421
2338.61636,0.0488079
2337.65198,0.0487499
2336.68760,0.0486687
2335.72323,0.0485772
2334.75885,0.0484922
2333.79447,0.0483796
2332.83009,0.0482349
2331.86571,0.0481017
2330.90134,0.0479640
2329.93696,0.0477982
2328.97258,0.0475963
2328.00820,0.0474027
2327.04382,0.0472222
2326.07945,0.0470020
2325.11507,0.0467362
2324.15069,0.0464214
2323.18631,0.0460848
2322.22194,0.0457377
2321.25756,0.0453734
2320.29318,0.0450017
2319.32880,0.0446175
2318.36442,0.0442603
2317.40005,0.0439691
2316.43567,0.0437366
2315.47129,0.0435277
2314.50691,0.0433129
2313.54253,0.0430735
2312.57816,0.0428106
2311.61378,0.0425758
2310.64940,0.0423414
2309.68502,0.0420401
2308.72065,0.0417075
2307.75627,0.0414141
2306.79189,0.0411928
2305.82751,0.0410251
2304.86313,0.0408853
2303.89876,0.0407708
2302.93438,0.0406899
2301.97000,0.0406207
2301.00562,0.0405273
2300.04124,0.0404415
2299.07687,0.0403885
2298.11249,0.0403381
2297.14811,0.0402861
2296.18373,0.0402320
2295.21935,0.0401165
2294.25498,0.0399234
2293.29060,0.0397144
2292.32622,0.0395312
2291.36184,0.0393727
2290.39747,0.0391994
2289.43309,0.0390486
2288.46871,0.0389961
2287.50433,0.0390304
2286.53995,0.0390732
2285.57558,0.0390698
2284.61120,0.0390571
2283.64682,0.0389450
2282.68244,0.0387301
2281.71806,0.0385502
2280.75369,0.0383577
2279.78931,0.0381992
2278.82493,0.0381443
2277.86055,0.0382037
2276.89618,0.0383468
2275.93180,0.0384301
2274.96742,0.0384168
2274.00304,0.0383562
2273.03866,0.0383100
2272.07429,0.0382347
2271.10991,0.0381704
2270.14553,0.0380968
2269.18115,0.0379299
2268.21677,0.0378662
2267.25240,0.0378939
2266.28802,0.0380015
2265.32364,0.0381968
2264.35926,0.0383071
2263.39488,0.0382599
2262.43051,0.0380557
2261.46613,0.0379117
2260.50175,0.0378880
2259.53737,0.0379323
2258.57300,0.0379682
2257.60862,0.0379476
2256.64424,0.0380427
2255.67986,0.0381791
2254.71548,0.0383987
2253.75111,0.0386276
2252.78673,0.0385373
2251.82235,0.0381942
2250.85797,0.0378292
2249.89359,0.0375675
2248.92922,0.0374031
2247.96484,0.0374133
2247.00046,0.0374747
2246.03608,0.0374334
2245.07171,0.0374553
2244.10733,0.0375624
2243.14295,0.0377712
2242.17857,0.0379691
2241.21419,0.0379405
2240.24982,0.0377617
2239.28544,0.0376178
2238.32106,0.0374109
2237.35668,0.0372238
2236.39230,0.0370938
2235.42793,0.0368638
2234.46355,0.0365454
2233.49917,0.0363040
2232.53479,0.0362174
2231.57041,0.0362676
2230.60604,0.0363614
2229.64166,0.0363943
2228.67728,0.0363309
2227.71290,0.0363105
2226.74853,0.0362902
2225.78415,0.0362698
2224.81977,0.0362495
2223.85539,0.0362291
2222.89101,0.0362088
2221.92664,0.0361884
2220.96226,0.0361680
2219.99788,0.0361477
2219.03350,0.0361273
2218.06912,0.0361070
2217.10475,0.0360866
2216.14037,0.0360662
2215.17599,0.0360459
2214.21161,0.0360255
2213.24724,0.0360052
2212.28286,0.0359848
2211.31848,0.0359645
2210.35410,0.0359441
2209.38972,0.0359237
2208.42535,0.0359034
2207.46097,0.0358830
2206.49659,0.0358627
2205.53221,0.0358423
2204.56783,0.0358219
2203.60346,0.0358016
2202.63908,0.0357812
2201.67470,0.0357609
2200.71032,0.0357405
2199.74594,0.0357202
2198.78157,0.0356998
2197.81719,0.0356794
2196.85281,0.0356591
2195.88843,0.0356387
2194.92406,0.0356184
2193.95968,0.0355980
2192.99530,0.0355776
2192.03092,0.0355573
2191.06654,0.0355369
2190.10217,0.0355166
2189.13779,0.0354962
2188.17341,0.0354759
2187.20903,0.0354555
2186.24465,0.0354351
2185.28028,0.0354148
2184.31590,0.0353944
2183.35152,0.0353741
2182.38714,0.0353537
2181.42276,0.0353333
2180.45839,0.0353130
2179.49401,0.0352926
2178.52963,0.0352723
2177.56525,0.0352519
2176.60088,0.0352315
2175.63650,0.0352112
2174.67212,0.0351908
2173.70774,0.0351705
2172.74336,0.0351501
2171.77899,0.0351298
2170.81461,0.0351094
2169.85023,0.0350890
2168.88585,0.0350687
2167.92147,0.0350483
2166.95710,0.0350280
2165.99272,0.0350076
2165.02834,0.0349872
2164.06396,0.0349669
2163.09959,0.0349465
2162.13521,0.0349262
2161.17083,0.0349058
2160.20645,0.0348855
2159.24207,0.0348651
2158.27770,0.0348447
2157.31332,0.0348244
2156.34894,0.0348040
2155.38456,0.0347837
2154.42018,0.0347633
2153.45581,0.0347429
2152.49143,0.0347226
2151.52705,0.0347022
2150.56267,0.0346819
2149.59829,0.0346615
2148.63392,0.0346412
2147.66954,0.0346208
2146.70516,0.0346004
2145.74078,0.0345801
2144.77641,0.0345597
2143.81203,0.0345394
2142.84765,0.0345190
2141.88327,0.0344986
2140.91889,0.0344783
2139.95452,0.0344579
2138.99014,0.0344376
2138.02576,0.0344172
2137.06138,0.0343968
2136.09700,0.0343765
2135.13263,0.0343561
2134.16825,0.0343358
2133.20387,0.0343154
2132.23949,0.0342951
2131.27512,0.0342747
2130.31074,0.0342543
2129.34636,0.0342340
2128.38198,0.0342136
2127.41760,0.0341933
2126.45323,0.0341729
2125.48885,0.0341525
2124.52447,0.0341322
2123.56009,0.0341118
2122.59571,0.0340915
2121.63134,0.0340711
2120.66696,0.0340508
2119.70258,0.0340304
2118.73820,0.0340100
2117.77382,0.0339897
2116.80945,0.0339693
2115.84507,0.0339490
2114.88069,0.0339286
2113.91631,0.0339082
2112.95194,0.0338879
2111.98756,0.0338675
2111.02318,0.0338472
2110.05880,0.0338268
2109.09442,0.0338065
2108.13005,0.0337861
2107.16567,0.0337657
2106.20129,0.0337454
2105.23691,0.0337250
2104.27253,0.0337047
2103.30816,0.0336843
2102.34378,0.0336639
2101.37940,0.0336436
2100.41502,0.0336232
2099.45065,0.0336029
2098.48627,0.0335825
2097.52189,0.0335621
2096.55751,0.0335418
2095.59313,0.0335214
2094.62876,0.0335011
2093.66438,0.0334807
2092.70000,0.0334604
2091.73562,0.0334400
2090.77124,0.0334196
2089.80687,0.0333993
2088.84249,0.0333789
2087.87811,0.0333586
2086.91373,0.0333382
2085.94935,0.0333178
2084.98498,0.0332975
2084.02060,0.0332771
2083.05622,0.0332568
2082.09184,0.0332364
2081.12747,0.0332161
2080.16309,0.0331957
2079.19871,0.0331753
2078.23433,0.0331550
2077.26995,0.0331346
2076.30558,0.0331143
2075.34120,0.0330939
2074.37682,0.0330735
2073.41244,0.0330532
2072.44806,0.0330328
2071.48369,0.0330125
2070.51931,0.0329921
2069.55493,0.0329718
2068.59055,0.0329514
2067.62618,0.0329310
2066.66180,0.0329107
2065.69742,0.0328903
2064.73304,0.0328700
2063.76866,0.0328496
2062.80429,0.0328292
2061.83991,0.0328089
2060.87553,0.0327885
2059.91115,0.0327682
2058.94677,0.0327478
2057.98240,0.0327274
2057.01802,0.0327071
2056.05364,0.0326867
2055.08926,0.0326664
2054.12488,0.0326460
2053.16051,0.0326257
2052.19613,0.0326053
2051.23175,0.0325849
2050.26737,0.0325646
2049.30300,0.0325442
2048.33862,0.0325239
2047.37424,0.0325035
2046.40986,0.0324831
2045.44548,0.0324628
2044.48111,0.0324424
2043.51673,0.0324221
2042.55235,0.0324017
2041.58797,0.0323814
2040.62359,0.0323610
2039.65922,0.0323406
2038.69484,0.0323203
2037.73046,0.0322999
2036.76608,0.0322796
2035.80171,0.0322592
2034.83733,0.0322388
2033.87295,0.0322185
2032.90857,0.0321981
2031.94419,0.0321778
2030.97982,0.0321574
2030.01544,0.0321371
2029.05106,0.0321167
2028.08668,0.0320963
2027.12230,0.0320760
2026.15793,0.0320556
2025.19355,0.0320353
2024.22917,0.0320149
2023.26479,0.0319945
2022.30041,0.0319742
2021.33604,0.0319538
2020.37166,0.0319335
2019.40728,0.0319131
2018.44290,0.0318927
2017.47853,0.0318724
2016.51415,0.0318520
2015.54977,0.0318317
2014.58539,0.0318113
2013.62101,0.0317910
2012.65664,0.0317706
2011.69226,0.0317502
2010.72788,0.0317299
2009.76350,0.0317095
2008.79912,0.0316892
2007.83475,0.0316688
2006.87037,0.0316484
2005.90599,0.0316281
2004.94161,0.0316077
2003.97724,0.0315874
2003.01286,0.0315670
2002.04848,0.0315467
2001.08410,0.0315263
2000.11972,0.0315059
1999.15535,0.0314856
1998.19097,0.0314652
1997.22659,0.0314449
1996.26221,0.0314245
1995.29783,0.0314041
1994.33346,0.0313838
1993.36908,0.0313634
1992.40470,0.0313431
1991.44032,0.0313227
1990.47594,0.0313024
1989.51157,0.0312820
1988.54719,0.0312616
1987.58281,0.0312413
1986.61843,0.0312209
1985.65406,0.0312006
1984.68968,0.0311802
1983.72530,0.0311598
1982.76092,0.0311395
1981.79654,0.0311191
1980.83217,0.0310988
1979.86779,0.0310784
1978.90341,0.0310580
1977.93903,0.0310377
1976.97465,0.0310173
1976.01028,0.0309970
1975.04590,0.0309766
1974.08152,0.0309563
1973.11714,0.0309359
1972.15276,0.0309155
1971.18839,0.0308952
1970.22401,0.0308748
1969.25963,0.0308545
1968.29525,0.0308341
1967.33088,0.0308137
1966.36650,0.0307934
1965.40212,0.0307730
1964.43774,0.0307527
1963.47336,0.0307323
1962.50899,0.0307120
1961.54461,0.0306916
1960.58023,0.0306712
1959.61585,0.0306509
1958.65147,0.0306305
1957.68710,0.0306102
1956.72272,0.0305898
1955.75834,0.0305694
1954.79396,0.0305491
1953.82959,0.0305287
1952.86521,0.0305084
1951.90083,0.0304880
1950.93645,0.0304676
1949.97207,0.0304473
1949.00770,0.0304269
1948.04332,0.0304066
1947.07894,0.0303862
1946.11456,0.0303659
1945.15018,0.0303455
1944.18581,0.0303251
1943.22143,0.0303048
1942.25705,0.0302844
1941.29267,0.0302641
1940.32829,0.0302437
1939.36392,0.0302233
1938.39954,0.0302030
1937.43516,0.0301468
1936.47078,0.0301190
1935.50641,0.0301995
1934.54203,0.0302344
1933.57765,0.0301975
1932.61327,0.0301860
1931.64889,0.0301417
1930.68452,0.0300468
1929.72014,0.0299748
1928.75576,0.0299883
1927.79138,0.0301077
1926.82700,0.0302845
1925.86263,0.0304585
1924.89825,0.0306278
1923.93387,0.0307878
1922.96949,0.0309272
1922.00512,0.0311064
1921.04074,0.0312482
1920.07636,0.0312525
1919.11198,0.0311971
1918.14760,0.0311253
1917.18323,0.0310252
1916.21885,0.0309152
1915.25447,0.0307602
1914.29009,0.0305509
1913.32571,0.0303247
1912.36134,0.0301435
1911.39696,0.0301066
1910.43258,0.0301315
1909.46820,0.0301364
1908.50382,0.0302259
1907.53945,0.0303901
1906.57507,0.0305184
1905.61069,0.0305603
1904.64631,0.0305715
1903.68194,0.0305383
1902.71756,0.0304493
1901.75318,0.0304401
1900.78880,0.0304144
1899.82442,0.0302870
1898.86005,0.0301702
1897.89567,0.0301005
1896.93129,0.0300743
1895.96691,0.0300781
1895.00253,0.0301606
1894.03816,0.0302908
1893.07378,0.0303584
1892.10940,0.0302887
1891.14502,0.0301773
1890.18065,0.0302090
1889.21627,0.0302391
1888.25189,0.0302126
1887.28751,0.0302265
1886.32313,0.0301956
1885.35876,0.0301255
1884.39438,0.0301090
1883.43000,0.0301814
1882.46562,0.0302059
1881.50124,0.0300786
1880.53687,0.0299092
1879.57249,0.0298100
1878.60811,0.0297776
1877.64373,0.0297386
1876.67935,0.0297071
1875.71498,0.0296833
1874.75060,0.0297009
1873.78622,0.0298486
1872.82184,0.0300607
1871.85747,0.0302381
1870.89309,0.0303259
1869.92871,0.0303585
1868.96433,0.0303832
1867.99995,0.0303383
1867.03558,0.0301956
1866.07120,0.0300224
1865.10682,0.0298835
1864.14244,0.0298077
1863.17806,0.0298383
1862.21369,0.0299455
1861.24931,0.0300536
1860.28493,0.0301466
1859.32055,0.0302072
1858.35618,0.0302268
1857.39180,0.0302333
1856.42742,0.0302378
1855.46304,0.0302165
1854.49866,0.0301798
1853.53429,0.0301677
1852.56991,0.0301862
1851.60553,0.0301645
1850.64115,0.0301132
1849.67677,0.0302323
1848.71240,0.0305358
1847.74802,0.0308599
1846.78364,0.0311532
1845.81926,0.0314114
1844.85488,0.0316073
1843.89051,0.0316692
1842.92613,0.0316041
1841.96175,0.0315004
1840.99737,0.0313406
1840.03300,0.0310908
1839.06862,0.0308799
1838.10424,0.0308489
1837.13986,0.0308780
1836.17548,0.0308513
1835.21111,0.0308913
1834.24673,0.0310456
1833.28235,0.0312489
1832.31797,0.0314228
1831.35359,0.0315392
1830.38922,0.0316944
1829.42484,0.0318916
1828.46046,0.0320741
1827.49608,0.0322070
1826.53171,0.0322476
1825.56733,0.0322238
1824.60295,0.0321688
1823.63857,0.0321632
1822.67419,0.0322087
1821.70982,0.0322093
1820.74544,0.0321302
1819.78106,0.0320017
1818.81668,0.0319588
1817.85230,0.0319887
1816.88793,0.0320162
1815.92355,0.0320710
1814.95917,0.0321432
1813.99479,0.0322279
1813.03041,0.0322877
1812.06604,0.0323540
1811.10166,0.0324514
1810.13728,0.0325228
1809.17290,0.0325452
1808.20853,0.0325248
1807.24415,0.0325398
1806.27977,0.0325815
1805.31539,0.0326668
1804.35101,0.0328471
1803.38664,0.0330151
1802.42226,0.0331228
1801.45788,0.0332200
1800.49350,0.0333147
1799.52912,0.0333153
1798.56475,0.0332661
1797.60037,0.0333380
1796.63599,0.0335203
1795.67161,0.0337672
1794.70724,0.0340179
1793.74286,0.0342251
1792.77848,0.0343805
1791.81410,0.0344176
1790.84972,0.0343813
1789.88535,0.0343881
1788.92097,0.0343943
1787.95659,0.0343261
1786.99221,0.0343198
1786.02783,0.0345239
1785.06346,0.0348417
1784.09908,0.0351490
1783.13470,0.0354152
1782.17032,0.0355951
1781.20594,0.0357247
1780.24157,0.0358325
1779.27719,0.0358774
1778.31281,0.0360405
1777.34843,0.0364482
1776.38406,0.0369588
1775.41968,0.0374437
1774.45530,0.0378556
1773.49092,0.0382782
1772.52654,0.0387177
1771.56217,0.0390666
1770.59779,0.0392815
1769.63341,0.0393810
1768.66903,0.0393288
1767.70465,0.0391724
1766.74028,0.0392877
1765.77590,0.0397059
1764.81152,0.0400843
1763.84714,0.0403266
1762.88276,0.0404942
1761.91839,0.0408075
1760.95401,0.0412358
1759.98963,0.0415679
1759.02525,0.0418150
1758.06088,0.0419168
1757.09650,0.0419804
1756.13212,0.0422859
1755.16774,0.0427838
1754.20336,0.0432429
1753.23899,0.0435981
1752.27461,0.0438968
1751.31023,0.0441601
1750.34585,0.0444081
1749.38147,0.0445671
1748.41710,0.0446260
1747.45272,0.0446135
1746.48834,0.0444587
1745.52396,0.0444196
1744.55959,0.0446952
1743.59521,0.0449865
1742.63083,0.0451998
1741.66645,0.0453328
1740.70207,0.0452963
1739.73770,0.0453466
1738.77332,0.0457101
1737.80894,0.0462273
1736.84456,0.0466593
1735.88018,0.0468889
1734.91581,0.0469599
1733.95143,0.0469885
1732.98705,0.0469769
1732.02267,0.0467569
1731.05829,0.0463035
1730.09392,0.0456630
1729.12954,0.0449734
1728.16516,0.0446079
1727.20078,0.0445907
1726.23641,0.0445790
1725.27203,0.0443978
1724.30765,0.0441147
1723.34327,0.0440076
1722.37889,0.0442388
1721.41452,0.0445836
1720.45014,0.0448685
1719.48576,0.0451423
1718.52138,0.0453074
1717.55700,0.0452988
1716.59263,0.0451373
1715.62825,0.0447834
1714.66387,0.0442583
1713.69949,0.0435380
1712.73512,0.0427457
1711.77074,0.0422040
1710.80636,0.0420055
1709.84198,0.0418897
1708.87760,0.0418133
1707.91323,0.0417621
1706.94885,0.0414288
1705.98447,0.0411649
1705.02009,0.0414174
1704.05571,0.0418573
1703.09134,0.0420655
1702.12696,0.0419040
1701.16258,0.0418807
1700.19820,0.0421701
1699.23382,0.0423484
1698.26945,0.0422454
1697.30507,0.0418318
1696.34069,0.0410660
1695.37631,0.0400865
1694.41194,0.0394082
1693.44756,0.0391360
1692.48318,0.0387217
1691.51880,0.0378769
1690.55442,0.0370859
1689.59005,0.0372167
1688.62567,0.0379299
1687.66129,0.0384904
1686.69691,0.0387968
1685.73253,0.0389104
1684.76816,0.0388943
1683.80378,0.0387214
1682.83940,0.0383464
1681.87502,0.0377090
1680.91065,0.0369501
1679.94627,0.0363126
1678.98189,0.0359647
1678.01751,0.0360089
1677.05313,0.0361377
1676.08876,0.0361245
1675.12438,0.0360213
1674.16000,0.0360592
1673.19562,0.0361935
1672.23124,0.0361768
1671.26687,0.0360204
1670.30249,0.0357414
1669.33811,0.0355268
1668.37373,0.0355020
1667.40935,0.0354815
1666.44498,0.0353697
1665.48060,0.0352194
1664.51622,0.0350801
1663.55184,0.0350126
1662.58747,0.0351104
1661.62309,0.0351531
1660.65871,0.0350046
1659.69433,0.0347427
1658.72995,0.0346390
1657.76558,0.0352067
1656.80120,0.0362631
1655.83682,0.0373004
1654.87244,0.0380025
1653.90806,0.0383901
1652.94369,0.0385522
1651.97931,0.0384947
1651.01493,0.0384043
1650.05055,0.0381679
1649.08618,0.0376607
1648.12180,0.0370927
1647.15742,0.0368688
1646.19304,0.0371671
1645.22866,0.0374379
1644.26429,0.0373906
1643.29991,0.0371797
1642.33553,0.0369101
1641.37115,0.0367531
1640.40677,0.0371187
1639.44240,0.0379624
1638.47802,0.0387765
1637.51364,0.0393874
1636.54926,0.0398411
1635.58488,0.0401551
1634.62051,0.0403035
1633.65613,0.0403420
1632.69175,0.0403455
1631.72737,0.0403015
1630.76300,0.0402065
1629.79862,0.0402471
1628.83424,0.0407637
1627.86986,0.0414578
1626.90548,0.0420192
1625.94111,0.0425060
1624.97673,0.0429016
1624.01235,0.0431770
1623.04797,0.0432468
1622.08359,0.0435185
1621.11922,0.0441572
1620.15484,0.0447449
1619.19046,0.0451746
1618.22608,0.0454929
1617.26171,0.0458475
1616.29733,0.0461546
1615.33295,0.0463071
1614.36857,0.0463631
1613.40419,0.0462976
1612.43982,0.0461437
1611.47544,0.0460262
1610.51106,0.0462575
1609.54668,0.0466948
1608.58230,0.0470082
1607.61793,0.0472711
1606.65355,0.0475241
1605.68917,0.0477833
1604.72479,0.0480248
1603.76041,0.0482600
1602.79604,0.0485107
1601.83166,0.0487608
1600.86728,0.0490437
1599.90290,0.0493485
1598.93853,0.0496450
1597.97415,0.0499200
1597.00977,0.0501958
1596.04539,0.0504716
1595.08101,0.0507603
1594.11664,0.0510421
1593.15226,0.0512808
1592.18788,0.0514942
1591.22350,0.0517007
1590.25912,0.0519079
1589.29475,0.0520881
1588.33037,0.0522577
1587.36599,0.0523961
1586.40161,0.0525052
1585.43724,0.0525852
1584.47286,0.0526321
1583.50848,0.0526067
1582.54410,0.0524236
1581.57972,0.0524568
1580.61535,0.0528626
1579.65097,0.0532835
1578.68659,0.0535649
1577.72221,0.0536991
1576.75783,0.0536552
1575.79346,0.0534172
1574.82908,0.0531853
1573.86470,0.0529609
1572.90032,0.0525739
1571.93594,0.0519715
1570.97157,0.0512888
1570.00719,0.0509748
1569.04281,0.0508880
1568.07843,0.0505997
1567.11406,0.0500457
1566.14968,0.0493176
1565.18530,0.0487481
1564.22092,0.0485707
1563.25654,0.0489693
1562.29217,0.0496529
1561.32779,0.0500062
1560.36341,0.0499935
1559.39903,0.0498934
1558.43465,0.0497201
1557.47028,0.0492215
1556.50590,0.0482983
1555.54152,0.0470585
1554.57714,0.0458067
1553.61276,0.0448788
1552.64839,0.0442343
1551.68401,0.0437893
1550.71963,0.0434071
1549.75525,0.0429318
1548.79088,0.0424447
1547.82650,0.0421750
1546.86212,0.0420958
1545.89774,0.0419330
1544.93336,0.0419143
1543.96899,0.0423257
1543.00461,0.0428241
1542.04023,0.0430421
1541.07585,0.0428663
1540.11147,0.0423457
1539.14710,0.0417538
1538.18272,0.0412214
1537.21834,0.0405194
1536.25396,0.0397500
1535.28959,0.0390460
1534.32521,0.0383382
1533.36083,0.0379670
1532.39645,0.0379099
1531.43207,0.0377716
1530.46770,0.0375615
1529.50332,0.0373002
1528.53894,0.0369630
1527.57456,0.0367267
1526.61018,0.0368147
1525.64581,0.0371487
1524.68143,0.0374608
1523.71705,0.0375389
1522.75267,0.0374818
1521.78829,0.0374650
1520.82392,0.0373554
1519.85954,0.0371571
1518.89516,0.0368621
1517.93078,0.0364101
1516.96641,0.0358868
1516.00203,0.0353922
1515.03765,0.0351470
1514.07327,0.0350433
1513.10889,0.0348288
1512.14452,0.0347083
1511.18014,0.0350517
1510.21576,0.0357609
1509.25138,0.0363776
1508.28700,0.0367266
1507.32263,0.0368002
1506.35825,0.0366952
1505.39387,0.0364002
1504.42949,0.0358948
1503.46512,0.0353096
1502.50074,0.0345945
1501.53636,0.0340972
1500.57198,0.0341487
1499.60760,0.0345227
1498.64323,0.0349189
1497.67885,0.0350732
1496.71447,0.0350090
1495.75009,0.0349226
1494.78571,0.0348829
1493.82134,0.0348101
1492.85696,0.0347571
1491.89258,0.0347830
1490.92820,0.0347865
1489.96382,0.0349346
1488.99945,0.0351508
1488.03507,0.0351802
1487.07069,0.0350833
1486.10631,0.0349115
1485.14194,0.0347505
1484.17756,0.0347034
1483.21318,0.0347150
1482.24880,0.0347193
1481.28442,0.0348501
1480.32005,0.0350758
1479.35567,0.0352411
1478.39129,0.0354862
1477.42691,0.0359064
1476.46253,0.0364298
1475.49816,0.0369084
1474.53378,0.0372673
1473.56940,0.0375104
1472.60502,0.0375978
1471.64065,0.0375055
1470.67627,0.0373500
1469.71189,0.0373715
1468.74751,0.0374151
1467.78313,0.0374038
1466.81876,0.0375557
1465.85438,0.0378089
1464.89000,0.0380803
1463.92562,0.0382258
1462.96124,0.0382974
1461.99687,0.0386765
1461.03249,0.0393291
1460.06811,0.0399581
1459.10373,0.0405145
1458.13935,0.0410654
1457.17498,0.0414498
1456.21060,0.0416090
1455.24622,0.0415686
1454.28184,0.0412915
1453.31747,0.0409526
1452.35309,0.0406506
1451.38871,0.0405238
1450.42433,0.0407854
1449.45995,0.0411948
1448.49558,0.0414732
1447.53120,0.0416754
1446.56682,0.0418629
1445.60244,0.0420256
1444.63806,0.0421655
1443.67369,0.0421712
1442.70931,0.0421581
1441.74493,0.0424997
1440.78055,0.0431055
1439.81618,0.0436514
1438.85180,0.0440871
1437.88742,0.0444380
1436.92304,0.0446888
1435.95866,0.0448666
1434.99429,0.0449943
1434.02991,0.0450643
1433.06553,0.0450407
1432.10115,0.0449311
1431.13677,0.0449091
1430.17240,0.0451312
1429.20802,0.0454247
1428.24364,0.0456252
1427.27926,0.0457933
1426.31488,0.0458502
1425.35051,0.0458486
1424.38613,0.0461017
1423.42175,0.0465671
1422.45737,0.0470357
1421.49300,0.0474246
1420.52862,0.0477176
1419.56424,0.0478933
1418.59986,0.0479553
1417.63548,0.0479732
1416.67111,0.0479289
1415.70673,0.0477829
1414.74235,0.0475262
1413.77797,0.0473601
1412.81359,0.0474800
1411.84922,0.0476418
1410.88484,0.0477387
1409.92046,0.0478746
1408.95608,0.0480274
1407.99171,0.0481641
1407.02733,0.0482762
1406.06295,0.0483518
1405.09857,0.0484160
1404.13419,0.0485473
1403.16982,0.0487129
1402.20544,0.0488529
1401.24106,0.0489442
1400.27668,0.0490165
1399.31230,0.0492036
1398.34793,0.0494552
1397.38355,0.0496332
1396.41917,0.0497132
1395.45479,0.0497147
1394.49041,0.0496203
1393.52604,0.0494974
1392.56166,0.0495237
1391.59728,0.0496252
1390.63290,0.0496756
1389.66853,0.0496908
1388.70415,0.0497487
1387.73977,0.0498992
1386.77539,0.0499999
1385.81101,0.0500086
1384.84664,0.0499781
1383.88226,0.0499214
1382.91788,0.0498551
1381.95350,0.0498136
1380.98912,0.0498832
1380.02475,0.0500015
1379.06037,0.0501210
1378.09599,0.0502695
1377.13161,0.0504129
1376.16724,0.0505378
1375.20286,0.0506097
1374.23848,0.0506459
1373.27410,0.0506765
1372.30972,0.0506885
1371.34535,0.0506839
1370.38097,0.0506356
1369.41659,0.0505631
1368.45221,0.0505581
1367.48783,0.0506603
1366.52346,0.0508154
1365.55908,0.0509681
1364.59470,0.0510881
1363.63032,0.0511746
1362.66594,0.0512486
1361.70157,0.0512925
1360.73719,0.0513000
1359.77281,0.0512938
1358.80843,0.0512670
1357.84406,0.0512251
1356.87968,0.0512274
1355.91530,0.0512771
1354.95092,0.0513407
1353.98654,0.0514130
1353.02217,0.0514704
1352.05779,0.0515204
1351.09341,0.0515592
1350.12903,0.0515928
1349.16465,0.0516536
1348.20028,0.0517212
1347.23590,0.0517675
1346.27152,0.0517848
1345.30714,0.0518206
1344.34276,0.0519082
1343.37839,0.0520197
1342.41401,0.0521361
1341.44963,0.0522559
1340.48525,0.0523763
1339.52088,0.0524785
1338.55650,0.0525750
1337.59212,0.0526634
1336.62774,0.0527192
1335.66336,0.0527451
1334.69899,0.0527572
1333.73461,0.0528011
1332.77023,0.0528827
1331.80585,0.0529801
1330.84147,0.0530832
1329.87710,0.0531926
1328.91272,0.0533133
1327.94834,0.0534218
1326.98396,0.0535263
1326.01959,0.0536402
1325.05521,0.0537706
1324.09083,0.0539226
1323.12645,0.0540795
1322.16207,0.0542474
1321.19770,0.0544208
1320.23332,0.0545947
1319.26894,0.0547629
1318.30456,0.0549227
1317.34018,0.0550881
1316.37581,0.0552371
1315.41143,0.0553734
1314.44705,0.0555185
1313.48267,0.0556755
1312.51829,0.0558479
1311.55392,0.0560229
1310.58954,0.0562011
1309.62516,0.0563882
1308.66078,0.0565842
1307.69641,0.0567880
1306.73203,0.0569968
1305.76765,0.0572129
1304.80327,0.0574315
1303.83889,0.0576553
1302.87452,0.0578841
1301.91014,0.0581159
1300.94576,0.0583506
1299.98138,0.0585782
1299.01700,0.0588004
1298.05263,0.0590163
1297.08825,0.0592294
1296.12387,0.0594473
1295.15949,0.0596615
1294.19512,0.0598745
1293.23074,0.0601022
1292.26636,0.0603456
1291.30198,0.0605791
1290.33760,0.0607967
1289.37323,0.0610115
1288.40885,0.0612253
1287.44447,0.0614334
1286.48009,0.0616280
1285.51571,0.0618244
1284.55134,0.0620253
1283.58696,0.0622228
1282.62258,0.0624289
1281.65820,0.0626438
1280.69382,0.0628498
1279.72945,0.0630207
1278.76507,0.0631725
1277.80069,0.0633367
1276.83631,0.0635022
1275.87194,0.0636566
1274.90756,0.0638087
1273.94318,0.0639619
1272.97880,0.0641009
1272.01442,0.0642346
1271.05005,0.0643757
1270.08567,0.0645143
1269.12129,0.0646418
1268.15691,0.0647489
1267.19253,0.0648521
1266.22816,0.0649624
1265.26378,0.0650727
1264.29940,0.0651894
1263.33502,0.0653158
1262.37065,0.0654380
1261.40627,0.0655432
1260.44189,0.0656543
1259.47751,0.0657740
1258.51313,0.0658770
1257.54876,0.0659657
1256.58438,0.0660486
1255.62000,0.0661344
1254.65562,0.0662178
1253.69124,0.0662907
1252.72687,0.0663641
1251.76249,0.0664331
1250.79811,0.0664854
1249.83373,0.0665292
1248.86935,0.0665764
1247.90498,0.0666202
1246.94060,0.0666542
1245.97622,0.0666885
1245.01184,0.0667323
1244.04747,0.0667871
1243.08309,0.0668392
1242.11871,0.0668827
1241.15433,0.0669203
1240.18995,0.0669396
1239.22558,0.0669498
1238.26120,0.0669660
1237.29682,0.0669813
1236.33244,0.0670014
1235.36806,0.0670267
1234.40369,0.0670410
1233.43931,0.0670463
1232.47493,0.0670507
1231.51055,0.0670446
1230.54618,0.0670278
1229.58180,0.0669993
1228.61742,0.0669488
1227.65304,0.0668900
1226.68866,0.0668224
1225.72429,0.0667293
1224.75991,0.0666270
1223.79553,0.0665263
1222.83115,0.0664111
1221.86677,0.0662860
1220.90240,0.0661642
1219.93802,0.0660399
1218.97364,0.0659189
1218.00926,0.0658021
1217.04488,0.0656845
1216.08051,0.0655571
1215.11613,0.0654079
1214.15175,0.0652490
1213.18737,0.0650931
1212.22300,0.0649460
1211.25862,0.0647976
1210.29424,0.0646551
1209.32986,0.0645210
1208.36548,0.0643734
1207.40111,0.0642351
1206.43673,0.0641181
1205.47235,0.0640133
1204.50797,0.0639009
1203.54359,0.0637780
1202.57922,0.0636737
1201.61484,0.0635711
1200.65046,0.0634667
1199.68608,0.0633652
1198.72171,0.0632721
1197.75733,0.0631890
1196.79295,0.0630989
1195.82857,0.0630216
1194.86419,0.0629568
1193.89982,0.0629120
1192.93544,0.0628904
1191.97106,0.0628668
1191.00668,0.0628431
1190.04230,0.0628149
1189.07793,0.0627888
1188.11355,0.0627695
1187.14917,0.0627448
1186.18479,0.0626987
1185.22041,0.0626313
1184.25604,0.0625482
1183.29166,0.0624520
1182.32728,0.0623848
1181.36290,0.0623420
1180.39853,0.0622831
1179.43415,0.0622145
1178.46977,0.0621538
1177.50539,0.0621047
1176.54101,0.0620557
1175.57664,0.0619971
1174.61226,0.0619316
1173.64788,0.0618774
1172.68350,0.0618162
1171.71912,0.0617220
1170.75475,0.0616263
1169.79037,0.0615491
1168.82599,0.0614676
1167.86161,0.0613681
1166.89724,0.0612682
1165.93286,0.0611639
1164.96848,0.0610556
1164.00410,0.0609601
1163.03972,0.0608622
1162.07535,0.0607470
1161.11097,0.0606008
1160.14659,0.0604325
1159.18221,0.0602631
1158.21783,0.0600989
1157.25346,0.0599400
1156.28908,0.0597880
1155.32470,0.0596576
1154.36032,0.0595351
1153.39594,0.0594120
1152.43157,0.0592853
1151.46719,0.0591410
1150.50281,0.0589901
1149.53843,0.0588419
1148.57406,0.0587098
1147.60968,0.0585764
1146.64530,0.0584278
1145.68092,0.0582918
1144.71654,0.0581728
1143.75217,0.0580694
1142.78779,0.0579702
1141.82341,0.0578562
1140.85903,0.0577327
1139.89465,0.0576192
1138.93028,0.0575245
1137.96590,0.0574395
1137.00152,0.0573746
1136.03714,0.0573338
1135.07276,0.0572939
1134.10839,0.0572463
1133.14401,0.0572027
1132.17963,0.0571702
1131.21525,0.0571253
1130.25088,0.0570533
1129.28650,0.0569802
1128.32212,0.0569192
1127.35774,0.0568630
1126.39336,0.0568070
1125.42899,0.0567557
1124.46461,0.0567210
1123.50023,0.0566834
1122.53585,0.0566265
1121.57147,0.0565790
1120.60710,0.0565538
1119.64272,0.0565256
1118.67834,0.0564807
1117.71396,0.0564355
1116.74959,0.0563964
1115.78521,0.0563597
1114.82083,0.0563388
1113.85645,0.0563433
1112.89207,0.0563690
1111.92770,0.0564002
1110.96332,0.0564272
1109.99894,0.0564595
1109.03456,0.0565065
1108.07018,0.0565445
1107.10581,0.0565505
1106.14143,0.0565547
1105.17705,0.0565670
1104.21267,0.0565711
1103.24829,0.0565966
1102.28392,0.0566559
1101.31954,0.0567191
1100.35516,0.0567721
1099.39078,0.0568113
1098.42641,0.0568442
1097.46203,0.0568992
1096.49765,0.0569833
1095.53327,0.0570827
1094.56889,0.0571944
1093.60452,0.0572948
1092.64014,0.0573732
1091.67576,0.0574663
1090.71138,0.0575813
1089.74700,0.0576857
1088.78263,0.0577633
1087.81825,0.0578302
1086.85387,0.0578943
1085.88949,0.0579602
1084.92512,0.0580490
1083.96074,0.0581435
1082.99636,0.0582259
1082.03198,0.0582966
1081.06760,0.0583609
1080.10323,0.0584465
1079.13885,0.0585491
1078.17447,0.0586492
1077.21009,0.0587372
1076.24571,0.0588218
1075.28134,0.0589052
1074.31696,0.0589796
1073.35258,0.0590748
1072.38820,0.0591772
1071.42382,0.0592743
1070.45945,0.0593713
1069.49507,0.0594539
1068.53069,0.0595407
1067.56631,0.0596221
1066.60194,0.0596944
1065.63756,0.0597666
1064.67318,0.0598501
1063.70880,0.0599512
1062.74442,0.0600501
1061.78005,0.0601804
1060.81567,0.0603257
1059.85129,0.0604495
1058.88691,0.0605632
1057.92253,0.0606477
1056.95816,0.0607173
1055.99378,0.0607698
1055.02940,0.0607773
1054.06502,0.0607450
1053.10065,0.0606802
1052.13627,0.0605909
1051.17189,0.0604757
1050.20751,0.0603265
1049.24313,0.0601211
1048.27876,0.0598700
1047.31438,0.0596025
1046.35000,0.0593044
1045.38562,0.0589874
1044.42124,0.0586699
1043.45687,0.0583335
1042.49249,0.0579806
1041.52811,0.0576273
1040.56373,0.0572669
1039.59935,0.0568829
1038.63498,0.0564721
1037.67060,0.0560602
1036.70622,0.0556683
1035.74184,0.0552863
1034.77747,0.0549045
1033.81309,0.0545287
1032.84871,0.0541792
1031.88433,0.0538421
1030.91995,0.0534884
1029.95558,0.0531242
1028.99120,0.0527374
1028.02682,0.0523331
1027.06244,0.0519533
1026.09806,0.0516037
1025.13369,0.0512726
1024.16931,0.0509633
1023.20493,0.0506691
1022.24055,0.0503763
1021.27618,0.0500911
1020.31180,0.0498095
1019.34742,0.0495216
1018.38304,0.0492398
1017.41866,0.0489726
1016.45429,0.0487233
1015.48991,0.0484890
1014.52553,0.0482617
1013.56115,0.0480455
1012.59677,0.0478389
1011.63240,0.0476322
1010.66802,0.0474232
1009.70364,0.0472174
1008.73926,0.0470306
1007.77488,0.0468692
1006.81051,0.0467331
1005.84613,0.0466338
1004.88175,0.0465472
1003.91737,0.0464441
1002.95300,0.0463389
1001.98862,0.0462383
1001.02424,0.0461351
1000.05986,0.0460289
999.09548,0.0459238
998.13111,0.0458282
997.16673,0.0457587
996.20235,0.0457120
995.23797,0.0456653
994.27359,0.0456164
993.30922,0.0455675
992.34484,0.0455256
991.38046,0.0454754
990.41608,0.0453845
989.45171,0.0452672
988.48733,0.0451321
987.52295,0.0449947
986.55857,0.0448923
985.59419,0.0448168
984.62982,0.0447397
983.66544,0.0446403
982.70106,0.0445165
981.73668,0.0443871
980.77230,0.0442766
979.80793,0.0441640
978.84355,0.0440003
977.87917,0.0438202
976.91479,0.0436734
975.95041,0.0435653
974.98604,0.0434881
974.02166,0.0434114
973.05728,0.0433358
972.09290,0.0432496
971.12853,0.0431234
970.16415,0.0429746
969.19977,0.0428353
968.23539,0.0427059
967.27101,0.0425535
966.30664,0.0424044
965.34226,0.0422803
964.37788,0.0421445
963.41350,0.0420034
962.44912,0.0418708
961.48475,0.0417386
960.52037,0.0415922
959.55599,0.0414294
958.59161,0.0412315
957.62724,0.0410020
956.66286,0.0408191
955.69848,0.0406849
954.73410,0.0405570
953.76972,0.0404280
952.80535,0.0402986
951.84097,0.0401768
950.87659,0.0400503
949.91221,0.0399341
948.94783,0.0398258
947.98346,0.0396739
947.01908,0.0394580
946.05470,0.0392403
945.09032,0.0390839
944.12594,0.0389487
943.16157,0.0388112
942.19719,0.0386802
941.23281,0.0385474
940.26843,0.0384214
939.30406,0.0382992
938.33968,0.0381775
937.37530,0.0380368
936.41092,0.0378734
935.44654,0.0377205
934.48217,0.0375818
933.51779,0.0374356
932.55341,0.0372867
931.58903,0.0371585
930.62465,0.0370376
929.66028,0.0369204
928.69590,0.0368135
927.73152,0.0367024
926.76714,0.0366044
925.80276,0.0365342
924.83839,0.0364701
923.87401,0.0364061
922.90963,0.0363483
921.94525,0.0362800
920.98088,0.0362068
920.01650,0.0361292
919.05212,0.0360282
918.08774,0.0359215
917.12336,0.0358163
916.15899,0.0357080
915.19461,0.0355864
914.23023,0.0354632
913.26585,0.0353728
912.30147,0.0353027
911.33710,0.0352430
910.37272,0.0352066
909.40834,0.0352029
908.44396,0.0352087
907.47959,0.0352186
906.51521,0.0352592
905.55083,0.0352872
904.58645,0.0352669
903.62207,0.0352301
902.65770,0.0352201
901.69332,0.0352345
900.72894,0.0352367
899.76456,0.0352365
898.80018,0.0352587
897.83581,0.0353055
896.87143,0.0353552
895.90705,0.0353937
894.94267,0.0354334
893.97829,0.0354747
893.01392,0.0355114
892.04954,0.0355425
891.08516,0.0355670
890.12078,0.0356031
889.15641,0.0356786
888.19203,0.0357463
887.22765,0.0357840
886.26327,0.0358421
885.29889,0.0358938
884.33452,0.0359216
883.37014,0.0359700
882.40576,0.0360416
881.44138,0.0360979
880.47700,0.0361392
879.51263,0.0362021
878.54825,0.0362901
877.58387,0.0363789
876.61949,0.0364220
875.65512,0.0364331
874.69074,0.0364523
873.72636,0.0364620
872.76198,0.0364807
871.79760,0.0365375
870.83323,0.0366332
869.86885,0.0367300
868.90447,0.0368013
867.94009,0.0368837
866.97571,0.0369688
866.01134,0.0370213
865.04696,0.0370405
864.08258,0.0370349
863.11820,0.0370268
862.15382,0.0370419
861.18945,0.0370687
860.22507,0.0371082
859.26069,0.0371769
858.29631,0.0372176
857.33194,0.0372197
856.36756,0.0372294
855.40318,0.0372225
854.43880,0.0371978
853.47442,0.0371799
852.51005,0.0371446
851.54567,0.0370894
850.58129,0.0370512
849.61691,0.0370371
848.65253,0.0370414
847.68816,0.0370652
846.72378,0.0370934
845.75940,0.0371215
844.79502,0.0371375
843.83065,0.0371295
842.86627,0.0371140
841.90189,0.0370701
840.93751,0.0369563
839.97313,0.0368107
839.00876,0.0367112
838.04438,0.0366608
837.08000,0.0366069
836.11562,0.0365493
835.15124,0.0365221
834.18687,0.0364912
833.22249,0.0364211
832.25811,0.0363471
831.29373,0.0362731
830.32935,0.0361485
829.36498,0.0359735
828.40060,0.0358409
827.43622,0.0357861
826.47184,0.0357323
825.50747,0.0356552
824.54309,0.0356089
823.57871,0.0356072
822.61433,0.0355847
821.64995,0.0355356
820.68558,0.0355143
819.72120,0.0354850
818.75682,0.0354194
817.79244,0.0353437
816.82806,0.0352668
815.86369,0.0351993
814.89931,0.0351328
813.93493,0.0350741
812.97055,0.0350602
812.00618,0.0350610
811.04180,0.0350297
810.07742,0.0350042
809.11304,0.0350159
808.14866,0.0350317
807.18429,0.0350413
806.21991,0.0350344
805.25553,0.0349777
804.29115,0.0349086
803.32677,0.0348391
802.36240,0.0347438
801.39802,0.0346652
800.43364,0.0345975
799.46926,0.0345222
798.50488,0.0344492
797.54051,0.0343952
796.57613,0.0343901
795.61175,0.0344014
794.64737,0.0344070
793.68300,0.0343643
792.71862,0.0342685
791.75424,0.0341969
790.78986,0.0341342
789.82548,0.0340625
788.86111,0.0340129
787.89673,0.0339796
786.93235,0.0339200
785.96797,0.0339001
785.00359,0.0339623
784.03922,0.0339913
783.07484,0.0340080
782.11046,0.0340257
781.14608,0.0340409
780.18171,0.0340935
779.21733,0.0340858
778.25295,0.0340362
777.28857,0.0340090
776.32419,0.0339701
775.35982,0.0339164
774.39544,0.0338816
773.43106,0.0338799
772.46668,0.0338850
771.50230,0.0339076
770.53793,0.0339416
769.57355,0.0339813
768.60917,0.0340013
767.64479,0.0339865
766.68041,0.0340114
765.71604,0.0340514
764.75166,0.0340750
763.78728,0.0341077
762.82290,0.0341353
761.85853,0.0341674
760.89415,0.0341895
759.92977,0.0341691
758.96539,0.0341344
758.00101,0.0341051
757.03664,0.0340549
756.07226,0.0340205
755.10788,0.0340521
754.14350,0.0341150
753.17912,0.0341728
752.21475,0.0342199
751.25037,0.0342505
750.28599,0.0342515
749.32161,0.0342338
748.35724,0.0342441
747.39286,0.0342998
746.42848,0.0343298
745.46410,0.0343012
744.49972,0.0342612
743.53535,0.0342393
742.57097,0.0342682
741.60659,0.0343207
740.64221,0.0343878
739.67783,0.0344900
738.71346,0.0345606
737.74908,0.0345872
736.78470,0.0346307
735.82032,0.0346971
734.85594,0.0347330
733.89157,0.0347131
732.92719,0.0346449
731.96281,0.0345941
730.99843,0.0346364
730.03406,0.0347193
729.06968,0.0348182
728.10530,0.0349309
727.14092,0.0349719
726.17654,0.0349633
725.21217,0.0350383
724.24779,0.0352188
723.28341,0.0354166
722.31903,0.0355274
721.35465,0.0355281
720.39028,0.0355093
719.42590,0.0354861
718.46152,0.0354438
717.49714,0.0354184
716.53276,0.0353907
715.56839,0.0353236
714.60401,0.0352631
713.63963,0.0352874
712.67525,0.0353623
711.71088,0.0354324
710.74650,0.0354667
709.78212,0.0354623
708.81774,0.0354541
707.85336,0.0354339
706.88899,0.0354340
705.92461,0.0354551
704.96023,0.0354563
703.99585,0.0354359
703.03147,0.0354096
702.06710,0.0354017
701.10272,0.0354046
700.13834,0.0354246
699.17396,0.0354523
698.20959,0.0354934
697.24521,0.0355320
696.28083,0.0355425
695.31645,0.0355722
694.35207,0.0356036
693.38770,0.0356480
692.42332,0.0357123
691.45894,0.0357582
690.49456,0.0357948
689.53018,0.0358257
688.56581,0.0358667
687.60143,0.0359238
686.63705,0.0360075
685.67267,0.0360811
684.70829,0.0361247
683.74392,0.0361622
682.77954,0.0361958
681.81516,0.0362350
680.85078,0.0362466
679.88641,0.0362506
678.92203,0.0362585
677.95765,0.0362673
676.99327,0.0362670
676.02889,0.0362437
675.06452,0.0360716
674.10014,0.0356820
673.13576,0.0359362
672.17138,0.0370195
671.20700,0.0380871
670.24263,0.0388439
669.27825,0.0393008
668.31387,0.0395134
667.34949,0.0394539
666.38512,0.0390814
665.42074,0.0384526
664.45636,0.0375615
663.49198,0.0364680
662.52760,0.0355855
661.56323,0.0356380
660.59885,0.0361279
659.63447,0.0362742
658.67009,0.0362895
657.70571,0.0363046
656.74134,0.0363221
655.77696,0.0363359
654.81258,0.0363320
653.84820,0.0363507
652.88382,0.0363486
651.91945,0.0363503
650.95507,0.0363698
649.99069,0.0363657
649.02631,0.0363156
648.06194,0.0362635
647.09756,0.0362190
646.13318,0.0361665
645.16880,0.0361429
644.20442,0.0361280
643.24005,0.0361321
642.27567,0.0361476
641.31129,0.0361917
640.34691,0.0362857
639.38253,0.0363643
638.41816,0.0364021
637.45378,0.0364246
636.48940,0.0364655
635.52502,0.0364684
634.56065,0.0364338
633.59627,0.0363498
632.63189,0.0361252
631.66751,0.0358906
630.70313,0.0356663
629.73876,0.0353719
628.77438,0.0349476
627.81000,0.0342035
626.84562,0.0335558
625.88124,0.0335702
624.91687,0.0340439
623.95249,0.0348770
622.98811,0.0361980
622.02373,0.0371210
621.05935,0.0374901
620.09498,0.0378895
619.13060,0.0382237
618.16622,0.0386519
617.20184,0.0389823
616.23747,0.0386699
615.27309,0.0380981
614.30871,0.0376459
613.34433,0.0371194
612.37995,0.0368567
611.41558,0.0369247
610.45120,0.0363831
609.48682,0.0356284
608.52244,0.0352828
607.55806,0.0352452
606.59369,0.0358013
605.62931,0.0367167
604.66493,0.0373496
603.70055,0.0376442
602.73618,0.0379544
601.77180,0.0384270
600.80742,0.0391606
599.84304,0.0399471
598.87866,0.0403126
597.91429,0.0403466
596.94991,0.0402409
595.98553,0.0400656
595.02115,0.0400814
594.05677,0.0403315
593.09240,0.0404476
592.12802,0.0404414
591.16364,0.0405219
590.19926,0.0405560
589.23488,0.0405429
588.27051,0.0404639
587.30613,0.0402639
586.34175,0.0400656
585.37737,0.0399303
584.41300,0.0399212
583.44862,0.0400349
582.48424,0.0401054
581.51986,0.0400942
580.55548,0.0401023
579.59111,0.0400400
578.62673,0.0398570
577.66235,0.0396954
576.69797,0.0395316
575.73359,0.0392997
574.76922,0.0390116
573.80484,0.0387119
572.84046,0.0385083
571.87608,0.0383465
570.91171,0.0381219
569.94733,0.0379616
568.98295,0.0379756
568.01857,0.0380267
567.05419,0.0380073
566.08982,0.0379676
565.12544,0.0378851
564.16106,0.0377276
563.19668,0.0375233
562.23230,0.0372902
561.26793,0.0370781
560.30355,0.0368761
559.33917,0.0367309
558.37479,0.0367393
557.41041,0.0368187
556.44604,0.0368536
555.48166,0.0368205
554.51728,0.0368124
553.55290,0.0368430
552.58853,0.0368631
551.62415,0.0368586
550.65977,0.0367608
549.69539,0.0367091
548.73101,0.0367779
547.76664,0.0368554
546.80226,0.0368628
545.83788,0.0367683
544.87350,0.0366851
543.90912,0.0365860
542.94475,0.0364608
541.98037,0.0363565
541.01599,0.0362411
540.05161,0.0361329
539.08724,0.0360192
538.12286,0.0360166
537.15848,0.0361188
536.19410,0.0362433
535.22972,0.0363913
534.26535,0.0365240
533.30097,0.0366682
532.33659,0.0367196
531.37221,0.0366945
530.40783,0.0366571
529.44346,0.0365434
528.47908,0.0364077
527.51470,0.0362926
526.55032,0.0362003
525.58594,0.0360713
524.62157,0.0359475
523.65719,0.0358665
522.69281,0.0358164
521.72843,0.0358056
520.76406,0.0357189
519.79968,0.0356512
518.83530,0.0356743
517.87092,0.0357488
516.90654,0.0358997
515.94217,0.0360416
514.97779,0.0361045
514.01341,0.0360073
513.04903,0.0358467
512.08465,0.0357684
511.12028,0.0357024
510.15590,0.0355858
509.19152,0.0354332
508.22714,0.0353903
507.26276,0.0354919
506.29839,0.0356694
505.33401,0.0358784
504.36963,0.0359623
503.40525,0.0359016
502.44088,0.0357703
501.47650,0.0356065
500.51212,0.0354491
499.54774,0.0352530
498.58336,0.0350475
497.61899,0.0349231
496.65461,0.0348875
495.69023,0.0348909
494.72585,0.0349339
493.76147,0.0350387
492.79710,0.0351028
491.83272,0.0351230
490.86834,0.0351607
489.90396,0.0351833
488.93959,0.0352088
487.97521,0.0352062
487.01083,0.0351746
486.04645,0.0351759
485.08207,0.0351562
484.11770,0.0350748
483.15332,0.0350045
482.18894,0.0349804
481.22456,0.0349408
480.26018,0.0348733
479.29581,0.0347671
478.33143,0.0346960
477.36705,0.0347864
476.40267,0.0349176
475.43829,0.0349860
474.47392,0.0350201
473.50954,0.0350080
472.54516,0.0349535
471.58078,0.0348893
470.61641,0.0348113
469.65203,0.0347027
468.68765,0.0346141
467.72327,0.0345437
466.75889,0.0345296
465.79452,0.0346327
464.83014,0.0346823
463.86576,0.0346429
462.90138,0.0347057
461.93700,0.0348912
460.97263,0.0350950
460.00825,0.0352579
459.04387,0.0353398
458.07949,0.0353194
457.11512,0.0352495
456.15074,0.0351354
455.18636,0.0349655
454.22198,0.0347562
453.25760,0.0344864
452.29323,0.0343151
451.32885,0.0343389
450.36447,0.0343906
449.40009,0.0344124
448.43571,0.0344388
447.47134,0.0344588
446.50696,0.0344174
445.54258,0.0343581
444.57820,0.0343577
443.61382,0.0343523
442.64945,0.0343360
441.68507,0.0343372
440.72069,0.0343600
439.75631,0.0343540
438.79194,0.0342831
437.82756,0.0342286
436.86318,0.0341883
435.89880,0.0341002
434.93442,0.0339255
433.97005,0.0337294
433.00567,0.0335691
432.04129,0.0334064
431.07691,0.0332830
430.11253,0.0332018
429.14816,0.0331372
428.18378,0.0331237
427.21940,0.0331795
426.25502,0.0332064
425.29065,0.0331677
424.32627,0.0332453
423.36189,0.0335124
422.39751,0.0338285
421.43313,0.0340133
420.46876,0.0340570
419.50438,0.0340006
418.54000,0.0338054
417.57562,0.0334876
416.61124,0.0331453
415.64687,0.0328219
414.68249,0.0323885
413.71811,0.0320121
412.75373,0.0319471
411.78935,0.0320524
410.82498,0.0321428
409.86060,0.0321310
408.89622,0.0320591
407.93184,0.0319702
406.96747,0.0318672
406.00309,0.0316878
405.03871,0.0314659
404.07433,0.0314659
403.10995,0.0314659
402.14558,0.0314659
401.18120,0.0314659
400.21682,0.0314659
399.25244,0.0314659
