3998.31069,0.0521927
3997.34631,0.0521927
3996.38194,0.0521927
3995.41756,0.0521927
3994.45318,0.0521927
3993.48880,0.0521927
3992.52442,0.0521927
3991.56005,0.0521481
3990.59567,0.0521026
3989.63129,0.0521269
3988.66691,0.0521627
3987.70253,0.0521327
3986.73816,0.0520308
3985.77378,0.0519007
3984.80940,0.0517736
3983.84502,0.0517546
3982.88065,0.0518400
3981.91627,0.0519507
3980.95189,0.0519940
3979.98751,0.0519227
3979.02313,0.0519002
3978.05876,0.0519613
3977.09438,0.0520268
3976.13000,0.0520454
3975.16562,0.0520109
3974.20124,0.0520114
3973.23687,0.0520228
3972.27249,0.0520484
3971.30811,0.0521086
3970.34373,0.0521115
3969.37935,0.0520182
3968.41498,0.0519049
3967.45060,0.0518628
3966.48622,0.0518599
3965.52184,0.0518408
3964.55747,0.0517973
3963.59309,0.0517819
3962.62871,0.0517914
3961.66433,0.0517903
3960.69995,0.0518638
3959.73558,0.0519482
3958.77120,0.0519488
3957.80682,0.0518908
3956.84244,0.0517957
3955.87806,0.0517221
3954.91369,0.0516659
3953.94931,0.0516119
3952.98493,0.0516075
3952.02055,0.0516586
3951.05618,0.0516948
3950.09180,0.0517247
3949.12742,0.0517910
3948.16304,0.0518410
3947.19866,0.0519133
3946.23429,0.0520255
3945.26991,0.0520915
3944.30553,0.0520779
3943.34115,0.0520304
3942.37677,0.0520075
3941.41240,0.0520033
3940.44802,0.0519771
3939.48364,0.0518582
3938.51926,0.0516965
3937.55488,0.0516147
3936.59051,0.0516021
3935.62613,0.0516568
3934.66175,0.0517900
3933.69737,0.0518808
3932.73300,0.0518280
3931.76862,0.0517406
3930.80424,0.0516815
3929.83986,0.0516331
3928.87548,0.0516305
3927.91111,0.0515799
3926.94673,0.0514709
3925.98235,0.0514163
3925.01797,0.0514152
3924.05359,0.0514716
3923.08922,0.0516001
3922.12484,0.0517515
3921.16046,0.0518702
3920.19608,0.0519477
3919.23171,0.0520376
3918.26733,0.0521806
3917.30295,0.0522938
3916.33857,0.0522829
3915.37419,0.0522220
3914.40982,0.0521854
3913.44544,0.0520852
3912.48106,0.0519096
3911.51668,0.0517393
3910.55230,0.0516180
3909.58793,0.0515958
3908.62355,0.0516178
3907.65917,0.0517384
3906.69479,0.0519601
3905.73041,0.0520773
3904.76604,0.0522025
3903.80166,0.0524268
3902.83728,0.0525827
3901.87290,0.0525472
3900.90853,0.0523134
3899.94415,0.0520040
3898.97977,0.0517103
3898.01539,0.0514913
3897.05101,0.0514088
3896.08664,0.0515541
3895.12226,0.0517779
3894.15788,0.0519136
3893.19350,0.0520878
3892.22912,0.0522138
3891.26475,0.0523327
3890.30037,0.0525142
3889.33599,0.0525663
3888.37161,0.0525002
3887.40724,0.0522850
3886.44286,0.0520080
3885.47848,0.0519768
3884.51410,0.0521375
3883.54972,0.0521869
3882.58535,0.0520579
3881.62097,0.0517827
3880.65659,0.0514456
3879.69221,0.0513636
3878.72783,0.0515109
3877.76346,0.0515683
3876.79908,0.0514244
3875.83470,0.0512578
3874.87032,0.0514354
3873.90594,0.0519330
3872.94157,0.0524078
3871.97719,0.0526403
3871.01281,0.0526710
3870.04843,0.0527218
3869.08406,0.0528252
3868.11968,0.0528510
3867.15530,0.0527853
3866.19092,0.0526177
3865.22654,0.0523185
3864.26217,0.0520686
3863.29779,0.0519768
3862.33341,0.0519129
3861.36903,0.0516290
3860.40465,0.0511618
3859.44028,0.0511440
3858.47590,0.0516889
3857.51152,0.0523993
3856.54714,0.0531010
3855.58276,0.0537522
3854.61839,0.0542286
3853.65401,0.0543468
3852.68963,0.0541255
3851.72525,0.0536429
3850.76088,0.0529404
3849.79650,0.0520410
3848.83212,0.0512344
3847.86774,0.0508744
3846.90336,0.0507149
3845.93899,0.0507118
3844.97461,0.0508123
3844.01023,0.0508710
3843.04585,0.0511704
3842.08147,0.0516211
3841.11710,0.0519762
3840.15272,0.0522516
3839.18834,0.0524911
3838.22396,0.0526735
3837.25959,0.0527289
3836.29521,0.0526218
3835.33083,0.0523865
3834.36645,0.0521024
3833.40207,0.0516844
3832.43770,0.0513282
3831.47332,0.0513305
3830.50894,0.0513509
3829.54456,0.0511849
3828.58018,0.0509334
3827.61581,0.0506380
3826.65143,0.0504946
3825.68705,0.0506334
3824.72267,0.0509220
3823.75829,0.0511379
3822.79392,0.0511421
3821.82954,0.0511863
3820.86516,0.0516182
3819.90078,0.0521774
3818.93641,0.0525151
3817.97203,0.0525536
3817.00765,0.0522792
3816.04327,0.0519647
3815.07889,0.0518424
3814.11452,0.0516901
3813.15014,0.0513652
3812.18576,0.0510497
3811.22138,0.0508425
3810.25700,0.0508905
3809.29263,0.0511435
3808.32825,0.0511795
3807.36387,0.0511557
3806.39949,0.0513900
3805.43512,0.0517039
3804.47074,0.0519176
3803.50636,0.0519006
3802.54198,0.0517448
3801.57760,0.0517098
3800.61323,0.0518290
3799.64885,0.0518497
3798.68447,0.0516273
3797.72009,0.0512765
3796.75571,0.0508655
3795.79134,0.0506228
3794.82696,0.0506405
3793.86258,0.0505898
3792.89820,0.0503752
3791.93382,0.0501170
3790.96945,0.0499363
3790.00507,0.0498299
3789.04069,0.0496894
3788.07631,0.0495378
3787.11194,0.0494584
3786.14756,0.0494565
3785.18318,0.0494969
3784.21880,0.0496234
3783.25442,0.0498148
3782.29005,0.0499744
3781.32567,0.0500862
3780.36129,0.0501188
3779.39691,0.0500926
3778.43253,0.0500627
3777.46816,0.0499471
3776.50378,0.0497428
3775.53940,0.0496414
3774.57502,0.0496982
3773.61065,0.0498275
3772.64627,0.0500003
3771.68189,0.0501913
3770.71751,0.0503700
3769.75313,0.0504877
3768.78876,0.0505392
3767.82438,0.0505878
3766.86000,0.0505648
3765.89562,0.0503628
3764.93124,0.0501615
3763.96687,0.0501487
3763.00249,0.0502161
3762.03811,0.0502600
3761.07373,0.0502993
3760.10935,0.0503665
3759.14498,0.0503487
3758.18060,0.0502964
3757.21622,0.0504673
3756.25184,0.0506704
3755.28747,0.0508622
3754.32309,0.0512551
3753.35871,0.0517300
3752.39433,0.0520282
3751.42995,0.0519031
3750.46558,0.0516712
3749.50120,0.0518433
3748.53682,0.0521426
3747.57244,0.0522201
3746.60806,0.0521871
3745.64369,0.0521588
3744.67931,0.0519364
3743.71493,0.0516312
3742.75055,0.0514110
3741.78618,0.0511402
3740.82180,0.0507687
3739.85742,0.0502986
3738.89304,0.0500597
3737.92866,0.0503694
3736.96429,0.0509078
3735.99991,0.0513410
3735.03553,0.0515473
3734.07115,0.0514882
3733.10677,0.0511634
3732.14240,0.0507261
3731.17802,0.0503816
3730.21364,0.0501762
3729.24926,0.0500246
3728.28488,0.0498374
3727.32051,0.0496888
3726.35613,0.0497233
3725.39175,0.0499222
3724.42737,0.0501381
3723.46300,0.0502842
3722.49862,0.0502577
3721.53424,0.0500483
3720.56986,0.0498631
3719.60548,0.0496915
3718.64111,0.0494126
3717.67673,0.0492701
3716.71235,0.0494225
3715.74797,0.0496613
3714.78359,0.0498399
3713.81922,0.0500234
3712.85484,0.0502362
3711.89046,0.0503407
3710.92608,0.0502849
3709.96171,0.0501677
3708.99733,0.0499940
3708.03295,0.0496929
3707.06857,0.0494053
3706.10419,0.0494086
3705.13982,0.0495703
3704.17544,0.0496197
3703.21106,0.0496511
3702.24668,0.0496873
3701.28230,0.0496250
3700.31793,0.0495120
3699.35355,0.0494443
3698.38917,0.0493619
3697.42479,0.0491686
3696.46041,0.0490421
3695.49604,0.0490848
3694.53166,0.0492218
3693.56728,0.0495190
3692.60290,0.0499412
3691.63853,0.0503426
3690.67415,0.0506527
3689.70977,0.0508404
3688.74539,0.0509063
3687.78101,0.0508519
3686.81664,0.0506311
3685.85226,0.0503330
3684.88788,0.0500657
3683.92350,0.0497261
3682.95912,0.0493671
3681.99475,0.0492411
3681.03037,0.0494412
3680.06599,0.0498922
3679.10161,0.0504221
3678.13724,0.0508224
3677.17286,0.0511124
3676.20848,0.0515110
3675.24410,0.0519575
3674.27972,0.0523296
3673.31535,0.0525648
3672.35097,0.0525227
3671.38659,0.0522896
3670.42221,0.0520722
3669.45783,0.0520168
3668.49346,0.0520434
3667.52908,0.0519258
3666.56470,0.0516930
3665.60032,0.0515637
3664.63594,0.0516660
3663.67157,0.0517863
3662.70719,0.0518483
3661.74281,0.0521085
3660.77843,0.0525103
3659.81406,0.0529007
3658.84968,0.0532244
3657.88530,0.0534544
3656.92092,0.0536602
3655.95654,0.0538571
3654.99217,0.0541391
3654.02779,0.0545374
3653.06341,0.0549659
3652.09903,0.0554007
3651.13465,0.0558587
3650.17028,0.0563981
3649.20590,0.0567964
3648.24152,0.0568860
3647.27714,0.0568283
3646.31276,0.0567013
3645.34839,0.0565733
3644.38401,0.0564870
3643.41963,0.0564614
3642.45525,0.0566101
3641.49088,0.0569765
3640.52650,0.0574341
3639.56212,0.0578226
3638.59774,0.0581607
3637.63336,0.0584431
3636.66899,0.0586037
3635.70461,0.0586716
3634.74023,0.0588219
3633.77585,0.0592602
3632.81147,0.0598414
3631.84710,0.0603625
3630.88272,0.0608330
3629.91834,0.0612003
3628.95396,0.0614061
3627.98959,0.0615416
3627.02521,0.0616508
3626.06083,0.0615994
3625.09645,0.0614136
3624.13207,0.0613264
3623.16770,0.0615220
3622.20332,0.0619535
3621.23894,0.0623291
3620.27456,0.0625519
3619.31018,0.0626396
3618.34581,0.0626284
3617.38143,0.0626951
3616.41705,0.0627567
3615.45267,0.0626920
3614.48829,0.0626377
3613.52392,0.0627019
3612.55954,0.0628790
3611.59516,0.0630493
3610.63078,0.0631475
3609.66641,0.0631536
3608.70203,0.0630525
3607.73765,0.0629060
3606.77327,0.0628098
3605.80889,0.0628217
3604.84452,0.0627694
3603.88014,0.0626644
3602.91576,0.0626417
3601.95138,0.0625596
3600.98700,0.0625227
3600.02263,0.0626256
3599.05825,0.0627695
3598.09387,0.0629742
3597.12949,0.0631739
3596.16512,0.0632929
3595.20074,0.0633738
3594.23636,0.0635558
3593.27198,0.0638000
3592.30760,0.0639933
3591.34323,0.0641302
3590.37885,0.0641544
3589.41447,0.0641690
3588.45009,0.0641790
3587.48571,0.0641129
3586.52134,0.0640532
3585.55696,0.0639627
3584.59258,0.0638205
3583.62820,0.0637402
3582.66382,0.0638228
3581.69945,0.0639622
3580.73507,0.0640781
3579.77069,0.0642186
3578.80631,0.0643194
3577.84194,0.0643432
3576.87756,0.0642781
3575.91318,0.0641369
3574.94880,0.0639607
3573.98442,0.0638740
3573.02005,0.0639748
3572.05567,0.0641605
3571.09129,0.0643957
3570.12691,0.0646421
3569.16253,0.0649051
3568.19816,0.0652274
3567.23378,0.0654894
3566.26940,0.0656043
3565.30502,0.0655752
3564.34065,0.0654795
3563.37627,0.0653928
3562.41189,0.0653701
3561.44751,0.0654011
3560.48313,0.0654108
3559.51876,0.0654033
3558.55438,0.0653854
3557.59000,0.0654261
3556.62562,0.0655422
3555.66124,0.0656303
3554.69687,0.0656793
3553.73249,0.0657667
3552.76811,0.0659737
3551.80373,0.0662551
3550.83935,0.0665223
3549.87498,0.0667759
3548.91060,0.0669966
3547.94622,0.0671652
3546.98184,0.0673496
3546.01747,0.0675632
3545.05309,0.0677346
3544.08871,0.0678639
3543.12433,0.0679969
3542.15995,0.0681636
3541.19558,0.0683521
3540.23120,0.0685406
3539.26682,0.0686871
3538.30244,0.0687659
3537.33806,0.0688330
3536.37369,0.0689227
3535.40931,0.0690543
3534.44493,0.0691788
3533.48055,0.0692725
3532.51618,0.0694063
3531.55180,0.0695934
3530.58742,0.0698079
3529.62304,0.0700193
3528.65866,0.0702673
3527.69429,0.0704977
3526.72991,0.0706675
3525.76553,0.0708761
3524.80115,0.0710812
3523.83677,0.0712765
3522.87240,0.0714392
3521.90802,0.0715213
3520.94364,0.0716292
3519.97926,0.0717702
3519.01488,0.0718907
3518.05051,0.0720224
3517.08613,0.0722322
3516.12175,0.0724516
3515.15737,0.0726264
3514.19300,0.0728525
3513.22862,0.0730887
3512.26424,0.0732541
3511.29986,0.0733339
3510.33548,0.0733790
3509.37111,0.0734716
3508.40673,0.0735899
3507.44235,0.0737260
3506.47797,0.0739042
3505.51359,0.0741127
3504.54922,0.0742638
3503.58484,0.0743588
3502.62046,0.0745108
3501.65608,0.0746579
3500.69171,0.0747588
3499.72733,0.0748681
3498.76295,0.0749666
3497.79857,0.0750387
3496.83419,0.0750810
3495.86982,0.0751265
3494.90544,0.0751913
3493.94106,0.0752574
3492.97668,0.0753165
3492.01230,0.0753776
3491.04793,0.0755022
3490.08355,0.0756846
3489.11917,0.0759102
3488.15479,0.0761523
3487.19041,0.0763193
3486.22604,0.0764149
3485.26166,0.0764824
3484.29728,0.0765920
3483.33290,0.0767529
3482.36853,0.0769015
3481.40415,0.0770367
3480.43977,0.0771571
3479.47539,0.0773185
3478.51101,0.0774990
3477.54664,0.0776076
3476.58226,0.0776703
3475.61788,0.0776995
3474.65350,0.0777306
3473.68912,0.0778146
3472.72475,0.0779033
3471.76037,0.0779479
3470.79599,0.0779901
3469.83161,0.0780458
3468.86724,0.0781233
3467.90286,0.0782725
3466.93848,0.0784407
3465.97410,0.0785935
3465.00972,0.0787352
3464.04535,0.0788537
3463.08097,0.0789877
3462.11659,0.0791338
3461.15221,0.0792479
3460.18783,0.0792973
3459.22346,0.0793138
3458.25908,0.0793314
3457.29470,0.0793699
3456.33032,0.0794487
3455.36594,0.0795393
3454.40157,0.0796322
3453.43719,0.0796655
3452.47281,0.0796610
3451.50843,0.0797262
3450.54406,0.0798079
3449.57968,0.0798467
3448.61530,0.0798508
3447.65092,0.0798623
3446.68654,0.0799332
3445.72217,0.0800505
3444.75779,0.0801753
3443.79341,0.0803087
3442.82903,0.0804741
3441.86465,0.0806263
3440.90028,0.0807292
3439.93590,0.0807648
3438.97152,0.0806942
3438.00714,0.0806068
3437.04276,0.0805798
3436.07839,0.0805353
3435.11401,0.0804684
3434.14963,0.0804282
3433.18525,0.0804229
3432.22088,0.0804892
3431.25650,0.0806038
3430.29212,0.0807225
3429.32774,0.0808100
3428.36336,0.0808183
3427.39899,0.0807937
3426.43461,0.0808200
3425.47023,0.0809161
3424.50585,0.0810118
3423.54147,0.0810627
3422.57710,0.0810944
3421.61272,0.0811235
3420.64834,0.0811646
3419.68396,0.0811842
3418.71959,0.0811557
3417.75521,0.0810948
3416.79083,0.0810379
3415.82645,0.0810259
3414.86207,0.0810387
3413.89770,0.0810642
3412.93332,0.0811196
3411.96894,0.0812030
3411.00456,0.0812656
3410.04018,0.0812708
3409.07581,0.0812653
3408.11143,0.0812758
3407.14705,0.0812741
3406.18267,0.0812539
3405.21829,0.0812416
3404.25392,0.0812509
3403.28954,0.0812550
3402.32516,0.0812285
3401.36078,0.0812302
3400.39641,0.0812661
3399.43203,0.0812531
3398.46765,0.0812456
3397.50327,0.0812959
3396.53889,0.0813651
3395.57452,0.0814265
3394.61014,0.0814634
3393.64576,0.0814996
3392.68138,0.0815108
3391.71700,0.0814766
3390.75263,0.0814594
3389.78825,0.0814780
3388.82387,0.0814683
3387.85949,0.0814237
3386.89512,0.0814122
3385.93074,0.0813990
3384.96636,0.0813726
3384.00198,0.0813934
3383.03760,0.0814546
3382.07323,0.0815007
3381.10885,0.0814648
3380.14447,0.0814115
3379.18009,0.0814207
3378.21571,0.0814334
3377.25134,0.0813871
3376.28696,0.0812957
3375.32258,0.0812234
3374.35820,0.0811601
3373.39382,0.0810876
3372.42945,0.0810195
3371.46507,0.0809392
3370.50069,0.0808711
3369.53631,0.0808234
3368.57194,0.0808021
3367.60756,0.0808115
3366.64318,0.0808290
3365.67880,0.0808666
3364.71442,0.0809218
3363.75005,0.0809723
3362.78567,0.0809817
3361.82129,0.0809567
3360.85691,0.0809240
3359.89253,0.0808866
3358.92816,0.0808691
3357.96378,0.0808378
3356.99940,0.0808136
3356.03502,0.0808200
3355.07065,0.0807985
3354.10627,0.0807832
3353.14189,0.0807556
3352.17751,0.0806569
3351.21313,0.0805381
3350.24876,0.0804597
3349.28438,0.0804071
3348.32000,0.0803240
3347.35562,0.0802240
3346.39124,0.0801456
3345.42687,0.0801366
3344.46249,0.0802196
3343.49811,0.0803259
3342.53373,0.0803924
3341.56935,0.0804067
3340.60498,0.0804116
3339.64060,0.0804321
3338.67622,0.0804363
3337.71184,0.0803668
3336.74747,0.0802164
3335.78309,0.0800743
3334.81871,0.0799965
3333.85433,0.0799849
3332.88995,0.0800066
3331.92558,0.0799994
3330.96120,0.0799506
3329.99682,0.0799252
3329.03244,0.0799419
3328.06806,0.0799333
3327.10369,0.0798745
3326.13931,0.0797652
3325.17493,0.0796499
3324.21055,0.0795639
3323.24618,0.0795035
3322.28180,0.0794671
3321.31742,0.0794123
3320.35304,0.0793795
3319.38866,0.0793700
3318.42429,0.0793301
3317.45991,0.0792660
3316.49553,0.0791715
3315.53115,0.0790819
3314.56677,0.0790184
3313.60240,0.0789971
3312.63802,0.0789883
3311.67364,0.0789527
3310.70926,0.0789178
3309.74488,0.0788636
3308.78051,0.0788190
3307.81613,0.0787979
3306.85175,0.0787840
3305.88737,0.0787706
3304.92300,0.0787417
3303.95862,0.0787466
3302.99424,0.0787733
3302.02986,0.0787951
3301.06548,0.0787806
3300.10111,0.0787005
3299.13673,0.0785998
3298.17235,0.0784885
3297.20797,0.0783798
3296.24359,0.0783053
3295.27922,0.0782717
3294.31484,0.0782457
3293.35046,0.0782465
3292.38608,0.0783011
3291.42171,0.0783514
3290.45733,0.0784080
3289.49295,0.0784326
3288.52857,0.0783775
3287.56419,0.0782930
3286.59982,0.0781631
3285.63544,0.0779940
3284.67106,0.0778536
3283.70668,0.0777534
3282.74230,0.0776714
3281.77793,0.0776453
3280.81355,0.0776859
3279.84917,0.0777331
3278.88479,0.0777523
3277.92041,0.0776996
3276.95604,0.0775996
3275.99166,0.0775037
3275.02728,0.0773671
3274.06290,0.0772168
3273.09853,0.0771212
3272.13415,0.0770416
3271.16977,0.0769968
3270.20539,0.0770623
3269.24101,0.0771499
3268.27664,0.0771762
3267.31226,0.0772152
3266.34788,0.0772787
3265.38350,0.0773068
3264.41912,0.0772674
3263.45475,0.0771373
3262.49037,0.0769649
3261.52599,0.0768124
3260.56161,0.0766701
3259.59724,0.0765481
3258.63286,0.0764390
3257.66848,0.0763147
3256.70410,0.0762506
3255.73972,0.0762893
3254.77535,0.0763341
3253.81097,0.0763463
3252.84659,0.0763431
3251.88221,0.0762978
3250.91783,0.0762592
3249.95346,0.0762520
3248.98908,0.0762009
3248.02470,0.0760889
3247.06032,0.0759702
3246.09594,0.0759042
3245.13157,0.0758731
3244.16719,0.0758441
3243.20281,0.0758124
3242.23843,0.0757703
3241.27406,0.0757338
3240.30968,0.0757073
3239.34530,0.0757294
3238.38092,0.0757778
3237.41654,0.0757693
3236.45217,0.0757249
3235.48779,0.0756872
3234.52341,0.0756457
3233.55903,0.0755754
3232.59465,0.0755153
3231.63028,0.0754848
3230.66590,0.0754490
3229.70152,0.0754020
3228.73714,0.0753348
3227.77276,0.0752653
3226.80839,0.0751818
3225.84401,0.0750938
3224.87963,0.0750484
3223.91525,0.0750028
3222.95088,0.0749192
3221.98650,0.0748261
3221.02212,0.0747796
3220.05774,0.0747662
3219.09336,0.0747420
3218.12899,0.0746974
3217.16461,0.0746234
3216.20023,0.0745428
3215.23585,0.0744450
3214.27147,0.0743488
3213.30710,0.0742797
3212.34272,0.0741693
3211.37834,0.0740148
3210.41396,0.0738670
3209.44959,0.0737389
3208.48521,0.0736730
3207.52083,0.0736939
3206.55645,0.0737251
3205.59207,0.0737384
3204.62770,0.0737596
3203.66332,0.0737524
3202.69894,0.0737162
3201.73456,0.0736632
3200.77018,0.0735927
3199.80581,0.0735197
3198.84143,0.0734303
3197.87705,0.0733586
3196.91267,0.0733344
3195.94829,0.0732655
3194.98392,0.0731288
3194.01954,0.0730456
3193.05516,0.0730030
3192.09078,0.0729284
3191.12641,0.0728706
3190.16203,0.0728326
3189.19765,0.0728205
3188.23327,0.0728654
3187.26889,0.0729140
3186.30452,0.0729202
3185.34014,0.0728505
3184.37576,0.0727048
3183.41138,0.0725647
3182.44700,0.0724651
3181.48263,0.0723647
3180.51825,0.0722645
3179.55387,0.0721878
3178.58949,0.0721168
3177.62512,0.0720695
3176.66074,0.0720569
3175.69636,0.0720281
3174.73198,0.0719875
3173.76760,0.0719256
3172.80323,0.0718042
3171.83885,0.0716637
3170.87447,0.0715330
3169.91009,0.0714223
3168.94571,0.0713263
3167.98134,0.0712342
3167.01696,0.0711964
3166.05258,0.0712051
3165.08820,0.0712202
3164.12382,0.0712606
3163.15945,0.0712977
3162.19507,0.0712681
3161.23069,0.0711919
3160.26631,0.0711096
3159.30194,0.0710056
3158.33756,0.0708730
3157.37318,0.0707296
3156.40880,0.0706046
3155.44442,0.0704900
3154.48005,0.0703605
3153.51567,0.0702450
3152.55129,0.0701486
3151.58691,0.0700620
3150.62253,0.0700041
3149.65816,0.0699691
3148.69378,0.0699347
3147.72940,0.0698972
3146.76502,0.0698698
3145.80065,0.0698619
3144.83627,0.0698476
3143.87189,0.0697960
3142.90751,0.0697529
3141.94313,0.0697247
3140.97876,0.0696746
3140.01438,0.0696334
3139.05000,0.0695725
3138.08562,0.0694793
3137.12124,0.0694018
3136.15687,0.0693282
3135.19249,0.0692693
3134.22811,0.0692329
3133.26373,0.0691765
3132.29935,0.0690900
3131.33498,0.0689952
3130.37060,0.0688816
3129.40622,0.0687555
3128.44184,0.0686523
3127.47747,0.0685376
3126.51309,0.0684286
3125.54871,0.0683906
3124.58433,0.0683952
3123.61995,0.0684179
3122.65558,0.0684147
3121.69120,0.0683295
3120.72682,0.0682003
3119.76244,0.0680476
3118.79806,0.0678736
3117.83369,0.0677319
3116.86931,0.0676411
3115.90493,0.0675823
3114.94055,0.0675648
3113.97618,0.0675832
3113.01180,0.0675969
3112.04742,0.0675852
3111.08304,0.0675275
3110.11866,0.0674331
3109.15429,0.0673336
3108.18991,0.0672101
3107.22553,0.0671076
3106.26115,0.0670742
3105.29677,0.0670683
3104.33240,0.0670834
3103.36802,0.0670821
3102.40364,0.0670148
3101.43926,0.0669379
3100.47488,0.0668760
3099.51051,0.0668037
3098.54613,0.0667568
3097.58175,0.0667292
3096.61737,0.0666588
3095.65300,0.0665505
3094.68862,0.0664288
3093.72424,0.0663057
3092.75986,0.0661891
3091.79548,0.0660550
3090.83111,0.0659007
3089.86673,0.0657626
3088.90235,0.0656587
3087.93797,0.0656082
3086.97359,0.0656284
3086.00922,0.0656410
3085.04484,0.0655927
3084.08046,0.0655368
3083.11608,0.0654915
3082.15171,0.0654505
3081.18733,0.0654050
3080.22295,0.0653616
3079.25857,0.0653322
3078.29419,0.0652562
3077.32982,0.0651315
3076.36544,0.0650081
3075.40106,0.0648813
3074.43668,0.0647832
3073.47230,0.0647379
3072.50793,0.0647004
3071.54355,0.0646279
3070.57917,0.0645238
3069.61479,0.0644590
3068.65041,0.0644634
3067.68604,0.0644486
3066.72166,0.0643441
3065.75728,0.0641937
3064.79290,0.0640668
3063.82853,0.0639808
3062.86415,0.0639441
3061.89977,0.0638998
3060.93539,0.0637966
3059.97101,0.0636977
3059.00664,0.0636349
3058.04226,0.0636311
3057.07788,0.0636444
3056.11350,0.0635865
3055.14912,0.0635104
3054.18475,0.0634480
3053.22037,0.0634002
3052.25599,0.0633526
3051.29161,0.0632419
3050.32724,0.0630903
3049.36286,0.0629480
3048.39848,0.0628319
3047.43410,0.0627225
3046.46972,0.0626235
3045.50535,0.0625258
3044.54097,0.0623904
3043.57659,0.0622820
3042.61221,0.0622255
3041.64783,0.0621769
3040.68346,0.0621153
3039.71908,0.0620416
3038.75470,0.0619980
3037.79032,0.0619669
3036.82594,0.0619154
3035.86157,0.0618721
3034.89719,0.0618762
3033.93281,0.0618919
3032.96843,0.0618579
3032.00406,0.0618296
3031.03968,0.0618190
3030.07530,0.0617445
3029.11092,0.0615916
3028.14654,0.0614004
3027.18217,0.0612126
3026.21779,0.0610448
3025.25341,0.0609202
3024.28903,0.0608621
3023.32465,0.0608426
3022.36028,0.0608163
3021.39590,0.0607904
3020.43152,0.0608005
3019.46714,0.0608078
3018.50276,0.0607587
3017.53839,0.0606529
3016.57401,0.0605074
3015.60963,0.0603620
3014.64525,0.0602620
3013.68088,0.0602328
3012.71650,0.0602454
3011.75212,0.0602496
3010.78774,0.0602241
3009.82336,0.0601617
3008.85899,0.0600741
3007.89461,0.0599703
3006.93023,0.0598758
3005.96585,0.0597942
3005.00147,0.0596883
3004.03710,0.0595786
3003.07272,0.0595039
3002.10834,0.0594707
3001.14396,0.0594550
3000.17959,0.0594300
2999.21521,0.0593804
2998.25083,0.0592876
2997.28645,0.0591776
2996.32207,0.0590870
2995.35770,0.0590386
2994.39332,0.0590187
2993.42894,0.0589879
2992.46456,0.0589583
2991.50018,0.0589322
2990.53581,0.0588959
2989.57143,0.0588426
2988.60705,0.0587789
2987.64267,0.0587221
2986.67829,0.0586459
2985.71392,0.0585517
2984.74954,0.0584636
2983.78516,0.0583859
2982.82078,0.0583129
2981.85641,0.0582335
2980.89203,0.0581565
2979.92765,0.0580697
2978.96327,0.0579698
2977.99889,0.0578822
2977.03452,0.0578265
2976.07014,0.0578033
2975.10576,0.0577817
2974.14138,0.0577643
2973.17700,0.0577526
2972.21263,0.0577347
2971.24825,0.0577196
2970.28387,0.0576809
2969.31949,0.0575934
2968.35512,0.0574733
2967.39074,0.0573774
2966.42636,0.0573451
2965.46198,0.0573508
2964.49760,0.0573591
2963.53323,0.0573601
2962.56885,0.0573636
2961.60447,0.0573573
2960.64009,0.0573345
2959.67571,0.0572903
2958.71134,0.0572054
2957.74696,0.0571025
2956.78258,0.0569948
2955.81820,0.0568960
2954.85382,0.0568275
2953.88945,0.0567675
2952.92507,0.0567046
2951.96069,0.0566614
2950.99631,0.0566295
2950.03194,0.0565692
2949.06756,0.0565035
2948.10318,0.0564541
2947.13880,0.0564089
2946.17442,0.0563714
2945.21005,0.0563171
2944.24567,0.0562632
2943.28129,0.0562484
2942.31691,0.0562688
2941.35253,0.0563048
2940.38816,0.0563366
2939.42378,0.0563589
2938.45940,0.0563565
2937.49502,0.0563469
2936.53065,0.0563362
2935.56627,0.0562875
2934.60189,0.0562047
2933.63751,0.0561206
2932.67313,0.0560744
2931.70876,0.0560647
2930.74438,0.0560653
2929.78000,0.0560546
2928.81562,0.0560177
2927.85124,0.0559851
2926.88687,0.0559739
2925.92249,0.0559746
2924.95811,0.0559764
2923.99373,0.0559633
2923.02935,0.0559280
2922.06498,0.0558976
2921.10060,0.0558920
2920.13622,0.0558675
2919.17184,0.0558054
2918.20747,0.0557190
2917.24309,0.0556190
2916.27871,0.0555529
2915.31433,0.0555198
2914.34995,0.0554720
2913.38558,0.0554193
2912.42120,0.0553762
2911.45682,0.0553429
2910.49244,0.0553482
2909.52806,0.0553500
2908.56369,0.0552850
2907.59931,0.0552085
2906.63493,0.0551656
2905.67055,0.0551201
2904.70618,0.0550672
2903.74180,0.0550168
2902.77742,0.0549526
2901.81304,0.0548936
2900.84866,0.0548714
2899.88429,0.0548918
2898.91991,0.0549302
2897.95553,0.0549433
2896.99115,0.0549369
2896.02677,0.0549396
2895.06240,0.0549420
2894.09802,0.0549003
2893.13364,0.0548222
2892.16926,0.0547618
2891.20488,0.0547027
2890.24051,0.0546373
2889.27613,0.0546020
2888.31175,0.0545883
2887.34737,0.0545731
2886.38300,0.0545454
2885.41862,0.0544913
2884.45424,0.0544255
2883.48986,0.0543836
2882.52548,0.0543456
2881.56111,0.0543169
2880.59673,0.0543421
2879.63235,0.0543714
2878.66797,0.0543646
2877.70359,0.0543488
2876.73922,0.0543278
2875.77484,0.0543016
2874.81046,0.0542542
2873.84608,0.0541723
2872.88171,0.0541112
2871.91733,0.0540886
2870.95295,0.0540847
2869.98857,0.0541344
2869.02419,0.0542236
2868.05982,0.0542820
2867.09544,0.0542905
2866.13106,0.0542875
2865.16668,0.0542976
2864.20230,0.0543104
2863.23793,0.0543042
2862.27355,0.0542670
2861.30917,0.0542313
2860.34479,0.0542034
2859.38041,0.0541820
2858.41604,0.0541962
2857.45166,0.0542217
2856.48728,0.0542249
2855.52290,0.0541988
2854.55853,0.0541575
2853.59415,0.0541116
2852.62977,0.0540595
2851.66539,0.0540020
2850.70101,0.0539393
2849.73664,0.0539052
2848.77226,0.0538859
2847.80788,0.0538484
2846.84350,0.0538218
2845.87912,0.0538200
2844.91475,0.0538152
2843.95037,0.0537925
2842.98599,0.0537721
2842.02161,0.0537457
2841.05724,0.0537046
2840.09286,0.0536518
2839.12848,0.0536045
2838.16410,0.0535900
2837.19972,0.0535562
2836.23535,0.0534978
2835.27097,0.0534651
2834.30659,0.0534632
2833.34221,0.0534782
2832.37783,0.0534959
2831.41346,0.0535118
2830.44908,0.0534938
2829.48470,0.0534560
2828.52032,0.0534194
2827.55594,0.0533732
2826.59157,0.0533348
2825.62719,0.0532696
2824.66281,0.0531881
2823.69843,0.0531299
2822.73406,0.0530785
2821.76968,0.0530181
2820.80530,0.0529302
2819.84092,0.0528374
2818.87654,0.0527676
2817.91217,0.0527419
2816.94779,0.0527519
2815.98341,0.0527635
2815.01903,0.0527840
2814.05465,0.0527975
2813.09028,0.0528207
2812.12590,0.0528451
2811.16152,0.0528121
2810.19714,0.0527481
2809.23276,0.0526853
2808.26839,0.0526332
2807.30401,0.0525774
2806.33963,0.0525170
2805.37525,0.0524691
2804.41088,0.0524163
2803.44650,0.0523801
2802.48212,0.0523716
2801.51774,0.0523722
2800.55336,0.0523518
2799.58899,0.0523178
2798.62461,0.0523239
2797.66023,0.0523336
2796.69585,0.0523116
2795.73147,0.0522703
2794.76710,0.0522291
2793.80272,0.0522074
2792.83834,0.0521765
2791.87396,0.0521433
2790.90959,0.0521183
2789.94521,0.0520772
2788.98083,0.0520189
2788.01645,0.0519678
2787.05207,0.0519312
2786.08770,0.0518674
2785.12332,0.0517947
2784.15894,0.0517543
2783.19456,0.0517316
2782.23018,0.0517090
2781.26581,0.0516644
2780.30143,0.0516059
2779.33705,0.0515587
2778.37267,0.0515202
2777.40829,0.0514725
2776.44392,0.0514278
2775.47954,0.0513996
2774.51516,0.0513663
2773.55078,0.0513470
2772.58641,0.0513454
2771.62203,0.0513308
2770.65765,0.0513107
2769.69327,0.0512768
2768.72889,0.0512136
2767.76452,0.0511487
2766.80014,0.0511087
2765.83576,0.0510741
2764.87138,0.0510377
2763.90700,0.0510126
2762.94263,0.0509851
2761.97825,0.0509464
2761.01387,0.0508994
2760.04949,0.0508475
2759.08512,0.0507946
2758.12074,0.0507409
2757.15636,0.0506781
2756.19198,0.0506134
2755.22760,0.0505843
2754.26323,0.0505737
2753.29885,0.0505548
2752.33447,0.0505432
2751.37009,0.0505196
2750.40571,0.0504795
2749.44134,0.0504425
2748.47696,0.0503924
2747.51258,0.0503277
2746.54820,0.0502624
2745.58382,0.0501870
2744.61945,0.0501111
2743.65507,0.0500446
2742.69069,0.0499718
2741.72631,0.0499146
2740.76194,0.0498832
2739.79756,0.0498550
2738.83318,0.0498485
2737.86880,0.0498553
2736.90442,0.0498346
2735.94005,0.0497898
2734.97567,0.0497417
2734.01129,0.0497034
2733.04691,0.0496646
2732.08253,0.0496052
2731.11816,0.0495441
2730.15378,0.0495022
2729.18940,0.0494718
2728.22502,0.0494388
2727.26065,0.0494017
2726.29627,0.0493621
2725.33189,0.0493078
2724.36751,0.0492534
2723.40313,0.0492074
2722.43876,0.0491546
2721.47438,0.0491103
2720.51000,0.0490642
2719.54562,0.0490166
2718.58124,0.0489983
2717.61687,0.0489923
2716.65249,0.0489720
2715.68811,0.0489342
2714.72373,0.0488996
2713.75935,0.0488747
2712.79498,0.0488517
2711.83060,0.0488282
2710.86622,0.0487918
2709.90184,0.0487512
2708.93747,0.0487051
2707.97309,0.0486584
2707.00871,0.0486122
2706.04433,0.0485451
2705.07995,0.0484742
2704.11558,0.0484017
2703.15120,0.0483366
2702.18682,0.0482964
2701.22244,0.0482655
2700.25806,0.0482424
2699.29369,0.0482228
2698.32931,0.0482068
2697.36493,0.0482038
2696.40055,0.0481989
2695.43618,0.0481635
2694.47180,0.0481090
2693.50742,0.0480595
2692.54304,0.0480127
2691.57866,0.0479768
2690.61429,0.0479309
2689.64991,0.0478669
2688.68553,0.0478137
2687.72115,0.0477753
2686.75677,0.0477407
2685.79240,0.0477006
2684.82802,0.0476665
2683.86364,0.0476287
2682.89926,0.0475896
2681.93488,0.0475748
2680.97051,0.0475740
2680.00613,0.0475721
2679.04175,0.0475466
2678.07737,0.0475020
2677.11300,0.0474601
2676.14862,0.0474198
2675.18424,0.0473795
2674.21986,0.0473305
2673.25548,0.0472797
2672.29111,0.0472266
2671.32673,0.0471706
2670.36235,0.0471136
2669.39797,0.0470481
2668.43359,0.0469968
2667.46922,0.0469656
2666.50484,0.0469393
2665.54046,0.0469099
2664.57608,0.0468721
2663.61171,0.0468274
2662.64733,0.0467792
2661.68295,0.0467371
2660.71857,0.0466974
2659.75419,0.0466493
2658.78982,0.0465939
2657.82544,0.0465409
2656.86106,0.0465095
2655.89668,0.0464864
2654.93230,0.0464475
2653.96793,0.0464048
2653.00355,0.0463451
2652.03917,0.0462516
2651.07479,0.0461513
2650.11041,0.0460607
2649.14604,0.0459666
2648.18166,0.0458593
2647.21728,0.0457521
2646.25290,0.0456477
2645.28853,0.0455683
2644.32415,0.0455340
2643.35977,0.0455219
2642.39539,0.0455276
2641.43101,0.0455159
2640.46664,0.0454854
2639.50226,0.0454688
2638.53788,0.0454419
2637.57350,0.0453909
2636.60912,0.0453148
2635.64475,0.0452360
2634.68037,0.0451473
2633.71599,0.0450617
2632.75161,0.0450214
2631.78724,0.0449839
2630.82286,0.0449213
2629.85848,0.0448352
2628.89410,0.0447739
2627.92972,0.0447519
2626.96535,0.0447228
2626.00097,0.0446875
2625.03659,0.0446322
2624.07221,0.0445789
2623.10783,0.0445340
2622.14346,0.0444970
2621.17908,0.0444817
2620.21470,0.0444421
2619.25032,0.0443682
2618.28594,0.0442697
2617.32157,0.0441920
2616.35719,0.0441539
2615.39281,0.0441184
2614.42843,0.0440936
2613.46406,0.0440828
2612.49968,0.0440653
2611.53530,0.0440153
2610.57092,0.0439414
2609.60654,0.0438528
2608.64217,0.0437716
2607.67779,0.0437272
2606.71341,0.0436816
2605.74903,0.0436118
2604.78465,0.0435476
2603.82028,0.0435215
2602.85590,0.0435191
2601.89152,0.0435206
2600.92714,0.0435001
2599.96276,0.0434629
2598.99839,0.0434367
2598.03401,0.0433978
2597.06963,0.0434087
2596.10525,0.0434682
2595.14088,0.0434700
2594.17650,0.0433944
2593.21212,0.0432789
2592.24774,0.0431745
2591.28336,0.0430599
2590.31899,0.0429242
2589.35461,0.0428161
2588.39023,0.0427633
2587.42585,0.0427312
2586.46147,0.0427101
2585.49710,0.0427669
2584.53272,0.0428570
2583.56834,0.0429202
2582.60396,0.0429315
2581.63959,0.0429115
2580.67521,0.0429340
2579.71083,0.0429180
2578.74645,0.0428505
2577.78207,0.0428316
2576.81770,0.0428110
2575.85332,0.0427293
2574.88894,0.0426286
2573.92456,0.0425120
2572.96018,0.0423691
2571.99581,0.0422331
2571.03143,0.0421155
2570.06705,0.0420858
2569.10267,0.0421264
2568.13829,0.0420957
2567.17392,0.0420441
2566.20954,0.0420511
2565.24516,0.0420501
2564.28078,0.0420202
2563.31641,0.0419744
2562.35203,0.0419103
2561.38765,0.0418527
2560.42327,0.0418247
2559.45889,0.0418572
2558.49452,0.0419280
2557.53014,0.0419362
2556.56576,0.0418651
2555.60138,0.0418231
2554.63700,0.0418632
2553.67263,0.0418778
2552.70825,0.0418126
2551.74387,0.0417362
2550.77949,0.0416894
2549.81512,0.0416635
2548.85074,0.0416369
2547.88636,0.0416088
2546.92198,0.0415345
2545.95760,0.0414081
2544.99323,0.0412930
2544.02885,0.0411904
2543.06447,0.0410973
2542.10009,0.0409960
2541.13571,0.0408998
2540.17134,0.0408832
2539.20696,0.0409374
2538.24258,0.0410111
2537.27820,0.0410833
2536.31382,0.0411143
2535.34945,0.0411194
2534.38507,0.0411534
2533.42069,0.0411701
2532.45631,0.0411483
2531.49194,0.0411272
2530.52756,0.0410913
2529.56318,0.0410192
2528.59880,0.0409484
2527.63442,0.0408899
2526.67005,0.0408097
2525.70567,0.0407351
2524.74129,0.0406637
2523.77691,0.0406395
2522.81253,0.0406797
2521.84816,0.0407006
2520.88378,0.0407337
2519.91940,0.0407344
2518.95502,0.0406730
2517.99065,0.0406094
2517.02627,0.0405578
2516.06189,0.0405304
2515.09751,0.0404706
2514.13313,0.0403875
2513.16876,0.0403122
2512.20438,0.0402811
2511.24000,0.0403006
2510.27562,0.0402812
2509.31124,0.0402407
2508.34687,0.0402184
2507.38249,0.0402020
2506.41811,0.0401404
2505.45373,0.0400596
2504.48935,0.0399863
2503.52498,0.0398725
2502.56060,0.0397746
2501.59622,0.0397142
2500.63184,0.0397197
2499.66747,0.0397572
2498.70309,0.0397595
2497.73871,0.0397968
2496.77433,0.0398451
2495.80995,0.0398330
2494.84558,0.0397635
2493.88120,0.0396996
2492.91682,0.0396311
2491.95244,0.0395606
2490.98806,0.0395609
2490.02369,0.0395778
2489.05931,0.0395911
2488.09493,0.0395968
2487.13055,0.0396018
2486.16618,0.0396205
2485.20180,0.0396038
2484.23742,0.0395785
2483.27304,0.0395502
2482.30866,0.0395175
2481.34429,0.0394686
2480.37991,0.0394100
2479.41553,0.0393813
2478.45115,0.0393203
2477.48677,0.0392288
2476.52240,0.0391568
2475.55802,0.0391301
2474.59364,0.0391616
2473.62926,0.0391913
2472.66488,0.0391966
2471.70051,0.0392004
2470.73613,0.0392081
2469.77175,0.0391983
2468.80737,0.0391560
2467.84300,0.0391198
2466.87862,0.0391124
2465.91424,0.0391056
2464.94986,0.0390768
2463.98548,0.0390461
2463.02111,0.0390197
2462.05673,0.0389637
2461.09235,0.0388866
2460.12797,0.0387771
2459.16359,0.0386122
2458.19922,0.0384747
2457.23484,0.0384078
2456.27046,0.0383928
2455.30608,0.0384040
2454.34171,0.0383570
2453.37733,0.0382747
2452.41295,0.0382720
2451.44857,0.0383447
2450.48419,0.0384206
2449.51982,0.0384429
2448.55544,0.0383716
2447.59106,0.0382354
2446.62668,0.0381191
2445.66230,0.0380739
2444.69793,0.0380601
2443.73355,0.0380284
2442.76917,0.0379767
2441.80479,0.0379097
2440.84041,0.0378763
2439.87604,0.0378791
2438.91166,0.0378725
2437.94728,0.0378472
2436.98290,0.0377702
2436.01853,0.0376398
2435.05415,0.0375266
2434.08977,0.0375163
2433.12539,0.0375684
2432.16101,0.0376142
2431.19664,0.0376452
2430.23226,0.0376416
2429.26788,0.0376983
2428.30350,0.0378371
2427.33912,0.0379861
2426.37475,0.0381256
2425.41037,0.0381945
2424.44599,0.0381804
2423.48161,0.0381504
2422.51724,0.0381395
2421.55286,0.0380460
2420.58848,0.0378673
2419.62410,0.0377164
2418.65972,0.0376033
2417.69535,0.0375352
2416.73097,0.0374786
2415.76659,0.0374440
2414.80221,0.0374603
2413.83783,0.0374901
2412.87346,0.0375134
2411.90908,0.0375316
2410.94470,0.0375534
2409.98032,0.0375331
2409.01594,0.0375025
2408.05157,0.0374826
2407.08719,0.0374378
2406.12281,0.0373714
2405.15843,0.0373051
2404.19406,0.0373105
2403.22968,0.0373477
2402.26530,0.0373752
2401.30092,0.0373947
2400.33654,0.0374240
2399.37217,0.0374835
2398.40779,0.0374826
2397.44341,0.0374155
2396.47903,0.0373295
2395.51465,0.0372684
2394.55028,0.0371977
2393.58590,0.0371170
2392.62152,0.0371057
2391.65714,0.0370707
2390.69276,0.0370179
2389.72839,0.0370178
2388.76401,0.0370856
2387.79963,0.0371681
2386.83525,0.0371630
2385.87088,0.0371768
2384.90650,0.0372716
2383.94212,0.0373849
2382.97774,0.0374927
2382.01336,0.0376551
2381.04899,0.0379040
2380.08461,0.0381733
2379.12023,0.0385293
2378.15585,0.0390123
2377.19147,0.0395900
2376.22710,0.0402146
2375.26272,0.0408252
2374.29834,0.0414740
2373.33396,0.0421483
2372.36959,0.0427915
2371.40521,0.0434026
2370.44083,0.0439722
2369.47645,0.0444903
2368.51207,0.0449500
2367.54770,0.0453749
2366.58332,0.0457405
2365.61894,0.0459980
2364.65456,0.0461865
2363.69018,0.0463315
2362.72581,0.0464107
2361.76143,0.0464234
2360.79705,0.0463874
2359.83267,0.0463159
2358.86829,0.0461804
2357.90392,0.0459499
2356.93954,0.0456050
2355.97516,0.0451428
2355.01078,0.0445126
2354.04641,0.0436182
2353.08203,0.0425800
2352.11765,0.0415861
2351.15327,0.0407278
2350.18889,0.0401405
2349.22452,0.0399049
2348.26014,0.0400336
2347.29576,0.0404444
2346.33138,0.0410445
2345.36700,0.0417709
2344.40263,0.0424839
2343.43825,0.0430297
2342.47387,0.0433027
2341.50949,0.0433907
2340.54512,0.0434091
2339.58074,0.0433644
2338.61636,0.0432905
2337.65198,0.0432059
2336.68760,0.0431307
2335.72323,0.0430681
2334.75885,0.0430387
2333.79447,0.0430203
2332.83009,0.0429540
2331.86571,0.0428525
2330.90134,0.0427187
2329.93696,0.0425761
2328.97258,0.0424083
2328.00820,0.0421976
2327.04382,0.0419753
2326.07945,0.0417432
2325.11507,0.0414798
2324.15069,0.0411795
2323.18631,0.0409038
2322.22194,0.0406420
2321.25756,0.0403443
2320.29318,0.0399816
2319.32880,0.0395926
2318.36442,0.0392659
2317.40005,0.0389733
2316.43567,0.0387037
2315.47129,0.0384403
2314.50691,0.0381698
2313.54253,0.0378988
2312.57816,0.0376284
2311.61378,0.0374067
2310.64940,0.0371811
2309.68502,0.0369427
2308.72065,0.0367208
2307.75627,0.0365466
2306.79189,0.0364394
2305.82751,0.0362827
2304.86313,0.0360532
2303.89876,0.0358201
2302.93438,0.0356670
2301.97000,0.0355992
2301.00562,0.0355187
2300.04124,0.0354033
2299.07687,0.0353062
2298.11249,0.0352836
2297.14811,0.0352903
2296.18373,0.0352699
2295.21935,0.0351858
2294.25498,0.0349967
2293.29060,0.0347609
2292.32622,0.0345686
2291.36184,0.0344152
2290.39747,0.0342736
2289.43309,0.0341826
2288.46871,0.0341376
2287.50433,0.0341798
2286.53995,0.0342670
2285.57558,0.0342843
2284.61120,0.0342474
2283.64682,0.0341586
2282.68244,0.0340749
2281.71806,0.0339377
2280.75369,0.0337147
2279.78931,0.0335103
2278.82493,0.0333914
2277.86055,0.0334293
2276.89618,0.0334944
2275.93180,0.0335971
2274.96742,0.0337220
2274.00304,0.0337400
2273.03866,0.0337114
2272.07429,0.0336573
2271.10991,0.0336646
2270.14553,0.0335671
2269.18115,0.0333100
2268.21677,0.0330861
2267.25240,0.0328447
2266.28802,0.0326326
2265.32364,0.0324664
2264.35926,0.0323929
2263.39488,0.0323424
2262.43051,0.0322327
2261.46613,0.0322309
2260.50175,0.0323528
2259.53737,0.0325655
2258.57300,0.0326269
2257.60862,0.0325578
2256.64424,0.0326052
2255.67986,0.0325867
2254.71548,0.0324976
2253.75111,0.0324722
2252.78673,0.0324732
2251.82235,0.0324424
2250.85797,0.0324844
2249.89359,0.0326487
2248.92922,0.0327625
2247.96484,0.0327895
2247.00046,0.0326969
2246.03608,0.0325948
2245.07171,0.0325418
2244.10733,0.0323629
2243.14295,0.0322851
2242.17857,0.0324576
2241.21419,0.0325183
2240.24982,0.0323524
2239.28544,0.0321564
2238.32106,0.0318626
2237.35668,0.0314445
2236.39230,0.0310017
2235.42793,0.0305502
2234.46355,0.0301198
2233.49917,0.0297765
2232.53479,0.0296024
2231.57041,0.0297094
2230.60604,0.0299275
2229.64166,0.0299619
2228.67728,0.0298879
2227.71290,0.0298730
2226.74853,0.0298580
2225.78415,0.0298431
2224.81977,0.0298281
2223.85539,0.0298132
2222.89101,0.0297982
2221.92664,0.0297833
2220.96226,0.0297683
2219.99788,0.0297534
2219.03350,0.0297384
2218.06912,0.0297235
2217.10475,0.0297085
2216.14037,0.0296936
2215.17599,0.0296786
2214.21161,0.0296637
2213.24724,0.0296488
2212.28286,0.0296338
2211.31848,0.0296189
2210.35410,0.0296039
2209.38972,0.0295890
2208.42535,0.0295740
2207.46097,0.0295591
2206.49659,0.0295441
2205.53221,0.0295292
2204.56783,0.0295142
2203.60346,0.0294993
2202.63908,0.0294843
2201.67470,0.0294694
2200.71032,0.0294544
2199.74594,0.0294395
2198.78157,0.0294245
2197.81719,0.0294096
2196.85281,0.0293946
2195.88843,0.0293797
2194.92406,0.0293647
2193.95968,0.0293498
2192.99530,0.0293348
2192.03092,0.0293199
2191.06654,0.0293049
2190.10217,0.0292900
2189.13779,0.0292750
2188.17341,0.0292601
2187.20903,0.0292451
2186.24465,0.0292302
2185.28028,0.0292152
2184.31590,0.0292003
2183.35152,0.0291853
2182.38714,0.0291704
2181.42276,0.0291554
2180.45839,0.0291405
2179.49401,0.0291256
2178.52963,0.0291106
2177.56525,0.0290957
2176.60088,0.0290807
2175.63650,0.0290658
2174.67212,0.0290508
2173.70774,0.0290359
2172.74336,0.0290209
2171.77899,0.0290060
2170.81461,0.0289910
2169.85023,0.0289761
2168.88585,0.0289611
2167.92147,0.0289462
2166.95710,0.0289312
2165.99272,0.0289163
2165.02834,0.0289013
2164.06396,0.0288864
2163.09959,0.0288714
2162.13521,0.0288565
2161.17083,0.0288415
2160.20645,0.0288266
2159.24207,0.0288116
2158.27770,0.0287967
2157.31332,0.0287817
2156.34894,0.0287668
2155.38456,0.0287518
2154.42018,0.0287369
2153.45581,0.0287219
2152.49143,0.0287070
2151.52705,0.0286920
2150.56267,0.0286771
2149.59829,0.0286622
2148.63392,0.0286472
2147.66954,0.0286323
2146.70516,0.0286173
2145.74078,0.0286024
2144.77641,0.0285874
2143.81203,0.0285725
2142.84765,0.0285575
2141.88327,0.0285426
2140.91889,0.0285276
2139.95452,0.0285127
2138.99014,0.0284977
2138.02576,0.0284828
2137.06138,0.0284678
2136.09700,0.0284529
2135.13263,0.0284379
2134.16825,0.0284230
2133.20387,0.0284080
2132.23949,0.0283931
2131.27512,0.0283781
2130.31074,0.0283632
2129.34636,0.0283482
2128.38198,0.0283333
2127.41760,0.0283183
2126.45323,0.0283034
2125.48885,0.0282884
2124.52447,0.0282735
2123.56009,0.0282585
2122.59571,0.0282436
2121.63134,0.0282286
2120.66696,0.0282137
2119.70258,0.0281987
2118.73820,0.0281838
2117.77382,0.0281688
2116.80945,0.0281539
2115.84507,0.0281390
2114.88069,0.0281240
2113.91631,0.0281091
2112.95194,0.0280941
2111.98756,0.0280792
2111.02318,0.0280642
2110.05880,0.0280493
2109.09442,0.0280343
2108.13005,0.0280194
2107.16567,0.0280044
2106.20129,0.0279895
2105.23691,0.0279745
2104.27253,0.0279596
2103.30816,0.0279446
2102.34378,0.0279297
2101.37940,0.0279147
2100.41502,0.0278998
2099.45065,0.0278848
2098.48627,0.0278699
2097.52189,0.0278549
2096.55751,0.0278400
2095.59313,0.0278250
2094.62876,0.0278101
2093.66438,0.0277951
2092.70000,0.0277802
2091.73562,0.0277652
2090.77124,0.0277503
2089.80687,0.0277353
2088.84249,0.0277204
2087.87811,0.0277054
2086.91373,0.0276905
2085.94935,0.0276756
2084.98498,0.0276606
2084.02060,0.0276457
2083.05622,0.0276307
2082.09184,0.0276158
2081.12747,0.0276008
2080.16309,0.0275859
2079.19871,0.0275709
2078.23433,0.0275560
2077.26995,0.0275410
2076.30558,0.0275261
2075.34120,0.0275111
2074.37682,0.0274962
2073.41244,0.0274812
2072.44806,0.0274663
2071.48369,0.0274513
2070.51931,0.0274364
2069.55493,0.0274214
2068.59055,0.0274065
2067.62618,0.0273915
2066.66180,0.0273766
2065.69742,0.0273616
2064.73304,0.0273467
2063.76866,0.0273317
2062.80429,0.0273168
2061.83991,0.0273018
2060.87553,0.0272869
2059.91115,0.0272719
2058.94677,0.0272570
2057.98240,0.0272420
2057.01802,0.0272271
2056.05364,0.0272121
2055.08926,0.0271972
2054.12488,0.0271822
2053.16051,0.0271673
2052.19613,0.0271524
2051.23175,0.0271374
2050.26737,0.0271225
2049.30300,0.0271075
2048.33862,0.0270926
2047.37424,0.0270776
2046.40986,0.0270627
2045.44548,0.0270477
2044.48111,0.0270328
2043.51673,0.0270178
2042.55235,0.0270029
2041.58797,0.0269879
2040.62359,0.0269730
2039.65922,0.0269580
2038.69484,0.0269431
2037.73046,0.0269281
2036.76608,0.0269132
2035.80171,0.0268982
2034.83733,0.0268833
2033.87295,0.0268683
2032.90857,0.0268534
2031.94419,0.0268384
2030.97982,0.0268235
2030.01544,0.0268085
2029.05106,0.0267936
2028.08668,0.0267786
2027.12230,0.0267637
2026.15793,0.0267487
2025.19355,0.0267338
2024.22917,0.0267188
2023.26479,0.0267039
2022.30041,0.0266890
2021.33604,0.0266740
2020.37166,0.0266591
2019.40728,0.0266441
2018.44290,0.0266292
2017.47853,0.0266142
2016.51415,0.0265993
2015.54977,0.0265843
2014.58539,0.0265694
2013.62101,0.0265544
2012.65664,0.0265395
2011.69226,0.0265245
2010.72788,0.0265096
2009.76350,0.0264946
2008.79912,0.0264797
2007.83475,0.0264647
2006.87037,0.0264498
2005.90599,0.0264348
2004.94161,0.0264199
2003.97724,0.0264049
2003.01286,0.0263900
2002.04848,0.0263750
2001.08410,0.0263601
2000.11972,0.0263451
1999.15535,0.0263302
1998.19097,0.0263152
1997.22659,0.0263003
1996.26221,0.0262853
1995.29783,0.0262704
1994.33346,0.0262554
1993.36908,0.0262405
1992.40470,0.0262255
1991.44032,0.0262106
1990.47594,0.0261956
1989.51157,0.0261807
1988.54719,0.0261658
1987.58281,0.0261508
1986.61843,0.0261359
1985.65406,0.0261209
1984.68968,0.0261060
1983.72530,0.0260910
1982.76092,0.0260761
1981.79654,0.0260611
1980.83217,0.0260462
1979.86779,0.0260312
1978.90341,0.0260163
1977.93903,0.0260013
1976.97465,0.0259864
1976.01028,0.0259714
1975.04590,0.0259565
1974.08152,0.0259415
1973.11714,0.0259266
1972.15276,0.0259116
1971.18839,0.0258967
1970.22401,0.0258817
1969.25963,0.0258668
1968.29525,0.0258518
1967.33088,0.0258369
1966.36650,0.0258219
1965.40212,0.0258070
1964.43774,0.0257920
1963.47336,0.0257771
1962.50899,0.0257621
1961.54461,0.0257472
1960.58023,0.0257322
1959.61585,0.0257173
1958.65147,0.0257023
1957.68710,0.0256874
1956.72272,0.0256725
1955.75834,0.0256575
1954.79396,0.0256426
1953.82959,0.0256276
1952.86521,0.0256127
1951.90083,0.0255977
1950.93645,0.0255828
1949.97207,0.0255678
1949.00770,0.0255529
1948.04332,0.0255379
1947.07894,0.0255230
1946.11456,0.0255080
1945.15018,0.0254931
1944.18581,0.0254781
1943.22143,0.0254632
1942.25705,0.0254482
1941.29267,0.0254333
1940.32829,0.0254183
1939.36392,0.0254034
1938.39954,0.0253884
1937.43516,0.0253516
1936.47078,0.0253327
1935.50641,0.0253460
1934.54203,0.0253233
1933.57765,0.0252929
1932.61327,0.0253823
1931.64889,0.0255118
1930.68452,0.0256594
1929.72014,0.0258436
1928.75576,0.0259838
1927.79138,0.0261606
1926.82700,0.0263537
1925.86263,0.0264292
1924.89825,0.0263643
1923.93387,0.0261935
1922.96949,0.0260383
1922.00512,0.0259901
1921.04074,0.0260474
1920.07636,0.0260898
1919.11198,0.0261936
1918.14760,0.0263544
1917.18323,0.0264329
1916.21885,0.0265187
1915.25447,0.0265392
1914.29009,0.0264265
1913.32571,0.0262327
1912.36134,0.0260332
1911.39696,0.0259376
1910.43258,0.0258316
1909.46820,0.0256978
1908.50382,0.0256489
1907.53945,0.0256991
1906.57507,0.0258017
1905.61069,0.0258606
1904.64631,0.0258779
1903.68194,0.0258409
1902.71756,0.0258133
1901.75318,0.0259182
1900.78880,0.0260285
1899.82442,0.0260494
1898.86005,0.0260463
1897.89567,0.0260886
1896.93129,0.0261343
1895.96691,0.0261340
1895.00253,0.0262058
1894.03816,0.0263140
1893.07378,0.0262951
1892.10940,0.0260999
1891.14502,0.0258823
1890.18065,0.0258278
1889.21627,0.0258249
1888.25189,0.0258215
1887.28751,0.0258538
1886.32313,0.0258238
1885.35876,0.0257343
1884.39438,0.0257145
1883.43000,0.0258300
1882.46562,0.0259288
1881.50124,0.0258768
1880.53687,0.0257166
1879.57249,0.0255601
1878.60811,0.0255204
1877.64373,0.0256043
1876.67935,0.0257175
1875.71498,0.0257435
1874.75060,0.0257501
1873.78622,0.0258635
1872.82184,0.0260272
1871.85747,0.0261587
1870.89309,0.0262366
1869.92871,0.0262789
1868.96433,0.0262805
1867.99995,0.0262092
1867.03558,0.0260686
1866.07120,0.0259446
1865.10682,0.0258578
1864.14244,0.0257599
1863.17806,0.0257344
1862.21369,0.0257672
1861.24931,0.0257733
1860.28493,0.0257819
1859.32055,0.0258115
1858.35618,0.0258527
1857.39180,0.0258887
1856.42742,0.0258754
1855.46304,0.0257857
1854.49866,0.0257393
1853.53429,0.0257726
1852.56991,0.0258098
1851.60553,0.0258472
1850.64115,0.0258696
1849.67677,0.0260051
1848.71240,0.0262863
1847.74802,0.0265777
1846.78364,0.0268653
1845.81926,0.0271110
1844.85488,0.0272717
1843.89051,0.0273183
1842.92613,0.0272691
1841.96175,0.0271730
1840.99737,0.0270025
1840.03300,0.0267740
1839.06862,0.0265995
1838.10424,0.0266042
1837.13986,0.0266604
1836.17548,0.0266440
1835.21111,0.0267063
1834.24673,0.0268618
1833.28235,0.0270431
1832.31797,0.0271899
1831.35359,0.0272500
1830.38922,0.0273461
1829.42484,0.0274980
1828.46046,0.0276279
1827.49608,0.0277389
1826.53171,0.0278008
1825.56733,0.0277837
1824.60295,0.0277417
1823.63857,0.0277650
1822.67419,0.0278193
1821.70982,0.0278328
1820.74544,0.0277801
1819.78106,0.0276820
1818.81668,0.0276627
1817.85230,0.0276866
1816.88793,0.0276764
1815.92355,0.0277142
1814.95917,0.0277999
1813.99479,0.0278781
1813.03041,0.0279428
1812.06604,0.0280141
1811.10166,0.0280927
1810.13728,0.0281669
1809.17290,0.0282069
1808.20853,0.0282104
1807.24415,0.0282316
1806.27977,0.0282475
1805.31539,0.0283048
1804.35101,0.0284681
1803.38664,0.0286403
1802.42226,0.0287528
1801.45788,0.0288508
1800.49350,0.0289525
1799.52912,0.0289617
1798.56475,0.0289365
1797.60037,0.0290351
1796.63599,0.0292327
1795.67161,0.0294841
1794.70724,0.0297251
1793.74286,0.0299144
1792.77848,0.0300666
1791.81410,0.0301364
1790.84972,0.0301390
1789.88535,0.0301638
1788.92097,0.0301897
1787.95659,0.0301399
1786.99221,0.0301273
1786.02783,0.0303115
1785.06346,0.0306026
1784.09908,0.0308750
1783.13470,0.0311066
1782.17032,0.0312473
1781.20594,0.0313470
1780.24157,0.0314445
1779.27719,0.0314755
1778.31281,0.0316174
1777.34843,0.0320172
1776.38406,0.0325534
1775.41968,0.0330681
1774.45530,0.0334897
1773.49092,0.0339335
1772.52654,0.0343950
1771.56217,0.0347395
1770.59779,0.0349268
1769.63341,0.0349863
1768.66903,0.0348943
1767.70465,0.0346974
1766.74028,0.0347745
1765.77590,0.0351572
1764.81152,0.0355124
1763.84714,0.0357309
1762.88276,0.0358583
1761.91839,0.0361504
1760.95401,0.0365488
1759.98963,0.0368123
1759.02525,0.0370010
1758.06088,0.0370629
1757.09650,0.0370995
1756.13212,0.0373997
1755.16774,0.0378979
1754.20336,0.0383474
1753.23899,0.0386970
1752.27461,0.0390110
1751.31023,0.0392931
1750.34585,0.0395466
1749.38147,0.0396944
1748.41710,0.0397346
1747.45272,0.0397070
1746.48834,0.0395196
1745.52396,0.0394368
1744.55959,0.0396849
1743.59521,0.0399501
1742.63083,0.0401363
1741.66645,0.0402417
1740.70207,0.0401716
1739.73770,0.0402081
1738.77332,0.0405846
1737.80894,0.0411296
1736.84456,0.0415861
1735.88018,0.0418249
1734.91581,0.0418965
1733.95143,0.0419187
1732.98705,0.0419075
1732.02267,0.0416873
1731.05829,0.0412204
1730.09392,0.0405584
1729.12954,0.0398487
1728.16516,0.0394962
1727.20078,0.0395039
1726.23641,0.0394952
1725.27203,0.0392985
1724.30765,0.0389920
1723.34327,0.0388759
1722.37889,0.0391135
1721.41452,0.0394827
1720.45014,0.0398023
1719.48576,0.0401197
1718.52138,0.0403475
1717.55700,0.0403859
1716.59263,0.0402418
1715.62825,0.0398807
1714.66387,0.0393279
1713.69949,0.0385743
1712.73512,0.0377502
1711.77074,0.0372005
1710.80636,0.0370239
1709.84198,0.0369391
1708.87760,0.0368995
1707.91323,0.0369011
1706.94885,0.0366242
1705.98447,0.0364114
1705.02009,0.0367246
1704.05571,0.0372252
1703.09134,0.0374695
1702.12696,0.0373174
1701.16258,0.0373071
1700.19820,0.0376281
1699.23382,0.0378363
1698.26945,0.0377500
1697.30507,0.0373422
1696.34069,0.0365619
1695.37631,0.0355524
1694.41194,0.0348596
1693.44756,0.0345894
1692.48318,0.0341612
1691.51880,0.0332702
1690.55442,0.0324360
1689.59005,0.0325825
1688.62567,0.0333591
1687.66129,0.0339908
1686.69691,0.0343582
1685.73253,0.0345090
1684.76816,0.0344901
1683.80378,0.0342953
1682.83940,0.0338960
1681.87502,0.0332214
1680.91065,0.0324230
1679.94627,0.0317423
1678.98189,0.0313588
1678.01751,0.0314039
1677.05313,0.0315607
1676.08876,0.0315735
1675.12438,0.0314814
1674.16000,0.0315323
1673.19562,0.0316812
1672.23124,0.0316849
1671.26687,0.0315336
1670.30249,0.0312319
1669.33811,0.0310063
1668.37373,0.0309717
1667.40935,0.0309385
1666.44498,0.0308227
1665.48060,0.0306624
1664.51622,0.0304966
1663.55184,0.0303971
1662.58747,0.0304762
1661.62309,0.0304952
1660.65871,0.0303129
1659.69433,0.0300016
1658.72995,0.0298709
1657.76558,0.0304821
1656.80120,0.0315954
1655.83682,0.0326793
1654.87244,0.0334150
1653.90806,0.0338068
1652.94369,0.0339394
1651.97931,0.0338333
1651.01493,0.0336968
1650.05055,0.0333952
1649.08618,0.0328066
1648.12180,0.0321674
1647.15742,0.0319166
1646.19304,0.0322284
1645.22866,0.0324922
1644.26429,0.0324219
1643.29991,0.0321912
1642.33553,0.0318947
1641.37115,0.0317062
1640.40677,0.0320660
1639.44240,0.0329199
1638.47802,0.0337269
1637.51364,0.0343229
1636.54926,0.0347548
1635.58488,0.0350394
1634.62051,0.0351535
1633.65613,0.0351534
1632.69175,0.0351164
1631.72737,0.0350354
1630.76300,0.0349053
1629.79862,0.0349097
1628.83424,0.0354121
1627.86986,0.0361001
1626.90548,0.0366517
1625.94111,0.0371383
1624.97673,0.0375383
1624.01235,0.0378162
1623.04797,0.0378746
1622.08359,0.0381464
1621.11922,0.0388096
1620.15484,0.0394247
1619.19046,0.0398810
1618.22608,0.0402303
1617.26171,0.0406255
1616.29733,0.0409637
1615.33295,0.0411354
1614.36857,0.0412159
1613.40419,0.0411757
1612.43982,0.0410178
1611.47544,0.0408676
1610.51106,0.0410847
1609.54668,0.0415252
1608.58230,0.0418504
1607.61793,0.0421424
1606.65355,0.0424205
1605.68917,0.0426862
1604.72479,0.0429332
1603.76041,0.0431916
1602.79604,0.0434687
1601.83166,0.0437352
1600.86728,0.0440150
1599.90290,0.0443073
1598.93853,0.0446048
1597.97415,0.0448914
1597.00977,0.0451837
1596.04539,0.0454598
1595.08101,0.0457212
1594.11664,0.0459676
1593.15226,0.0461840
1592.18788,0.0463757
1591.22350,0.0465415
1590.25912,0.0467018
1589.29475,0.0468436
1588.33037,0.0469896
1587.36599,0.0471060
1586.40161,0.0471875
1585.43724,0.0472309
1584.47286,0.0472346
1583.50848,0.0471758
1582.54410,0.0469565
1581.57972,0.0469655
1580.61535,0.0473672
1579.65097,0.0477797
1578.68659,0.0480537
1577.72221,0.0481832
1576.75783,0.0481183
1575.79346,0.0478395
1574.82908,0.0475783
1573.86470,0.0473373
1572.90032,0.0469397
1571.93594,0.0463325
1570.97157,0.0456360
1570.00719,0.0453241
1569.04281,0.0452504
1568.07843,0.0449591
1567.11406,0.0443908
1566.14968,0.0436441
1565.18530,0.0430675
1564.22092,0.0429089
1563.25654,0.0433688
1562.29217,0.0441310
1561.32779,0.0445461
1560.36341,0.0445762
1559.39903,0.0445033
1558.43465,0.0443421
1557.47028,0.0438311
1556.50590,0.0428705
1555.54152,0.0415783
1554.57714,0.0402805
1553.61276,0.0393253
1552.64839,0.0386600
1551.68401,0.0382060
1550.71963,0.0378292
1549.75525,0.0373651
1548.79088,0.0368941
1547.82650,0.0366514
1546.86212,0.0365988
1545.89774,0.0364562
1544.93336,0.0364731
1543.96899,0.0369393
1543.00461,0.0374886
1542.04023,0.0377386
1541.07585,0.0375797
1540.11147,0.0370637
1539.14710,0.0364777
1538.18272,0.0359551
1537.21834,0.0352504
1536.25396,0.0344717
1535.28959,0.0337509
1534.32521,0.0330228
1533.36083,0.0326441
1532.39645,0.0325865
1531.43207,0.0324449
1530.46770,0.0322407
1529.50332,0.0320014
1528.53894,0.0316801
1527.57456,0.0314584
1526.61018,0.0315729
1525.64581,0.0319408
1524.68143,0.0322874
1523.71705,0.0323847
1522.75267,0.0323335
1521.78829,0.0323132
1520.82392,0.0321999
1519.85954,0.0320026
1518.89516,0.0317071
1517.93078,0.0312543
1516.96641,0.0307226
1516.00203,0.0302218
1515.03765,0.0299774
1514.07327,0.0298780
1513.10889,0.0296686
1512.14452,0.0295563
1511.18014,0.0299362
1510.21576,0.0306941
1509.25138,0.0313468
1508.28700,0.0317157
1507.32263,0.0317957
1506.35825,0.0316944
1505.39387,0.0313873
1504.42949,0.0308558
1503.46512,0.0302415
1502.50074,0.0294882
1501.53636,0.0289656
1500.57198,0.0290299
1499.60760,0.0294384
1498.64323,0.0298550
1497.67885,0.0300086
1496.71447,0.0299373
1495.75009,0.0298533
1494.78571,0.0298155
1493.82134,0.0297272
1492.85696,0.0296645
1491.89258,0.0296941
1490.92820,0.0296997
1489.96382,0.0298591
1488.99945,0.0300898
1488.03507,0.0301069
1487.07069,0.0299793
1486.10631,0.0297822
1485.14194,0.0295989
1484.17756,0.0295336
1483.21318,0.0295254
1482.24880,0.0295140
1481.28442,0.0296536
1480.32005,0.0298938
1479.35567,0.0300675
1478.39129,0.0303204
1477.42691,0.0307488
1476.46253,0.0312802
1475.49816,0.0317566
1474.53378,0.0321067
1473.56940,0.0323303
1472.60502,0.0323758
1471.64065,0.0322211
1470.67627,0.0320106
1469.71189,0.0320033
1468.74751,0.0320226
1467.78313,0.0319940
1466.81876,0.0321349
1465.85438,0.0323769
1464.89000,0.0326388
1463.92562,0.0327635
1462.96124,0.0328236
1461.99687,0.0332132
1461.03249,0.0338758
1460.06811,0.0344987
1459.10373,0.0350492
1458.13935,0.0356019
1457.17498,0.0359712
1456.21060,0.0361032
1455.24622,0.0360174
1454.28184,0.0356829
1453.31747,0.0353054
1452.35309,0.0349811
1451.38871,0.0348446
1450.42433,0.0351048
1449.45995,0.0355187
1448.49558,0.0357967
1447.53120,0.0359896
1446.56682,0.0361608
1445.60244,0.0362983
1444.63806,0.0364165
1443.67369,0.0363793
1442.70931,0.0363261
1441.74493,0.0366734
1440.78055,0.0372862
1439.81618,0.0378175
1438.85180,0.0382367
1437.88742,0.0385878
1436.92304,0.0388365
1435.95866,0.0389960
1434.99429,0.0391071
1434.02991,0.0391592
1433.06553,0.0391005
1432.10115,0.0389352
1431.13677,0.0388768
1430.17240,0.0390970
1429.20802,0.0393891
1428.24364,0.0395827
1427.27926,0.0397424
1426.31488,0.0397865
1425.35051,0.0397642
1424.38613,0.0399963
1423.42175,0.0404463
1422.45737,0.0409001
1421.49300,0.0412726
1420.52862,0.0415423
1419.56424,0.0416919
1418.59986,0.0417415
1417.63548,0.0417646
1416.67111,0.0417206
1415.70673,0.0415684
1414.74235,0.0413064
1413.77797,0.0411259
1412.81359,0.0412212
1411.84922,0.0413459
1410.88484,0.0414092
1409.92046,0.0415177
1408.95608,0.0416346
1407.99171,0.0417390
1407.02733,0.0418295
1406.06295,0.0418940
1405.09857,0.0419512
1404.13419,0.0420763
1403.16982,0.0422397
1402.20544,0.0423697
1401.24106,0.0424411
1400.27668,0.0424952
1399.31230,0.0426784
1398.34793,0.0429444
1397.38355,0.0431474
1396.41917,0.0432452
1395.45479,0.0432440
1394.49041,0.0431368
1393.52604,0.0430015
1392.56166,0.0430188
1391.59728,0.0431219
1390.63290,0.0431798
1389.66853,0.0431983
1388.70415,0.0432609
1387.73977,0.0434215
1386.77539,0.0435391
1385.81101,0.0435672
1384.84664,0.0435385
1383.88226,0.0434584
1382.91788,0.0433590
1381.95350,0.0432889
1380.98912,0.0433276
1380.02475,0.0434253
1379.06037,0.0435538
1378.09599,0.0437219
1377.13161,0.0438863
1376.16724,0.0440420
1375.20286,0.0441529
1374.23848,0.0442312
1373.27410,0.0443015
1372.30972,0.0443388
1371.34535,0.0443442
1370.38097,0.0442988
1369.41659,0.0442160
1368.45221,0.0442047
1367.48783,0.0443157
1366.52346,0.0444762
1365.55908,0.0446366
1364.59470,0.0447709
1363.63032,0.0448726
1362.66594,0.0449699
1361.70157,0.0450514
1360.73719,0.0450914
1359.77281,0.0451000
1358.80843,0.0450900
1357.84406,0.0450676
1356.87968,0.0450816
1355.91530,0.0451375
1354.95092,0.0452116
1353.98654,0.0453022
1353.02217,0.0453731
1352.05779,0.0454403
1351.09341,0.0455160
1350.12903,0.0455866
1349.16465,0.0456638
1348.20028,0.0457372
1347.23590,0.0457992
1346.27152,0.0458457
1345.30714,0.0459074
1344.34276,0.0460129
1343.37839,0.0461484
1342.41401,0.0462958
1341.44963,0.0464496
1340.48525,0.0466161
1339.52088,0.0467657
1338.55650,0.0468859
1337.59212,0.0469876
1336.62774,0.0470639
1335.66336,0.0471108
1334.69899,0.0471490
1333.73461,0.0472242
1332.77023,0.0473359
1331.80585,0.0474665
1330.84147,0.0476046
1329.87710,0.0477431
1328.91272,0.0478922
1327.94834,0.0480361
1326.98396,0.0481772
1326.01959,0.0483361
1325.05521,0.0485090
1324.09083,0.0486858
1323.12645,0.0488645
1322.16207,0.0490507
1321.19770,0.0492393
1320.23332,0.0494281
1319.26894,0.0496130
1318.30456,0.0497968
1317.34018,0.0499893
1316.37581,0.0501720
1315.41143,0.0503455
1314.44705,0.0505327
1313.48267,0.0507354
1312.51829,0.0509504
1311.55392,0.0511576
1310.58954,0.0513529
1309.62516,0.0515579
1308.66078,0.0517721
1307.69641,0.0519877
1306.73203,0.0521974
1305.76765,0.0523993
1304.80327,0.0526010
1303.83889,0.0528084
1302.87452,0.0530249
1301.91014,0.0532510
1300.94576,0.0534882
1299.98138,0.0537220
1299.01700,0.0539487
1298.05263,0.0541754
1297.08825,0.0543975
1296.12387,0.0546191
1295.15949,0.0548410
1294.19512,0.0550677
1293.23074,0.0553055
1292.26636,0.0555476
1291.30198,0.0557818
1290.33760,0.0560029
1289.37323,0.0562209
1288.40885,0.0564371
1287.44447,0.0566410
1286.48009,0.0568195
1285.51571,0.0569789
1284.55134,0.0571327
1283.58696,0.0572808
1282.62258,0.0574367
1281.65820,0.0576086
1280.69382,0.0577759
1279.72945,0.0579240
1278.76507,0.0580676
1277.80069,0.0582153
1276.83631,0.0583648
1275.87194,0.0585073
1274.90756,0.0586317
1273.94318,0.0587499
1272.97880,0.0588621
1272.01442,0.0589732
1271.05005,0.0590990
1270.08567,0.0592235
1269.12129,0.0593279
1268.15691,0.0594205
1267.19253,0.0595143
1266.22816,0.0595957
1265.26378,0.0596666
1264.29940,0.0597430
1263.33502,0.0598224
1262.37065,0.0598996
1261.40627,0.0599687
1260.44189,0.0600457
1259.47751,0.0601328
1258.51313,0.0602058
1257.54876,0.0602665
1256.58438,0.0603270
1255.62000,0.0603879
1254.65562,0.0604360
1253.69124,0.0604680
1252.72687,0.0604973
1251.76249,0.0605255
1250.79811,0.0605515
1249.83373,0.0605831
1248.86935,0.0606186
1247.90498,0.0606460
1246.94060,0.0606649
1245.97622,0.0606803
1245.01184,0.0606976
1244.04747,0.0607220
1243.08309,0.0607381
1242.11871,0.0607389
1241.15433,0.0607376
1240.18995,0.0607340
1239.22558,0.0607272
1238.26120,0.0607207
1237.29682,0.0607165
1236.33244,0.0607233
1235.36806,0.0607336
1234.40369,0.0607264
1233.43931,0.0607084
1232.47493,0.0606953
1231.51055,0.0606782
1230.54618,0.0606619
1229.58180,0.0606510
1228.61742,0.0606242
1227.65304,0.0605848
1226.68866,0.0605315
1225.72429,0.0604550
1224.75991,0.0603758
1223.79553,0.0602967
1222.83115,0.0602029
1221.86677,0.0600990
1220.90240,0.0599921
1219.93802,0.0598853
1218.97364,0.0597865
1218.00926,0.0596882
1217.04488,0.0595833
1216.08051,0.0594724
1215.11613,0.0593378
1214.15175,0.0591845
1213.18737,0.0590427
1212.22300,0.0589136
1211.25862,0.0587790
1210.29424,0.0586411
1209.32986,0.0585039
1208.36548,0.0583712
1207.40111,0.0582564
1206.43673,0.0581532
1205.47235,0.0580674
1204.50797,0.0579924
1203.54359,0.0579092
1202.57922,0.0578326
1201.61484,0.0577571
1200.65046,0.0576631
1199.68608,0.0575517
1198.72171,0.0574434
1197.75733,0.0573429
1196.79295,0.0572471
1195.82857,0.0571716
1194.86419,0.0571084
1193.89982,0.0570620
1192.93544,0.0570359
1191.97106,0.0570181
1191.00668,0.0570090
1190.04230,0.0569887
1189.07793,0.0569546
1188.11355,0.0569303
1187.14917,0.0569140
1186.18479,0.0568845
1185.22041,0.0568475
1184.25604,0.0568181
1183.29166,0.0567845
1182.32728,0.0567480
1181.36290,0.0567190
1180.39853,0.0566908
1179.43415,0.0566458
1178.46977,0.0565950
1177.50539,0.0565726
1176.54101,0.0565650
1175.57664,0.0565367
1174.61226,0.0564911
1173.64788,0.0564508
1172.68350,0.0564034
1171.71912,0.0563247
1170.75475,0.0562287
1169.79037,0.0561466
1168.82599,0.0560770
1167.86161,0.0560058
1166.89724,0.0559496
1165.93286,0.0559074
1164.96848,0.0558550
1164.00410,0.0557836
1163.03972,0.0556993
1162.07535,0.0556040
1161.11097,0.0554755
1160.14659,0.0553166
1159.18221,0.0551628
1158.21783,0.0550303
1157.25346,0.0549049
1156.28908,0.0547767
1155.32470,0.0546527
1154.36032,0.0545228
1153.39594,0.0543776
1152.43157,0.0542174
1151.46719,0.0540533
1150.50281,0.0538918
1149.53843,0.0537164
1148.57406,0.0535487
1147.60968,0.0534151
1146.64530,0.0532913
1145.68092,0.0531558
1144.71654,0.0530179
1143.75217,0.0528985
1142.78779,0.0527791
1141.82341,0.0526341
1140.85903,0.0524852
1139.89465,0.0523446
1138.93028,0.0522003
1137.96590,0.0520526
1137.00152,0.0519298
1136.03714,0.0518458
1135.07276,0.0517650
1134.10839,0.0516726
1133.14401,0.0515954
1132.17963,0.0515512
1131.21525,0.0515091
1130.25088,0.0514376
1129.28650,0.0513572
1128.32212,0.0512686
1127.35774,0.0511667
1126.39336,0.0510653
1125.42899,0.0509759
1124.46461,0.0509023
1123.50023,0.0508224
1122.53585,0.0507331
1121.57147,0.0506607
1120.60710,0.0506158
1119.64272,0.0505629
1118.67834,0.0504843
1117.71396,0.0504243
1116.74959,0.0503917
1115.78521,0.0503573
1114.82083,0.0503220
1113.85645,0.0503067
1112.89207,0.0503079
1111.92770,0.0503103
1110.96332,0.0503155
1109.99894,0.0503256
1109.03456,0.0503375
1108.07018,0.0503326
1107.10581,0.0503175
1106.14143,0.0503168
1105.17705,0.0503144
1104.21267,0.0503026
1103.24829,0.0503124
1102.28392,0.0503537
1101.31954,0.0503949
1100.35516,0.0504302
1099.39078,0.0504638
1098.42641,0.0504936
1097.46203,0.0505288
1096.49765,0.0505595
1095.53327,0.0505950
1094.56889,0.0506409
1093.60452,0.0506773
1092.64014,0.0507187
1091.67576,0.0507941
1090.71138,0.0509005
1089.74700,0.0510043
1088.78263,0.0510940
1087.81825,0.0511822
1086.85387,0.0512753
1085.88949,0.0513793
1084.92512,0.0514898
1083.96074,0.0515993
1082.99636,0.0516915
1082.03198,0.0517405
1081.06760,0.0517713
1080.10323,0.0518257
1079.13885,0.0518971
1078.17447,0.0519717
1077.21009,0.0520393
1076.24571,0.0521113
1075.28134,0.0522133
1074.31696,0.0523384
1073.35258,0.0524659
1072.38820,0.0525854
1071.42382,0.0527123
1070.45945,0.0528335
1069.49507,0.0529406
1068.53069,0.0530589
1067.56631,0.0531800
1066.60194,0.0533082
1065.63756,0.0534332
1064.67318,0.0535523
1063.70880,0.0536910
1062.74442,0.0538305
1061.78005,0.0539716
1060.81567,0.0541223
1059.85129,0.0542716
1058.88691,0.0544042
1057.92253,0.0545129
1056.95816,0.0546057
1055.99378,0.0546698
1055.02940,0.0547040
1054.06502,0.0547026
1053.10065,0.0546595
1052.13627,0.0545861
1051.17189,0.0544803
1050.20751,0.0543293
1049.24313,0.0541240
1048.27876,0.0538862
1047.31438,0.0536349
1046.35000,0.0533689
1045.38562,0.0530969
1044.42124,0.0528283
1043.45687,0.0525578
1042.49249,0.0522764
1041.52811,0.0519806
1040.56373,0.0516601
1039.59935,0.0513143
1038.63498,0.0509367
1037.67060,0.0505325
1036.70622,0.0501372
1035.74184,0.0497592
1034.77747,0.0493966
1033.81309,0.0490450
1032.84871,0.0486911
1031.88433,0.0483375
1030.91995,0.0479912
1029.95558,0.0476419
1028.99120,0.0472819
1028.02682,0.0469237
1027.06244,0.0465725
1026.09806,0.0462249
1025.13369,0.0458821
1024.16931,0.0455672
1023.20493,0.0452823
1022.24055,0.0449925
1021.27618,0.0446908
1020.31180,0.0443801
1019.34742,0.0440677
1018.38304,0.0437648
1017.41866,0.0434838
1016.45429,0.0432268
1015.48991,0.0429706
1014.52553,0.0427140
1013.56115,0.0424700
1012.59677,0.0422575
1011.63240,0.0420716
1010.66802,0.0418865
1009.70364,0.0416940
1008.73926,0.0414917
1007.77488,0.0412971
1006.81051,0.0411307
1005.84613,0.0410156
1004.88175,0.0409261
1003.91737,0.0408055
1002.95300,0.0406706
1001.98862,0.0405440
1001.02424,0.0404200
1000.05986,0.0403005
999.09548,0.0401937
998.13111,0.0400949
997.16673,0.0399954
996.20235,0.0399016
995.23797,0.0398361
994.27359,0.0398119
993.30922,0.0397829
992.34484,0.0397358
991.38046,0.0396699
990.41608,0.0395596
989.45171,0.0394325
988.48733,0.0392951
987.52295,0.0391552
986.55857,0.0390361
985.59419,0.0389268
984.62982,0.0388189
983.66544,0.0387205
982.70106,0.0386213
981.73668,0.0384954
980.77230,0.0383821
979.80793,0.0382626
978.84355,0.0380845
977.87917,0.0379079
976.91479,0.0377556
975.95041,0.0376323
974.98604,0.0375503
974.02166,0.0374595
973.05728,0.0373427
972.09290,0.0372206
971.12853,0.0370802
970.16415,0.0369197
969.19977,0.0367886
968.23539,0.0366691
967.27101,0.0365223
966.30664,0.0363903
965.34226,0.0362810
964.37788,0.0361701
963.41350,0.0360461
962.44912,0.0358964
961.48475,0.0357263
960.52037,0.0355456
959.55599,0.0353677
958.59161,0.0351861
957.62724,0.0350045
956.66286,0.0348546
955.69848,0.0347247
954.73410,0.0345938
953.76972,0.0344693
952.80535,0.0343503
951.84097,0.0342220
950.87659,0.0340925
949.91221,0.0339823
948.94783,0.0338716
947.98346,0.0337397
947.01908,0.0335910
946.05470,0.0334557
945.09032,0.0333489
944.12594,0.0332201
943.16157,0.0330724
942.19719,0.0329331
941.23281,0.0327772
940.26843,0.0326181
939.30406,0.0325022
938.33968,0.0324313
937.37530,0.0323413
936.41092,0.0322176
935.44654,0.0321121
934.48217,0.0320210
933.51779,0.0318942
932.55341,0.0317226
931.58903,0.0315614
930.62465,0.0314162
929.66028,0.0312762
928.69590,0.0311830
927.73152,0.0311237
926.76714,0.0310803
925.80276,0.0310490
924.83839,0.0310034
923.87401,0.0309513
922.90963,0.0308893
921.94525,0.0308042
920.98088,0.0307177
920.01650,0.0306443
919.05212,0.0305837
918.08774,0.0305344
917.12336,0.0304999
916.15899,0.0304753
915.19461,0.0304346
914.23023,0.0303932
913.26585,0.0303749
912.30147,0.0303598
911.33710,0.0303440
910.37272,0.0303410
909.40834,0.0303422
908.44396,0.0303243
907.47959,0.0303037
906.51521,0.0303047
905.55083,0.0303201
904.58645,0.0303350
903.62207,0.0303241
902.65770,0.0303277
901.69332,0.0303596
900.72894,0.0303729
899.76456,0.0304005
898.80018,0.0304559
897.83581,0.0305054
896.87143,0.0305436
895.90705,0.0306006
894.94267,0.0307085
893.97829,0.0308371
893.01392,0.0309310
892.04954,0.0309705
891.08516,0.0309788
890.12078,0.0309859
889.15641,0.0310151
888.19203,0.0310616
887.22765,0.0311057
886.26327,0.0311581
885.29889,0.0312194
884.33452,0.0312922
883.37014,0.0313794
882.40576,0.0314620
881.44138,0.0315260
880.47700,0.0315778
879.51263,0.0316319
878.54825,0.0316741
877.58387,0.0316841
876.61949,0.0316641
875.65512,0.0316535
874.69074,0.0316637
873.72636,0.0316555
872.76198,0.0316416
871.79760,0.0316557
870.83323,0.0317329
869.86885,0.0318696
868.90447,0.0319965
867.94009,0.0320927
866.97571,0.0321611
866.01134,0.0321888
865.04696,0.0321911
864.08258,0.0321845
863.11820,0.0321659
862.15382,0.0321408
861.18945,0.0321143
860.22507,0.0320881
859.26069,0.0320821
858.29631,0.0320768
857.33194,0.0320421
856.36756,0.0320119
855.40318,0.0319994
854.43880,0.0319790
853.47442,0.0319569
852.51005,0.0319406
851.54567,0.0319271
850.58129,0.0319319
849.61691,0.0319348
848.65253,0.0319093
847.68816,0.0318822
846.72378,0.0318618
845.75940,0.0318429
844.79502,0.0318262
843.83065,0.0317886
842.86627,0.0317166
841.90189,0.0316123
840.93751,0.0314833
839.97313,0.0313599
839.00876,0.0312814
838.04438,0.0312303
837.08000,0.0311634
836.11562,0.0311086
835.15124,0.0311038
834.18687,0.0311240
833.22249,0.0311116
832.25811,0.0310611
831.29373,0.0310013
830.32935,0.0308959
829.36498,0.0307387
828.40060,0.0305892
827.43622,0.0304825
826.47184,0.0304011
825.50747,0.0303051
824.54309,0.0302297
823.57871,0.0302058
822.61433,0.0301772
821.64995,0.0301351
820.68558,0.0301342
819.72120,0.0301704
818.75682,0.0301899
817.79244,0.0301669
816.82806,0.0300965
815.86369,0.0300368
814.89931,0.0300218
813.93493,0.0299889
812.97055,0.0299376
812.00618,0.0298574
811.04180,0.0297303
810.07742,0.0296419
809.11304,0.0296142
808.14866,0.0296046
807.18429,0.0295904
806.21991,0.0295427
805.25553,0.0294691
804.29115,0.0294289
803.32677,0.0294229
802.36240,0.0293910
801.39802,0.0293462
800.43364,0.0292988
799.46926,0.0292513
798.50488,0.0292358
797.54051,0.0292193
796.57613,0.0292094
795.61175,0.0292164
794.64737,0.0292021
793.68300,0.0291652
792.71862,0.0291086
791.75424,0.0290570
790.78986,0.0290004
789.82548,0.0289271
788.86111,0.0288589
787.89673,0.0287838
786.93235,0.0287168
785.96797,0.0286864
785.00359,0.0286908
784.03922,0.0286865
783.07484,0.0286814
782.11046,0.0287197
781.14608,0.0287830
780.18171,0.0288559
779.21733,0.0288911
778.25295,0.0288844
777.28857,0.0288672
776.32419,0.0288303
775.35982,0.0288008
774.39544,0.0287612
773.43106,0.0286935
772.46668,0.0286410
771.50230,0.0286489
770.53793,0.0287152
769.57355,0.0287880
768.60917,0.0288472
767.64479,0.0288891
766.68041,0.0289305
765.71604,0.0289747
764.75166,0.0290071
763.78728,0.0290212
762.82290,0.0289849
761.85853,0.0289387
760.89415,0.0289247
759.92977,0.0289196
758.96539,0.0289230
758.00101,0.0289199
757.03664,0.0289022
756.07226,0.0289071
755.10788,0.0289526
754.14350,0.0290098
753.17912,0.0290611
752.21475,0.0290962
751.25037,0.0290933
750.28599,0.0290760
749.32161,0.0290482
748.35724,0.0290177
747.39286,0.0290411
746.42848,0.0290797
745.46410,0.0291029
744.49972,0.0291387
743.53535,0.0291635
742.57097,0.0292030
741.60659,0.0292561
740.64221,0.0292765
739.67783,0.0292754
738.71346,0.0292621
737.74908,0.0292479
736.78470,0.0292714
735.82032,0.0293514
734.85594,0.0294375
733.89157,0.0295077
732.92719,0.0295859
731.96281,0.0296641
730.99843,0.0297382
730.03406,0.0297811
729.06968,0.0298157
728.10530,0.0298749
727.14092,0.0299070
726.17654,0.0299125
725.21217,0.0299333
724.24779,0.0299980
723.28341,0.0301049
722.31903,0.0301971
721.35465,0.0302568
720.39028,0.0302807
719.42590,0.0302553
718.46152,0.0302135
717.49714,0.0301749
716.53276,0.0301357
715.56839,0.0300893
714.60401,0.0300586
713.63963,0.0300843
712.67525,0.0301543
711.71088,0.0302568
710.74650,0.0303595
709.78212,0.0304231
708.81774,0.0304554
707.85336,0.0304614
706.88899,0.0304239
705.92461,0.0303431
704.96023,0.0302870
703.99585,0.0302678
703.03147,0.0302518
702.06710,0.0302451
701.10272,0.0302550
700.13834,0.0303080
699.17396,0.0303902
698.20959,0.0304854
697.24521,0.0305638
696.28083,0.0305901
695.31645,0.0305805
694.35207,0.0305579
693.38770,0.0305791
692.42332,0.0306162
691.45894,0.0306142
690.49456,0.0305867
689.53018,0.0305774
688.56581,0.0306300
687.60143,0.0307337
686.63705,0.0308760
685.67267,0.0309897
684.70829,0.0310616
683.74392,0.0311152
682.77954,0.0311698
681.81516,0.0312531
680.85078,0.0312966
679.88641,0.0313102
678.92203,0.0313037
677.95765,0.0312882
676.99327,0.0312729
676.02889,0.0312268
675.06452,0.0310141
674.10014,0.0306081
673.13576,0.0308869
672.17138,0.0319570
671.20700,0.0330043
670.24263,0.0337833
669.27825,0.0342642
668.31387,0.0344919
667.34949,0.0344554
666.38512,0.0341235
665.42074,0.0335068
664.45636,0.0325919
663.49198,0.0314813
662.52760,0.0305887
661.56323,0.0306453
660.59885,0.0311432
659.63447,0.0313308
658.67009,0.0314047
657.70571,0.0314692
656.74134,0.0315632
655.77696,0.0316612
654.81258,0.0317148
653.84820,0.0317313
652.88382,0.0316923
651.91945,0.0316501
650.95507,0.0315923
649.99069,0.0315449
649.02631,0.0314936
648.06194,0.0314436
647.09756,0.0314268
646.13318,0.0314239
645.16880,0.0314637
644.20442,0.0314944
643.24005,0.0315123
642.27567,0.0315305
641.31129,0.0315542
640.34691,0.0315887
639.38253,0.0316038
638.41816,0.0316131
637.45378,0.0316188
636.48940,0.0316496
635.52502,0.0316549
634.56065,0.0316125
633.59627,0.0315328
632.63189,0.0313242
631.66751,0.0310669
630.70313,0.0307808
629.73876,0.0303978
628.77438,0.0299283
627.81000,0.0293909
626.84562,0.0291646
625.88124,0.0294842
624.91687,0.0299641
623.95249,0.0305797
622.98811,0.0316067
622.02373,0.0325359
621.05935,0.0331453
620.09498,0.0334224
619.13060,0.0334659
618.16622,0.0335297
617.20184,0.0331809
616.23747,0.0324502
615.27309,0.0320342
614.30871,0.0321491
613.34433,0.0324901
612.37995,0.0332412
611.41558,0.0344214
610.45120,0.0354065
609.48682,0.0363751
608.52244,0.0371196
607.55806,0.0376948
606.59369,0.0382374
605.62931,0.0381328
604.66493,0.0375667
603.70055,0.0369678
602.73618,0.0365530
601.77180,0.0362623
600.80742,0.0359785
599.84304,0.0357403
598.87866,0.0355863
597.91429,0.0356040
596.94991,0.0355005
595.98553,0.0353248
595.02115,0.0353267
594.05677,0.0354405
593.09240,0.0356071
592.12802,0.0358388
591.16364,0.0361639
590.19926,0.0364733
589.23488,0.0365842
588.27051,0.0365255
587.30613,0.0364228
586.34175,0.0362430
585.37737,0.0359895
584.41300,0.0357567
583.44862,0.0356055
582.48424,0.0355397
581.51986,0.0355158
580.55548,0.0355511
579.59111,0.0356622
578.62673,0.0357378
577.66235,0.0356472
576.69797,0.0355089
575.73359,0.0354094
574.76922,0.0351685
573.80484,0.0348663
572.84046,0.0346523
571.87608,0.0343965
570.91171,0.0340704
569.94733,0.0337838
568.98295,0.0336430
568.01857,0.0335898
567.05419,0.0334976
566.08982,0.0334310
565.12544,0.0334384
564.16106,0.0334451
563.19668,0.0333845
562.23230,0.0333810
561.26793,0.0334971
560.30355,0.0335392
559.33917,0.0335625
558.37479,0.0336053
557.41041,0.0335696
556.44604,0.0334943
555.48166,0.0333833
554.51728,0.0333131
553.55290,0.0332245
552.58853,0.0330539
551.62415,0.0328976
550.65977,0.0327913
549.69539,0.0327648
548.73101,0.0327373
547.76664,0.0326756
546.80226,0.0325365
545.83788,0.0323854
544.87350,0.0323031
543.90912,0.0321723
542.94475,0.0321148
541.98037,0.0320628
541.01599,0.0319394
540.05161,0.0318960
539.08724,0.0319122
538.12286,0.0319412
537.15848,0.0318785
536.19410,0.0318216
535.22972,0.0318301
534.26535,0.0318130
533.30097,0.0317803
532.33659,0.0317172
531.37221,0.0317156
530.40783,0.0317437
529.44346,0.0317951
528.47908,0.0318712
527.51470,0.0318867
526.55032,0.0318676
525.58594,0.0317685
524.62157,0.0317159
523.65719,0.0316947
522.69281,0.0315842
521.72843,0.0315366
520.76406,0.0315039
519.79968,0.0314211
518.83530,0.0313771
517.87092,0.0313822
516.90654,0.0313625
515.94217,0.0313350
514.97779,0.0313588
514.01341,0.0313076
513.04903,0.0312389
512.08465,0.0312907
511.12028,0.0313678
510.15590,0.0314091
509.19152,0.0313576
508.22714,0.0312739
507.26276,0.0312833
506.29839,0.0313109
505.33401,0.0313373
504.36963,0.0313741
503.40525,0.0314197
502.44088,0.0314905
501.47650,0.0315646
500.51212,0.0316914
499.54774,0.0317679
498.58336,0.0316776
497.61899,0.0315590
496.65461,0.0314689
495.69023,0.0312921
494.72585,0.0310543
493.76147,0.0308359
492.79710,0.0305966
491.83272,0.0304802
490.86834,0.0305538
489.90396,0.0306938
488.93959,0.0309120
487.97521,0.0311239
487.01083,0.0313025
486.04645,0.0315051
485.08207,0.0315725
484.11770,0.0314037
483.15332,0.0311608
482.18894,0.0309414
481.22456,0.0307654
480.26018,0.0307418
479.29581,0.0307339
478.33143,0.0306930
477.36705,0.0307900
476.40267,0.0309409
475.43829,0.0310592
474.47392,0.0311168
473.50954,0.0310675
472.54516,0.0309177
471.58078,0.0307441
470.61641,0.0306519
469.65203,0.0306197
468.68765,0.0305767
467.72327,0.0304765
466.75889,0.0304311
465.79452,0.0305168
464.83014,0.0305460
463.86576,0.0305105
462.90138,0.0305695
461.93700,0.0307207
460.97263,0.0308653
460.00825,0.0309441
459.04387,0.0310008
458.07949,0.0310431
457.11512,0.0310581
456.15074,0.0310696
455.18636,0.0310918
454.22198,0.0310774
453.25760,0.0309318
452.29323,0.0308372
451.32885,0.0308961
450.36447,0.0309034
449.40009,0.0308482
448.43571,0.0307931
447.47134,0.0307723
446.50696,0.0307306
445.54258,0.0306202
444.57820,0.0305313
443.61382,0.0304586
442.64945,0.0303957
441.68507,0.0303552
440.72069,0.0304156
439.75631,0.0304943
438.79194,0.0304710
437.82756,0.0304877
436.86318,0.0305191
435.89880,0.0305091
434.93442,0.0304068
433.97005,0.0302487
433.00567,0.0301327
432.04129,0.0299466
431.07691,0.0297793
430.11253,0.0296932
429.14816,0.0295998
428.18378,0.0295368
427.21940,0.0295276
426.25502,0.0294824
425.29065,0.0294055
424.32627,0.0295105
423.36189,0.0298019
422.39751,0.0301274
421.43313,0.0303247
420.46876,0.0303187
419.50438,0.0302211
418.54000,0.0300479
417.57562,0.0297850
416.61124,0.0295064
415.64687,0.0291921
414.68249,0.0287704
413.71811,0.0285004
412.75373,0.0285515
411.78935,0.0286901
410.82498,0.0287709
409.86060,0.0287415
408.89622,0.0286405
407.93184,0.0284924
406.96747,0.0283404
406.00309,0.0281887
405.03871,0.0280040
404.07433,0.0280040
403.10995,0.0280040
402.14558,0.0280040
401.18120,0.0280040
400.21682,0.0280040
399.25244,0.0280040
