3998.31069,0.06764
3997.34631,0.06732
3996.38194,0.06786
3995.41756,0.06828
3994.45318,0.06847
3993.48880,0.06831
3992.52442,0.06812
3991.56005,0.06790
3990.59567,0.06752
3989.63129,0.06770
3988.66691,0.06832
3987.70253,0.06837
3986.73816,0.06807
3985.77378,0.06798
3984.80940,0.06798
3983.84502,0.06821
3982.88065,0.06823
3981.91627,0.06776
3980.95189,0.06745
3979.98751,0.06792
3979.02313,0.06869
3978.05876,0.06836
3977.09438,0.06782
3976.13000,0.06816
3975.16562,0.06829
3974.20124,0.06800
3973.23687,0.06773
3972.27249,0.06754
3971.30811,0.06730
3970.34373,0.06743
3969.37935,0.06780
3968.41498,0.06788
3967.45060,0.06791
3966.48622,0.06794
3965.52184,0.06812
3964.55747,0.06794
3963.59309,0.06735
3962.62871,0.06714
3961.66433,0.06683
3960.69995,0.06660
3959.73558,0.06711
3958.77120,0.06762
3957.80682,0.06745
3956.84244,0.06755
3955.87806,0.06782
3954.91369,0.06766
3953.94931,0.06764
3952.98493,0.06720
3952.02055,0.06688
3951.05618,0.06689
3950.09180,0.06668
3949.12742,0.06719
3948.16304,0.06771
3947.19866,0.06774
3946.23429,0.06749
3945.26991,0.06727
3944.30553,0.06750
3943.34115,0.06769
3942.37677,0.06767
3941.41240,0.06744
3940.44802,0.06744
3939.48364,0.06725
3938.51926,0.06698
3937.55488,0.06719
3936.59051,0.06689
3935.62613,0.06685
3934.66175,0.06717
3933.69737,0.06702
3932.73300,0.06687
3931.76862,0.06687
3930.80424,0.06690
3929.83986,0.06663
3928.87548,0.06647
3927.91111,0.06653
3926.94673,0.06675
3925.98235,0.06707
3925.01797,0.06722
3924.05359,0.06751
3923.08922,0.06770
3922.12484,0.06759
3921.16046,0.06711
3920.19608,0.06673
3919.23171,0.06683
3918.26733,0.06681
3917.30295,0.06692
3916.33857,0.06716
3915.37419,0.06723
3914.40982,0.06707
3913.44544,0.06665
3912.48106,0.06635
3911.51668,0.06633
3910.55230,0.06636
3909.58793,0.06610
3908.62355,0.06615
3907.65917,0.06628
3906.69479,0.06605
3905.73041,0.06606
3904.76604,0.06622
3903.80166,0.06621
3902.83728,0.06620
3901.87290,0.06642
3900.90853,0.06627
3899.94415,0.06603
3898.97977,0.06628
3898.01539,0.06620
3897.05101,0.06615
3896.08664,0.06636
3895.12226,0.06662
3894.15788,0.06661
3893.19350,0.06625
3892.22912,0.06646
3891.26475,0.06657
3890.30037,0.06644
3889.33599,0.06658
3888.37161,0.06637
3887.40724,0.06612
3886.44286,0.06631
3885.47848,0.06653
3884.51410,0.06641
3883.54972,0.06613
3882.58535,0.06595
3881.62097,0.06603
3880.65659,0.06609
3879.69221,0.06591
3878.72783,0.06593
3877.76346,0.06625
3876.79908,0.06645
3875.83470,0.06617
3874.87032,0.06618
3873.90594,0.06652
3872.94157,0.06636
3871.97719,0.06615
3871.01281,0.06618
3870.04843,0.06627
3869.08406,0.06624
3868.11968,0.06645
3867.15530,0.06680
3866.19092,0.06661
3865.22654,0.06657
3864.26217,0.06668
3863.29779,0.06644
3862.33341,0.06619
3861.36903,0.06595
3860.40465,0.06576
3859.44028,0.06572
3858.47590,0.06595
3857.51152,0.06613
3856.54714,0.06591
3855.58276,0.06594
3854.61839,0.06644
3853.65401,0.06639
3852.68963,0.06599
3851.72525,0.06589
3850.76088,0.06568
3849.79650,0.06576
3848.83212,0.06617
3847.86774,0.06593
3846.90336,0.06524
3845.93899,0.06523
3844.97461,0.06581
3844.01023,0.06562
3843.04585,0.06497
3842.08147,0.06492
3841.11710,0.06513
3840.15272,0.06515
3839.18834,0.06506
3838.22396,0.06479
3837.25959,0.06474
3836.29521,0.06542
3835.33083,0.06575
3834.36645,0.06519
3833.40207,0.06502
3832.43770,0.06529
3831.47332,0.06515
3830.50894,0.06491
3829.54456,0.06505
3828.58018,0.06513
3827.61581,0.06517
3826.65143,0.06544
3825.68705,0.06533
3824.72267,0.06502
3823.75829,0.06526
3822.79392,0.06539
3821.82954,0.06489
3820.86516,0.06492
3819.90078,0.06507
3818.93641,0.06466
3817.97203,0.06475
3817.00765,0.06504
3816.04327,0.06514
3815.07889,0.06483
3814.11452,0.06413
3813.15014,0.06394
3812.18576,0.06401
3811.22138,0.06418
3810.25700,0.06457
3809.29263,0.06483
3808.32825,0.06488
3807.36387,0.06470
3806.39949,0.06469
3805.43512,0.06460
3804.47074,0.06451
3803.50636,0.06479
3802.54198,0.06490
3801.57760,0.06486
3800.61323,0.06484
3799.64885,0.06501
3798.68447,0.06490
3797.72009,0.06428
3796.75571,0.06426
3795.79134,0.06432
3794.82696,0.06409
3793.86258,0.06401
3792.89820,0.06376
3791.93382,0.06362
3790.96945,0.06368
3790.00507,0.06388
3789.04069,0.06395
3788.07631,0.06401
3787.11194,0.06410
3786.14756,0.06379
3785.18318,0.06376
3784.21880,0.06393
3783.25442,0.06398
3782.29005,0.06383
3781.32567,0.06358
3780.36129,0.06363
3779.39691,0.06360
3778.43253,0.06371
3777.46816,0.06363
3776.50378,0.06333
3775.53940,0.06362
3774.57502,0.06402
3773.61065,0.06390
3772.64627,0.06324
3771.68189,0.06302
3770.71751,0.06323
3769.75313,0.06312
3768.78876,0.06286
3767.82438,0.06284
3766.86000,0.06312
3765.89562,0.06293
3764.93124,0.06278
3763.96687,0.06319
3763.00249,0.06388
3762.03811,0.06428
3761.07373,0.06390
3760.10935,0.06377
3759.14498,0.06384
3758.18060,0.06356
3757.21622,0.06313
3756.25184,0.06302
3755.28747,0.06310
3754.32309,0.06267
3753.35871,0.06268
3752.39433,0.06302
3751.42995,0.06320
3750.46558,0.06313
3749.50120,0.06284
3748.53682,0.06310
3747.57244,0.06315
3746.60806,0.06319
3745.64369,0.06376
3744.67931,0.06416
3743.71493,0.06374
3742.75055,0.06298
3741.78618,0.06280
3740.82180,0.06260
3739.85742,0.06245
3738.89304,0.06276
3737.92866,0.06308
3736.96429,0.06323
3735.99991,0.06314
3735.03553,0.06320
3734.07115,0.06310
3733.10677,0.06310
3732.14240,0.06327
3731.17802,0.06267
3730.21364,0.06171
3729.24926,0.06162
3728.28488,0.06272
3727.32051,0.06334
3726.35613,0.06271
3725.39175,0.06201
3724.42737,0.06202
3723.46300,0.06255
3722.49862,0.06239
3721.53424,0.06201
3720.56986,0.06246
3719.60548,0.06248
3718.64111,0.06168
3717.67673,0.06153
3716.71235,0.06216
3715.74797,0.06260
3714.78359,0.06241
3713.81922,0.06215
3712.85484,0.06258
3711.89046,0.06288
3710.92608,0.06249
3709.96171,0.06207
3708.99733,0.06220
3708.03295,0.06260
3707.06857,0.06264
3706.10419,0.06267
3705.13982,0.06229
3704.17544,0.06183
3703.21106,0.06204
3702.24668,0.06199
3701.28230,0.06192
3700.31793,0.06219
3699.35355,0.06253
3698.38917,0.06247
3697.42479,0.06205
3696.46041,0.06190
3695.49604,0.06181
3694.53166,0.06190
3693.56728,0.06206
3692.60290,0.06228
3691.63853,0.06256
3690.67415,0.06241
3689.70977,0.06258
3688.74539,0.06318
3687.78101,0.06329
3686.81664,0.06306
3685.85226,0.06282
3684.88788,0.06271
3683.92350,0.06270
3682.95912,0.06241
3681.99475,0.06206
3681.03037,0.06220
3680.06599,0.06269
3679.10161,0.06342
3678.13724,0.06380
3677.17286,0.06381
3676.20848,0.06397
3675.24410,0.06416
3674.27972,0.06449
3673.31535,0.06438
3672.35097,0.06422
3671.38659,0.06456
3670.42221,0.06451
3669.45783,0.06450
3668.49346,0.06464
3667.52908,0.06482
3666.56470,0.06559
3665.60032,0.06609
3664.63594,0.06593
3663.67157,0.06602
3662.70719,0.06639
3661.74281,0.06657
3660.77843,0.06680
3659.81406,0.06689
3658.84968,0.06711
3657.88530,0.06745
3656.92092,0.06759
3655.95654,0.06822
3654.99217,0.06864
3654.02779,0.06870
3653.06341,0.06912
3652.09903,0.06984
3651.13465,0.07067
3650.17028,0.07107
3649.20590,0.07119
3648.24152,0.07117
3647.27714,0.07148
3646.31276,0.07190
3645.34839,0.07197
3644.38401,0.07232
3643.41963,0.07216
3642.45525,0.07204
3641.49088,0.07230
3640.52650,0.07183
3639.56212,0.07202
3638.59774,0.07263
3637.63336,0.07291
3636.66899,0.07352
3635.70461,0.07369
3634.74023,0.07352
3633.77585,0.07355
3632.81147,0.07342
3631.84710,0.07349
3630.88272,0.07415
3629.91834,0.07513
3628.95396,0.07562
3627.98959,0.07545
3627.02521,0.07541
3626.06083,0.07586
3625.09645,0.07613
3624.13207,0.07588
3623.16770,0.07592
3622.20332,0.07622
3621.23894,0.07629
3620.27456,0.07624
3619.31018,0.07616
3618.34581,0.07628
3617.38143,0.07625
3616.41705,0.07609
3615.45267,0.07613
3614.48829,0.07606
3613.52392,0.07617
3612.55954,0.07633
3611.59516,0.07661
3610.63078,0.07685
3609.66641,0.07660
3608.70203,0.07661
3607.73765,0.07683
3606.77327,0.07676
3605.80889,0.07658
3604.84452,0.07655
3603.88014,0.07672
3602.91576,0.07705
3601.95138,0.07712
3600.98700,0.07687
3600.02263,0.07699
3599.05825,0.07696
3598.09387,0.07635
3597.12949,0.07570
3596.16512,0.07576
3595.20074,0.07649
3594.23636,0.07681
3593.27198,0.07698
3592.30760,0.07688
3591.34323,0.07674
3590.37885,0.07696
3589.41447,0.07695
3588.45009,0.07712
3587.48571,0.07701
3586.52134,0.07699
3585.55696,0.07716
3584.59258,0.07701
3583.62820,0.07736
3582.66382,0.07735
3581.69945,0.07702
3580.73507,0.07714
3579.77069,0.07737
3578.80631,0.07746
3577.84194,0.07747
3576.87756,0.07776
3575.91318,0.07769
3574.94880,0.07766
3573.98442,0.07808
3573.02005,0.07809
3572.05567,0.07788
3571.09129,0.07786
3570.12691,0.07804
3569.16253,0.07846
3568.19816,0.07883
3567.23378,0.07875
3566.26940,0.07845
3565.30502,0.07810
3564.34065,0.07780
3563.37627,0.07818
3562.41189,0.07864
3561.44751,0.07880
3560.48313,0.07924
3559.51876,0.07946
3558.55438,0.07938
3557.59000,0.07949
3556.62562,0.07938
3555.66124,0.07931
3554.69687,0.07990
3553.73249,0.08029
3552.76811,0.08024
3551.80373,0.08041
3550.83935,0.08065
3549.87498,0.08077
3548.91060,0.08099
3547.94622,0.08134
3546.98184,0.08165
3546.01747,0.08197
3545.05309,0.08213
3544.08871,0.08214
3543.12433,0.08223
3542.15995,0.08255
3541.19558,0.08306
3540.23120,0.08321
3539.26682,0.08347
3538.30244,0.08377
3537.33806,0.08377
3536.37369,0.08412
3535.40931,0.08425
3534.44493,0.08442
3533.48055,0.08490
3532.51618,0.08484
3531.55180,0.08463
3530.58742,0.08484
3529.62304,0.08525
3528.65866,0.08552
3527.69429,0.08566
3526.72991,0.08586
3525.76553,0.08611
3524.80115,0.08646
3523.83677,0.08656
3522.87240,0.08653
3521.90802,0.08650
3520.94364,0.08639
3519.97926,0.08651
3519.01488,0.08674
3518.05051,0.08692
3517.08613,0.08746
3516.12175,0.08802
3515.15737,0.08812
3514.19300,0.08836
3513.22862,0.08872
3512.26424,0.08876
3511.29986,0.08887
3510.33548,0.08886
3509.37111,0.08858
3508.40673,0.08860
3507.44235,0.08864
3506.47797,0.08884
3505.51359,0.08970
3504.54922,0.09031
3503.58484,0.09031
3502.62046,0.09028
3501.65608,0.09039
3500.69171,0.09070
3499.72733,0.09067
3498.76295,0.09033
3497.79857,0.09041
3496.83419,0.09088
3495.86982,0.09116
3494.90544,0.09080
3493.94106,0.09061
3492.97668,0.09125
3492.01230,0.09186
3491.04793,0.09212
3490.08355,0.09226
3489.11917,0.09211
3488.15479,0.09197
3487.19041,0.09213
3486.22604,0.09217
3485.26166,0.09215
3484.29728,0.09225
3483.33290,0.09248
3482.36853,0.09288
3481.40415,0.09300
3480.43977,0.09271
3479.47539,0.09247
3478.51101,0.09255
3477.54664,0.09277
3476.58226,0.09309
3475.61788,0.09337
3474.65350,0.09339
3473.68912,0.09326
3472.72475,0.09318
3471.76037,0.09336
3470.79599,0.09367
3469.83161,0.09386
3468.86724,0.09403
3467.90286,0.09398
3466.93848,0.09360
3465.97410,0.09319
3465.00972,0.09327
3464.04535,0.09395
3463.08097,0.09454
3462.11659,0.09464
3461.15221,0.09443
3460.18783,0.09415
3459.22346,0.09426
3458.25908,0.09469
3457.29470,0.09482
3456.33032,0.09479
3455.36594,0.09447
3454.40157,0.09401
3453.43719,0.09415
3452.47281,0.09452
3451.50843,0.09499
3450.54406,0.09521
3449.57968,0.09512
3448.61530,0.09531
3447.65092,0.09523
3446.68654,0.09493
3445.72217,0.09485
3444.75779,0.09495
3443.79341,0.09477
3442.82903,0.09441
3441.86465,0.09474
3440.90028,0.09497
3439.93590,0.09509
3438.97152,0.09535
3438.00714,0.09502
3437.04276,0.09485
3436.07839,0.09478
3435.11401,0.09436
3434.14963,0.09447
3433.18525,0.09492
3432.22088,0.09492
3431.25650,0.09509
3430.29212,0.09547
3429.32774,0.09539
3428.36336,0.09540
3427.39899,0.09556
3426.43461,0.09548
3425.47023,0.09544
3424.50585,0.09552
3423.54147,0.09555
3422.57710,0.09545
3421.61272,0.09552
3420.64834,0.09557
3419.68396,0.09528
3418.71959,0.09531
3417.75521,0.09571
3416.79083,0.09574
3415.82645,0.09568
3414.86207,0.09557
3413.89770,0.09529
3412.93332,0.09548
3411.96894,0.09552
3411.00456,0.09535
3410.04018,0.09535
3409.07581,0.09515
3408.11143,0.09528
3407.14705,0.09541
3406.18267,0.09542
3405.21829,0.09562
3404.25392,0.09563
3403.28954,0.09546
3402.32516,0.09509
3401.36078,0.09517
3400.39641,0.09547
3399.43203,0.09538
3398.46765,0.09539
3397.50327,0.09530
3396.53889,0.09512
3395.57452,0.09509
3394.61014,0.09507
3393.64576,0.09502
3392.68138,0.09483
3391.71700,0.09465
3390.75263,0.09459
3389.78825,0.09446
3388.82387,0.09432
3387.85949,0.09450
3386.89512,0.09478
3385.93074,0.09512
3384.96636,0.09527
3384.00198,0.09489
3383.03760,0.09455
3382.07323,0.09456
3381.10885,0.09476
3380.14447,0.09477
3379.18009,0.09460
3378.21571,0.09452
3377.25134,0.09443
3376.28696,0.09451
3375.32258,0.09431
3374.35820,0.09399
3373.39382,0.09425
3372.42945,0.09436
3371.46507,0.09407
3370.50069,0.09385
3369.53631,0.09382
3368.57194,0.09383
3367.60756,0.09378
3366.64318,0.09377
3365.67880,0.09374
3364.71442,0.09344
3363.75005,0.09314
3362.78567,0.09324
3361.82129,0.09359
3360.85691,0.09370
3359.89253,0.09319
3358.92816,0.09287
3357.96378,0.09325
3356.99940,0.09332
3356.03502,0.09296
3355.07065,0.09288
3354.10627,0.09290
3353.14189,0.09277
3352.17751,0.09265
3351.21313,0.09240
3350.24876,0.09241
3349.28438,0.09276
3348.32000,0.09272
3347.35562,0.09268
3346.39124,0.09268
3345.42687,0.09259
3344.46249,0.09265
3343.49811,0.09253
3342.53373,0.09248
3341.56935,0.09260
3340.60498,0.09260
3339.64060,0.09236
3338.67622,0.09203
3337.71184,0.09203
3336.74747,0.09209
3335.78309,0.09177
3334.81871,0.09124
3333.85433,0.09141
3332.88995,0.09176
3331.92558,0.09136
3330.96120,0.09122
3329.99682,0.09135
3329.03244,0.09135
3328.06806,0.09137
3327.10369,0.09109
3326.13931,0.09096
3325.17493,0.09111
3324.21055,0.09108
3323.24618,0.09095
3322.28180,0.09087
3321.31742,0.09071
3320.35304,0.09061
3319.38866,0.09080
3318.42429,0.09074
3317.45991,0.09038
3316.49553,0.09032
3315.53115,0.09048
3314.56677,0.09033
3313.60240,0.08991
3312.63802,0.08985
3311.67364,0.08986
3310.70926,0.08957
3309.74488,0.08944
3308.78051,0.08962
3307.81613,0.08975
3306.85175,0.08976
3305.88737,0.08983
3304.92300,0.08985
3303.95862,0.08961
3302.99424,0.08952
3302.02986,0.08984
3301.06548,0.08977
3300.10111,0.08939
3299.13673,0.08936
3298.17235,0.08927
3297.20797,0.08912
3296.24359,0.08920
3295.27922,0.08919
3294.31484,0.08889
3293.35046,0.08864
3292.38608,0.08865
3291.42171,0.08878
3290.45733,0.08862
3289.49295,0.08803
3288.52857,0.08791
3287.56419,0.08827
3286.59982,0.08844
3285.63544,0.08858
3284.67106,0.08850
3283.70668,0.08825
3282.74230,0.08803
3281.77793,0.08777
3280.81355,0.08767
3279.84917,0.08784
3278.88479,0.08796
3277.92041,0.08779
3276.95604,0.08761
3275.99166,0.08743
3275.02728,0.08726
3274.06290,0.08723
3273.09853,0.08724
3272.13415,0.08693
3271.16977,0.08645
3270.20539,0.08661
3269.24101,0.08685
3268.27664,0.08672
3267.31226,0.08659
3266.34788,0.08662
3265.38350,0.08687
3264.41912,0.08681
3263.45475,0.08641
3262.49037,0.08613
3261.52599,0.08621
3260.56161,0.08625
3259.59724,0.08598
3258.63286,0.08612
3257.66848,0.08617
3256.70410,0.08596
3255.73972,0.08597
3254.77535,0.08578
3253.81097,0.08561
3252.84659,0.08558
3251.88221,0.08543
3250.91783,0.08511
3249.95346,0.08525
3248.98908,0.08579
3248.02470,0.08565
3247.06032,0.08526
3246.09594,0.08523
3245.13157,0.08534
3244.16719,0.08551
3243.20281,0.08555
3242.23843,0.08536
3241.27406,0.08524
3240.30968,0.08481
3239.34530,0.08393
3238.38092,0.08372
3237.41654,0.08415
3236.45217,0.08465
3235.48779,0.08486
3234.52341,0.08455
3233.55903,0.08436
3232.59465,0.08447
3231.63028,0.08462
3230.66590,0.08452
3229.70152,0.08418
3228.73714,0.08399
3227.77276,0.08389
3226.80839,0.08378
3225.84401,0.08381
3224.87963,0.08390
3223.91525,0.08349
3222.95088,0.08324
3221.98650,0.08375
3221.02212,0.08367
3220.05774,0.08322
3219.09336,0.08306
3218.12899,0.08294
3217.16461,0.08291
3216.20023,0.08293
3215.23585,0.08314
3214.27147,0.08308
3213.30710,0.08290
3212.34272,0.08323
3211.37834,0.08326
3210.41396,0.08304
3209.44959,0.08295
3208.48521,0.08285
3207.52083,0.08299
3206.55645,0.08289
3205.59207,0.08253
3204.62770,0.08253
3203.66332,0.08261
3202.69894,0.08228
3201.73456,0.08189
3200.77018,0.08189
3199.80581,0.08185
3198.84143,0.08170
3197.87705,0.08149
3196.91267,0.08123
3195.94829,0.08140
3194.98392,0.08152
3194.01954,0.08151
3193.05516,0.08163
3192.09078,0.08129
3191.12641,0.08087
3190.16203,0.08091
3189.19765,0.08097
3188.23327,0.08085
3187.26889,0.08082
3186.30452,0.08075
3185.34014,0.08046
3184.37576,0.08026
3183.41138,0.08033
3182.44700,0.08044
3181.48263,0.08060
3180.51825,0.08060
3179.55387,0.08022
3178.58949,0.07999
3177.62512,0.07994
3176.66074,0.07974
3175.69636,0.07965
3174.73198,0.07958
3173.76760,0.07951
3172.80323,0.07954
3171.83885,0.07946
3170.87447,0.07931
3169.91009,0.07930
3168.94571,0.07905
3167.98134,0.07854
3167.01696,0.07855
3166.05258,0.07870
3165.08820,0.07866
3164.12382,0.07856
3163.15945,0.07836
3162.19507,0.07833
3161.23069,0.07816
3160.26631,0.07798
3159.30194,0.07804
3158.33756,0.07806
3157.37318,0.07781
3156.40880,0.07753
3155.44442,0.07782
3154.48005,0.07796
3153.51567,0.07770
3152.55129,0.07755
3151.58691,0.07752
3150.62253,0.07755
3149.65816,0.07721
3148.69378,0.07692
3147.72940,0.07681
3146.76502,0.07680
3145.80065,0.07713
3144.83627,0.07718
3143.87189,0.07697
3142.90751,0.07668
3141.94313,0.07636
3140.97876,0.07626
3140.01438,0.07639
3139.05000,0.07646
3138.08562,0.07617
3137.12124,0.07581
3136.15687,0.07572
3135.19249,0.07579
3134.22811,0.07571
3133.26373,0.07588
3132.29935,0.07608
3131.33498,0.07552
3130.37060,0.07536
3129.40622,0.07573
3128.44184,0.07564
3127.47747,0.07549
3126.51309,0.07535
3125.54871,0.07533
3124.58433,0.07547
3123.61995,0.07523
3122.65558,0.07480
3121.69120,0.07450
3120.72682,0.07438
3119.76244,0.07456
3118.79806,0.07478
3117.83369,0.07472
3116.86931,0.07438
3115.90493,0.07403
3114.94055,0.07392
3113.97618,0.07379
3113.01180,0.07384
3112.04742,0.07394
3111.08304,0.07383
3110.11866,0.07378
3109.15429,0.07346
3108.18991,0.07318
3107.22553,0.07325
3106.26115,0.07311
3105.29677,0.07283
3104.33240,0.07287
3103.36802,0.07309
3102.40364,0.07304
3101.43926,0.07296
3100.47488,0.07289
3099.51051,0.07286
3098.54613,0.07294
3097.58175,0.07279
3096.61737,0.07275
3095.65300,0.07263
3094.68862,0.07229
3093.72424,0.07215
3092.75986,0.07201
3091.79548,0.07193
3090.83111,0.07179
3089.86673,0.07165
3088.90235,0.07174
3087.93797,0.07168
3086.97359,0.07153
3086.00922,0.07138
3085.04484,0.07133
3084.08046,0.07128
3083.11608,0.07125
3082.15171,0.07147
3081.18733,0.07148
3080.22295,0.07121
3079.25857,0.07094
3078.29419,0.07084
3077.32982,0.07100
3076.36544,0.07090
3075.40106,0.07069
3074.43668,0.07069
3073.47230,0.07068
3072.50793,0.07060
3071.54355,0.07039
3070.57917,0.07003
3069.61479,0.06982
3068.65041,0.06996
3067.68604,0.06997
3066.72166,0.06994
3065.75728,0.07010
3064.79290,0.07001
3063.82853,0.06975
3062.86415,0.06946
3061.89977,0.06932
3060.93539,0.06937
3059.97101,0.06943
3059.00664,0.06947
3058.04226,0.06920
3057.07788,0.06897
3056.11350,0.06885
3055.14912,0.06852
3054.18475,0.06835
3053.22037,0.06839
3052.25599,0.06859
3051.29161,0.06866
3050.32724,0.06829
3049.36286,0.06805
3048.39848,0.06821
3047.43410,0.06819
3046.46972,0.06789
3045.50535,0.06764
3044.54097,0.06752
3043.57659,0.06761
3042.61221,0.06767
3041.64783,0.06767
3040.68346,0.06767
3039.71908,0.06749
3038.75470,0.06734
3037.79032,0.06715
3036.82594,0.06680
3035.86157,0.06661
3034.89719,0.06667
3033.93281,0.06674
3032.96843,0.06684
3032.00406,0.06697
3031.03968,0.06665
3030.07530,0.06640
3029.11092,0.06662
3028.14654,0.06662
3027.18217,0.06638
3026.21779,0.06628
3025.25341,0.06624
3024.28903,0.06603
3023.32465,0.06577
3022.36028,0.06570
3021.39590,0.06571
3020.43152,0.06554
3019.46714,0.06538
3018.50276,0.06527
3017.53839,0.06511
3016.57401,0.06530
3015.60963,0.06529
3014.64525,0.06487
3013.68088,0.06478
3012.71650,0.06471
3011.75212,0.06468
3010.78774,0.06469
3009.82336,0.06458
3008.85899,0.06459
3007.89461,0.06449
3006.93023,0.06428
3005.96585,0.06415
3005.00147,0.06429
3004.03710,0.06450
3003.07272,0.06414
3002.10834,0.06380
3001.14396,0.06390
3000.17959,0.06385
2999.21521,0.06377
2998.25083,0.06370
2997.28645,0.06348
2996.32207,0.06348
2995.35770,0.06345
2994.39332,0.06332
2993.42894,0.06334
2992.46456,0.06325
2991.50018,0.06319
2990.53581,0.06318
2989.57143,0.06298
2988.60705,0.06287
2987.64267,0.06289
2986.67829,0.06272
2985.71392,0.06258
2984.74954,0.06264
2983.78516,0.06268
2982.82078,0.06252
2981.85641,0.06228
2980.89203,0.06216
2979.92765,0.06213
2978.96327,0.06226
2977.99889,0.06237
2977.03452,0.06223
2976.07014,0.06203
2975.10576,0.06186
2974.14138,0.06167
2973.17700,0.06151
2972.21263,0.06157
2971.24825,0.06159
2970.28387,0.06135
2969.31949,0.06131
2968.35512,0.06139
2967.39074,0.06146
2966.42636,0.06132
2965.46198,0.06113
2964.49760,0.06114
2963.53323,0.06099
2962.56885,0.06100
2961.60447,0.06111
2960.64009,0.06102
2959.67571,0.06087
2958.71134,0.06062
2957.74696,0.06050
2956.78258,0.06042
2955.81820,0.06049
2954.85382,0.06052
2953.88945,0.06031
2952.92507,0.06023
2951.96069,0.06008
2950.99631,0.06007
2950.03194,0.06026
2949.06756,0.06040
2948.10318,0.06048
2947.13880,0.06006
2946.17442,0.05971
2945.21005,0.05976
2944.24567,0.05965
2943.28129,0.05950
2942.31691,0.05949
2941.35253,0.05955
2940.38816,0.05942
2939.42378,0.05938
2938.45940,0.05966
2937.49502,0.05958
2936.53065,0.05937
2935.56627,0.05942
2934.60189,0.05937
2933.63751,0.05909
2932.67313,0.05882
2931.70876,0.05894
2930.74438,0.05920
2929.78000,0.05897
2928.81562,0.05859
2927.85124,0.05858
2926.88687,0.05874
2925.92249,0.05885
2924.95811,0.05888
2923.99373,0.05876
2923.02935,0.05862
2922.06498,0.05857
2921.10060,0.05857
2920.13622,0.05859
2919.17184,0.05864
2918.20747,0.05858
2917.24309,0.05846
2916.27871,0.05843
2915.31433,0.05852
2914.34995,0.05870
2913.38558,0.05872
2912.42120,0.05857
2911.45682,0.05850
2910.49244,0.05844
2909.52806,0.05836
2908.56369,0.05818
2907.59931,0.05794
2906.63493,0.05794
2905.67055,0.05807
2904.70618,0.05809
2903.74180,0.05811
2902.77742,0.05816
2901.81304,0.05811
2900.84866,0.05806
2899.88429,0.05797
2898.91991,0.05784
2897.95553,0.05785
2896.99115,0.05797
2896.02677,0.05816
2895.06240,0.05819
2894.09802,0.05808
2893.13364,0.05792
2892.16926,0.05777
2891.20488,0.05785
2890.24051,0.05781
2889.27613,0.05768
2888.31175,0.05771
2887.34737,0.05762
2886.38300,0.05753
2885.41862,0.05747
2884.45424,0.05753
2883.48986,0.05760
2882.52548,0.05748
2881.56111,0.05723
2880.59673,0.05710
2879.63235,0.05726
2878.66797,0.05737
2877.70359,0.05742
2876.73922,0.05748
2875.77484,0.05747
2874.81046,0.05741
2873.84608,0.05734
2872.88171,0.05748
2871.91733,0.05745
2870.95295,0.05729
2869.98857,0.05729
2869.02419,0.05721
2868.05982,0.05726
2867.09544,0.05739
2866.13106,0.05736
2865.16668,0.05736
2864.20230,0.05733
2863.23793,0.05711
2862.27355,0.05690
2861.30917,0.05696
2860.34479,0.05699
2859.38041,0.05693
2858.41604,0.05690
2857.45166,0.05682
2856.48728,0.05675
2855.52290,0.05679
2854.55853,0.05689
2853.59415,0.05676
2852.62977,0.05659
2851.66539,0.05667
2850.70101,0.05668
2849.73664,0.05672
2848.77226,0.05686
2847.80788,0.05682
2846.84350,0.05670
2845.87912,0.05662
2844.91475,0.05660
2843.95037,0.05673
2842.98599,0.05677
2842.02161,0.05658
2841.05724,0.05649
2840.09286,0.05650
2839.12848,0.05649
2838.16410,0.05651
2837.19972,0.05653
2836.23535,0.05648
2835.27097,0.05636
2834.30659,0.05638
2833.34221,0.05642
2832.37783,0.05644
2831.41346,0.05650
2830.44908,0.05632
2829.48470,0.05633
2828.52032,0.05653
2827.55594,0.05635
2826.59157,0.05615
2825.62719,0.05615
2824.66281,0.05605
2823.69843,0.05593
2822.73406,0.05594
2821.76968,0.05599
2820.80530,0.05607
2819.84092,0.05612
2818.87654,0.05595
2817.91217,0.05568
2816.94779,0.05561
2815.98341,0.05571
2815.01903,0.05569
2814.05465,0.05560
2813.09028,0.05550
2812.12590,0.05543
2811.16152,0.05555
2810.19714,0.05557
2809.23276,0.05550
2808.26839,0.05558
2807.30401,0.05557
2806.33963,0.05542
2805.37525,0.05524
2804.41088,0.05526
2803.44650,0.05544
2802.48212,0.05546
2801.51774,0.05526
2800.55336,0.05508
2799.58899,0.05509
2798.62461,0.05511
2797.66023,0.05502
2796.69585,0.05495
2795.73147,0.05500
2794.76710,0.05509
2793.80272,0.05498
2792.83834,0.05474
2791.87396,0.05470
2790.90959,0.05491
2789.94521,0.05500
2788.98083,0.05485
2788.01645,0.05481
2787.05207,0.05479
2786.08770,0.05457
2785.12332,0.05442
2784.15894,0.05450
2783.19456,0.05452
2782.23018,0.05450
2781.26581,0.05457
2780.30143,0.05456
2779.33705,0.05441
2778.37267,0.05429
2777.40829,0.05433
2776.44392,0.05437
2775.47954,0.05423
2774.51516,0.05401
2773.55078,0.05386
2772.58641,0.05386
2771.62203,0.05391
2770.65765,0.05393
2769.69327,0.05394
2768.72889,0.05385
2767.76452,0.05380
2766.80014,0.05383
2765.83576,0.05373
2764.87138,0.05360
2763.90700,0.05361
2762.94263,0.05371
2761.97825,0.05366
2761.01387,0.05342
2760.04949,0.05330
2759.08512,0.05339
2758.12074,0.05335
2757.15636,0.05326
2756.19198,0.05328
2755.22760,0.05338
2754.26323,0.05334
2753.29885,0.05316
2752.33447,0.05321
2751.37009,0.05314
2750.40571,0.05291
2749.44134,0.05296
2748.47696,0.05296
2747.51258,0.05274
2746.54820,0.05263
2745.58382,0.05274
2744.61945,0.05275
2743.65507,0.05255
2742.69069,0.05248
2741.72631,0.05255
2740.76194,0.05257
2739.79756,0.05250
2738.83318,0.05242
2737.86880,0.05234
2736.90442,0.05223
2735.94005,0.05215
2734.97567,0.05217
2734.01129,0.05219
2733.04691,0.05215
2732.08253,0.05216
2731.11816,0.05217
2730.15378,0.05211
2729.18940,0.05195
2728.22502,0.05181
2727.26065,0.05181
2726.29627,0.05176
2725.33189,0.05163
2724.36751,0.05153
2723.40313,0.05151
2722.43876,0.05153
2721.47438,0.05145
2720.51000,0.05141
2719.54562,0.05144
2718.58124,0.05139
2717.61687,0.05131
2716.65249,0.05128
2715.68811,0.05136
2714.72373,0.05142
2713.75935,0.05135
2712.79498,0.05124
2711.83060,0.05110
2710.86622,0.05098
2709.90184,0.05090
2708.93747,0.05081
2707.97309,0.05071
2707.00871,0.05073
2706.04433,0.05078
2705.07995,0.05075
2704.11558,0.05068
2703.15120,0.05061
2702.18682,0.05061
2701.22244,0.05061
2700.25806,0.05058
2699.29369,0.05055
2698.32931,0.05055
2697.36493,0.05064
2696.40055,0.05058
2695.43618,0.05038
2694.47180,0.05033
2693.50742,0.05025
2692.54304,0.05015
2691.57866,0.05015
2690.61429,0.05016
2689.64991,0.05013
2688.68553,0.05006
2687.72115,0.05001
2686.75677,0.04990
2685.79240,0.04975
2684.82802,0.04977
2683.86364,0.04993
2682.89926,0.04997
2681.93488,0.04977
2680.97051,0.04959
2680.00613,0.04967
2679.04175,0.04964
2678.07737,0.04948
2677.11300,0.04951
2676.14862,0.04953
2675.18424,0.04950
2674.21986,0.04951
2673.25548,0.04937
2672.29111,0.04926
2671.32673,0.04926
2670.36235,0.04916
2669.39797,0.04907
2668.43359,0.04905
2667.46922,0.04898
2666.50484,0.04893
2665.54046,0.04887
2664.57608,0.04880
2663.61171,0.04886
2662.64733,0.04899
2661.68295,0.04888
2660.71857,0.04874
2659.75419,0.04871
2658.78982,0.04852
2657.82544,0.04839
2656.86106,0.04839
2655.89668,0.04840
2654.93230,0.04838
2653.96793,0.04824
2653.00355,0.04813
2652.03917,0.04796
2651.07479,0.04787
2650.11041,0.04793
2649.14604,0.04787
2648.18166,0.04776
2647.21728,0.04773
2646.25290,0.04771
2645.28853,0.04769
2644.32415,0.04770
2643.35977,0.04766
2642.39539,0.04748
2641.43101,0.04733
2640.46664,0.04726
2639.50226,0.04734
2638.53788,0.04743
2637.57350,0.04723
2636.60912,0.04707
2635.64475,0.04709
2634.68037,0.04689
2633.71599,0.04667
2632.75161,0.04661
2631.78724,0.04654
2630.82286,0.04663
2629.85848,0.04680
2628.89410,0.04677
2627.92972,0.04648
2626.96535,0.04615
2626.00097,0.04601
2625.03659,0.04601
2624.07221,0.04627
2623.10783,0.04646
2622.14346,0.04633
2621.17908,0.04628
2620.21470,0.04622
2619.25032,0.04606
2618.28594,0.04592
2617.32157,0.04584
2616.35719,0.04593
2615.39281,0.04600
2614.42843,0.04574
2613.46406,0.04551
2612.49968,0.04551
2611.53530,0.04543
2610.57092,0.04532
2609.60654,0.04535
2608.64217,0.04550
2607.67779,0.04552
2606.71341,0.04530
2605.74903,0.04508
2604.78465,0.04503
2603.82028,0.04518
2602.85590,0.04522
2601.89152,0.04526
2600.92714,0.04540
2599.96276,0.04547
2598.99839,0.04552
2598.03401,0.04530
2597.06963,0.04497
2596.10525,0.04453
2595.14088,0.04431
2594.17650,0.04469
2593.21212,0.04485
2592.24774,0.04460
2591.28336,0.04429
2590.31899,0.04434
2589.35461,0.04454
2588.39023,0.04441
2587.42585,0.04425
2586.46147,0.04391
2585.49710,0.04367
2584.53272,0.04389
2583.56834,0.04403
2582.60396,0.04409
2581.63959,0.04423
2580.67521,0.04427
2579.71083,0.04420
2578.74645,0.04390
2577.78207,0.04364
2576.81770,0.04399
2575.85332,0.04420
2574.88894,0.04393
2573.92456,0.04370
2572.96018,0.04352
2571.99581,0.04345
2571.03143,0.04338
2570.06705,0.04355
2569.10267,0.04374
2568.13829,0.04354
2567.17392,0.04359
2566.20954,0.04384
2565.24516,0.04373
2564.28078,0.04332
2563.31641,0.04291
2562.35203,0.04264
2561.38765,0.04260
2560.42327,0.04291
2559.45889,0.04298
2558.49452,0.04292
2557.53014,0.04328
2556.56576,0.04342
2555.60138,0.04307
2554.63700,0.04295
2553.67263,0.04300
2552.70825,0.04292
2551.74387,0.04294
2550.77949,0.04299
2549.81512,0.04276
2548.85074,0.04250
2547.88636,0.04264
2546.92198,0.04245
2545.95760,0.04213
2544.99323,0.04241
2544.02885,0.04245
2543.06447,0.04234
2542.10009,0.04233
2541.13571,0.04238
2540.17134,0.04272
2539.20696,0.04264
2538.24258,0.04230
2537.27820,0.04219
2536.31382,0.04224
2535.34945,0.04225
2534.38507,0.04215
2533.42069,0.04208
2532.45631,0.04180
2531.49194,0.04147
2530.52756,0.04137
2529.56318,0.04148
2528.59880,0.04183
2527.63442,0.04212
2526.67005,0.04192
2525.70567,0.04169
2524.74129,0.04173
2523.77691,0.04144
2522.81253,0.04126
2521.84816,0.04131
2520.88378,0.04125
2519.91940,0.04120
2518.95502,0.04088
2517.99065,0.04081
2517.02627,0.04113
2516.06189,0.04140
2515.09751,0.04148
2514.13313,0.04105
2513.16876,0.04088
2512.20438,0.04139
2511.24000,0.04147
2510.27562,0.04116
2509.31124,0.04091
2508.34687,0.04048
2507.38249,0.04044
2506.41811,0.04090
2505.45373,0.04112
2504.48935,0.04110
2503.52498,0.04095
2502.56060,0.04091
2501.59622,0.04090
2500.63184,0.04050
2499.66747,0.04026
2498.70309,0.04056
2497.73871,0.04099
2496.77433,0.04106
2495.80995,0.04076
2494.84558,0.04039
2493.88120,0.04024
2492.91682,0.04043
2491.95244,0.04046
2490.98806,0.04036
2490.02369,0.04055
2489.05931,0.04061
2488.09493,0.04037
2487.13055,0.04010
2486.16618,0.04005
2485.20180,0.04015
2484.23742,0.04009
2483.27304,0.03994
2482.30866,0.03978
2481.34429,0.03970
2480.37991,0.03964
2479.41553,0.03941
2478.45115,0.03945
2477.48677,0.03960
2476.52240,0.03969
2475.55802,0.03978
2474.59364,0.03970
2473.62926,0.03980
2472.66488,0.03982
2471.70051,0.03963
2470.73613,0.03964
2469.77175,0.03974
2468.80737,0.03971
2467.84300,0.03969
2466.87862,0.03999
2465.91424,0.03975
2464.94986,0.03930
2463.98548,0.03967
2463.02111,0.04002
2462.05673,0.03977
2461.09235,0.03904
2460.12797,0.03862
2459.16359,0.03897
2458.19922,0.03915
2457.23484,0.03899
2456.27046,0.03882
2455.30608,0.03864
2454.34171,0.03873
2453.37733,0.03889
2452.41295,0.03889
2451.44857,0.03890
2450.48419,0.03884
2449.51982,0.03875
2448.55544,0.03879
2447.59106,0.03898
2446.62668,0.03901
2445.66230,0.03871
2444.69793,0.03869
2443.73355,0.03898
2442.76917,0.03899
2441.80479,0.03887
2440.84041,0.03878
2439.87604,0.03864
2438.91166,0.03845
2437.94728,0.03846
2436.98290,0.03872
2436.01853,0.03882
2435.05415,0.03863
2434.08977,0.03849
2433.12539,0.03846
2432.16101,0.03818
2431.19664,0.03810
2430.23226,0.03830
2429.26788,0.03820
2428.30350,0.03813
2427.33912,0.03807
2426.37475,0.03800
2425.41037,0.03831
2424.44599,0.03855
2423.48161,0.03835
2422.51724,0.03827
2421.55286,0.03833
2420.58848,0.03825
2419.62410,0.03821
2418.65972,0.03793
2417.69535,0.03765
2416.73097,0.03775
2415.76659,0.03792
2414.80221,0.03790
2413.83783,0.03770
2412.87346,0.03774
2411.90908,0.03758
2410.94470,0.03730
2409.98032,0.03766
2409.01594,0.03801
2408.05157,0.03802
2407.08719,0.03802
2406.12281,0.03799
2405.15843,0.03782
2404.19406,0.03764
2403.22968,0.03752
2402.26530,0.03722
2401.30092,0.03714
2400.33654,0.03739
2399.37217,0.03746
2398.40779,0.03760
2397.44341,0.03800
2396.47903,0.03795
2395.51465,0.03744
2394.55028,0.03720
2393.58590,0.03705
2392.62152,0.03693
2391.65714,0.03709
2390.69276,0.03719
2389.72839,0.03713
2388.76401,0.03723
2387.79963,0.03732
2386.83525,0.03724
2385.87088,0.03733
2384.90650,0.03732
2383.94212,0.03700
2382.97774,0.03695
2382.01336,0.03715
2381.04899,0.03716
2380.08461,0.03707
2379.12023,0.03719
2378.15585,0.03742
2377.19147,0.03742
2376.22710,0.03726
2375.26272,0.03723
2374.29834,0.03747
2373.33396,0.03763
2372.36959,0.03765
2371.40521,0.03767
2370.44083,0.03767
2369.47645,0.03784
2368.51207,0.03799
2367.54770,0.03785
2366.58332,0.03771
2365.61894,0.03775
2364.65456,0.03785
2363.69018,0.03797
2362.72581,0.03803
2361.76143,0.03807
2360.79705,0.03799
2359.83267,0.03783
2358.86829,0.03792
2357.90392,0.03793
2356.93954,0.03777
2355.97516,0.03771
2355.01078,0.03762
2354.04641,0.03748
2353.08203,0.03734
2352.11765,0.03728
2351.15327,0.03720
2350.18889,0.03702
2349.22452,0.03682
2348.26014,0.03663
2347.29576,0.03678
2346.33138,0.03699
2345.36700,0.03707
2344.40263,0.03723
2343.43825,0.03725
2342.47387,0.03716
2341.50949,0.03699
2340.54512,0.03705
2339.58074,0.03716
2338.61636,0.03695
2337.65198,0.03704
2336.68760,0.03721
2335.72323,0.03708
2334.75885,0.03687
2333.79447,0.03672
2332.83009,0.03666
2331.86571,0.03655
2330.90134,0.03660
2329.93696,0.03662
2328.97258,0.03654
2328.00820,0.03665
2327.04382,0.03660
2326.07945,0.03651
2325.11507,0.03669
2324.15069,0.03674
2323.18631,0.03647
2322.22194,0.03615
2321.25756,0.03593
2320.29318,0.03583
2319.32880,0.03576
2318.36442,0.03568
2317.40005,0.03582
2316.43567,0.03577
2315.47129,0.03537
2314.50691,0.03535
2313.54253,0.03550
2312.57816,0.03513
2311.61378,0.03478
2310.64940,0.03505
2309.68502,0.03518
2308.72065,0.03493
2307.75627,0.03489
2306.79189,0.03492
2305.82751,0.03475
2304.86313,0.03468
2303.89876,0.03465
2302.93438,0.03431
2301.97000,0.03426
2301.00562,0.03455
2300.04124,0.03449
2299.07687,0.03435
2298.11249,0.03430
2297.14811,0.03426
2296.18373,0.03419
2295.21935,0.03425
2294.25498,0.03415
2293.29060,0.03366
2292.32622,0.03356
2291.36184,0.03381
2290.39747,0.03419
2289.43309,0.03462
2288.46871,0.03496
2287.50433,0.03476
2286.53995,0.03381
2285.57558,0.03384
2284.61120,0.03444
2283.64682,0.03442
2282.68244,0.03442
2281.71806,0.03407
2280.75369,0.03364
2279.78931,0.03343
2278.82493,0.03314
2277.86055,0.03292
2276.89618,0.03287
2275.93180,0.03320
2274.96742,0.03332
2274.00304,0.03286
2273.03866,0.03215
2272.07429,0.03208
2271.10991,0.03271
2270.14553,0.03269
2269.18115,0.03266
2268.21677,0.03264
2267.25240,0.03262
2266.28802,0.03259
2265.32364,0.03257
2264.35926,0.03255
2263.39488,0.03253
2262.43051,0.03250
2261.46613,0.03248
2260.50175,0.03246
2259.53737,0.03243
2258.57300,0.03241
2257.60862,0.03239
2256.64424,0.03237
2255.67986,0.03234
2254.71548,0.03232
2253.75111,0.03230
2252.78673,0.03227
2251.82235,0.03225
2250.85797,0.03223
2249.89359,0.03221
2248.92922,0.03218
2247.96484,0.03216
2247.00046,0.03214
2246.03608,0.03212
2245.07171,0.03209
2244.10733,0.03207
2243.14295,0.03205
2242.17857,0.03202
2241.21419,0.03200
2240.24982,0.03198
2239.28544,0.03196
2238.32106,0.03193
2237.35668,0.03191
2236.39230,0.03189
2235.42793,0.03186
2234.46355,0.03184
2233.49917,0.03182
2232.53479,0.03180
2231.57041,0.03177
2230.60604,0.03175
2229.64166,0.03173
2228.67728,0.03170
2227.71290,0.03168
2226.74853,0.03166
2225.78415,0.03164
2224.81977,0.03161
2223.85539,0.03159
2222.89101,0.03157
2221.92664,0.03154
2220.96226,0.03152
2219.99788,0.03150
2219.03350,0.03148
2218.06912,0.03145
2217.10475,0.03143
2216.14037,0.03141
2215.17599,0.03138
2214.21161,0.03136
2213.24724,0.03134
2212.28286,0.03132
2211.31848,0.03129
2210.35410,0.03127
2209.38972,0.03125
2208.42535,0.03123
2207.46097,0.03120
2206.49659,0.03118
2205.53221,0.03116
2204.56783,0.03113
2203.60346,0.03111
2202.63908,0.03109
2201.67470,0.03107
2200.71032,0.03104
2199.74594,0.03102
2198.78157,0.03100
2197.81719,0.03097
2196.85281,0.03095
2195.88843,0.03093
2194.92406,0.03091
2193.95968,0.03088
2192.99530,0.03086
2192.03092,0.03084
2191.06654,0.03081
2190.10217,0.03079
2189.13779,0.03077
2188.17341,0.03075
2187.20903,0.03072
2186.24465,0.03070
2185.28028,0.03068
2184.31590,0.03065
2183.35152,0.03063
2182.38714,0.03061
2181.42276,0.03059
2180.45839,0.03056
2179.49401,0.03054
2178.52963,0.03052
2177.56525,0.03050
2176.60088,0.03047
2175.63650,0.03045
2174.67212,0.03043
2173.70774,0.03040
2172.74336,0.03038
2171.77899,0.03036
2170.81461,0.03034
2169.85023,0.03031
2168.88585,0.03029
2167.92147,0.03027
2166.95710,0.03024
2165.99272,0.03022
2165.02834,0.03020
2164.06396,0.03018
2163.09959,0.03015
2162.13521,0.03013
2161.17083,0.03011
2160.20645,0.03008
2159.24207,0.03006
2158.27770,0.03004
2157.31332,0.03002
2156.34894,0.02999
2155.38456,0.02997
2154.42018,0.02995
2153.45581,0.02992
2152.49143,0.02990
2151.52705,0.02988
2150.56267,0.02986
2149.59829,0.02983
2148.63392,0.02981
2147.66954,0.02979
2146.70516,0.02977
2145.74078,0.02974
2144.77641,0.02972
2143.81203,0.02970
2142.84765,0.02967
2141.88327,0.02965
2140.91889,0.02963
2139.95452,0.02961
2138.99014,0.02958
2138.02576,0.02956
2137.06138,0.02954
2136.09700,0.02951
2135.13263,0.02949
2134.16825,0.02947
2133.20387,0.02945
2132.23949,0.02942
2131.27512,0.02940
2130.31074,0.02938
2129.34636,0.02935
2128.38198,0.02933
2127.41760,0.02931
2126.45323,0.02929
2125.48885,0.02926
2124.52447,0.02924
2123.56009,0.02922
2122.59571,0.02919
2121.63134,0.02917
2120.66696,0.02915
2119.70258,0.02913
2118.73820,0.02910
2117.77382,0.02908
2116.80945,0.02906
2115.84507,0.02903
2114.88069,0.02901
2113.91631,0.02899
2112.95194,0.02897
2111.98756,0.02894
2111.02318,0.02892
2110.05880,0.02890
2109.09442,0.02888
2108.13005,0.02885
2107.16567,0.02883
2106.20129,0.02881
2105.23691,0.02878
2104.27253,0.02876
2103.30816,0.02874
2102.34378,0.02872
2101.37940,0.02869
2100.41502,0.02867
2099.45065,0.02865
2098.48627,0.02862
2097.52189,0.02860
2096.55751,0.02858
2095.59313,0.02856
2094.62876,0.02853
2093.66438,0.02851
2092.70000,0.02849
2091.73562,0.02846
2090.77124,0.02844
2089.80687,0.02842
2088.84249,0.02840
2087.87811,0.02837
2086.91373,0.02835
2085.94935,0.02833
2084.98498,0.02830
2084.02060,0.02828
2083.05622,0.02826
2082.09184,0.02824
2081.12747,0.02821
2080.16309,0.02819
2079.19871,0.02817
2078.23433,0.02815
2077.26995,0.02812
2076.30558,0.02810
2075.34120,0.02808
2074.37682,0.02805
2073.41244,0.02803
2072.44806,0.02801
2071.48369,0.02799
2070.51931,0.02796
2069.55493,0.02794
2068.59055,0.02792
2067.62618,0.02789
2066.66180,0.02787
2065.69742,0.02785
2064.73304,0.02783
2063.76866,0.02780
2062.80429,0.02778
2061.83991,0.02776
2060.87553,0.02773
2059.91115,0.02771
2058.94677,0.02769
2057.98240,0.02767
2057.01802,0.02764
2056.05364,0.02762
2055.08926,0.02760
2054.12488,0.02757
2053.16051,0.02755
2052.19613,0.02753
2051.23175,0.02751
2050.26737,0.02748
2049.30300,0.02746
2048.33862,0.02744
2047.37424,0.02742
2046.40986,0.02739
2045.44548,0.02737
2044.48111,0.02735
2043.51673,0.02732
2042.55235,0.02730
2041.58797,0.02728
2040.62359,0.02726
2039.65922,0.02723
2038.69484,0.02721
2037.73046,0.02719
2036.76608,0.02716
2035.80171,0.02714
2034.83733,0.02712
2033.87295,0.02710
2032.90857,0.02707
2031.94419,0.02705
2030.97982,0.02703
2030.01544,0.02700
2029.05106,0.02698
2028.08668,0.02696
2027.12230,0.02694
2026.15793,0.02691
2025.19355,0.02689
2024.22917,0.02687
2023.26479,0.02684
2022.30041,0.02682
2021.33604,0.02680
2020.37166,0.02678
2019.40728,0.02675
2018.44290,0.02673
2017.47853,0.02671
2016.51415,0.02669
2015.54977,0.02666
2014.58539,0.02664
2013.62101,0.02662
2012.65664,0.02659
2011.69226,0.02657
2010.72788,0.02655
2009.76350,0.02653
2008.79912,0.02650
2007.83475,0.02648
2006.87037,0.02646
2005.90599,0.02643
2004.94161,0.02641
2003.97724,0.02639
2003.01286,0.02637
2002.04848,0.02634
2001.08410,0.02632
2000.11972,0.02630
1999.15535,0.02627
1998.19097,0.02625
1997.22659,0.02623
1996.26221,0.02621
1995.29783,0.02618
1994.33346,0.02616
1993.36908,0.02614
1992.40470,0.02611
1991.44032,0.02609
1990.47594,0.02607
1989.51157,0.02605
1988.54719,0.02602
1987.58281,0.02600
1986.61843,0.02598
1985.65406,0.02595
1984.68968,0.02593
1983.72530,0.02591
1982.76092,0.02589
1981.79654,0.02586
1980.83217,0.02584
1979.86779,0.02582
1978.90341,0.02580
1977.93903,0.02577
1976.97465,0.02575
1976.01028,0.02573
1975.04590,0.02570
1974.08152,0.02568
1973.11714,0.02566
1972.15276,0.02564
1971.18839,0.02561
1970.22401,0.02559
1969.25963,0.02557
1968.29525,0.02554
1967.33088,0.02552
1966.36650,0.02550
1965.40212,0.02548
1964.43774,0.02545
1963.47336,0.02543
1962.50899,0.02541
1961.54461,0.02538
1960.58023,0.02536
1959.61585,0.02534
1958.65147,0.02532
1957.68710,0.02529
1956.72272,0.02527
1955.75834,0.02525
1954.79396,0.02522
1953.82959,0.02520
1952.86521,0.02518
1951.90083,0.02516
1950.93645,0.02513
1949.97207,0.02511
1949.00770,0.02509
1948.04332,0.02507
1947.07894,0.02504
1946.11456,0.02502
1945.15018,0.02500
1944.18581,0.02497
1943.22143,0.02495
1942.25705,0.02493
1941.29267,0.02491
1940.32829,0.02488
1939.36392,0.02486
1938.39954,0.02484
1937.43516,0.02481
1936.47078,0.02479
1935.50641,0.02477
1934.54203,0.02475
1933.57765,0.02472
1932.61327,0.02470
1931.64889,0.02468
1930.68452,0.02465
1929.72014,0.02463
1928.75576,0.02461
1927.79138,0.02459
1926.82700,0.02456
1925.86263,0.02398
1924.89825,0.02349
1923.93387,0.02418
1922.96949,0.02458
1922.00512,0.02443
1921.04074,0.02421
1920.07636,0.02408
1919.11198,0.02488
1918.14760,0.02533
1917.18323,0.02484
1916.21885,0.02460
1915.25447,0.02434
1914.29009,0.02402
1913.32571,0.02421
1912.36134,0.02441
1911.39696,0.02387
1910.43258,0.02316
1909.46820,0.02335
1908.50382,0.02370
1907.53945,0.02317
1906.57507,0.02305
1905.61069,0.02395
1904.64631,0.02444
1903.68194,0.02417
1902.71756,0.02373
1901.75318,0.02355
1900.78880,0.02373
1899.82442,0.02386
1898.86005,0.02391
1897.89567,0.02394
1896.93129,0.02437
1895.96691,0.02467
1895.00253,0.02395
1894.03816,0.02340
1893.07378,0.02336
1892.10940,0.02344
1891.14502,0.02370
1890.18065,0.02365
1889.21627,0.02372
1888.25189,0.02400
1887.28751,0.02398
1886.32313,0.02386
1885.35876,0.02378
1884.39438,0.02369
1883.43000,0.02387
1882.46562,0.02426
1881.50124,0.02398
1880.53687,0.02337
1879.57249,0.02352
1878.60811,0.02380
1877.64373,0.02377
1876.67935,0.02383
1875.71498,0.02376
1874.75060,0.02355
1873.78622,0.02376
1872.82184,0.02416
1871.85747,0.02397
1870.89309,0.02366
1869.92871,0.02387
1868.96433,0.02384
1867.99995,0.02351
1867.03558,0.02358
1866.07120,0.02387
1865.10682,0.02402
1864.14244,0.02396
1863.17806,0.02371
1862.21369,0.02366
1861.24931,0.02409
1860.28493,0.02425
1859.32055,0.02381
1858.35618,0.02386
1857.39180,0.02421
1856.42742,0.02413
1855.46304,0.02388
1854.49866,0.02378
1853.53429,0.02386
1852.56991,0.02400
1851.60553,0.02418
1850.64115,0.02434
1849.67677,0.02432
1848.71240,0.02423
1847.74802,0.02436
1846.78364,0.02452
1845.81926,0.02451
1844.85488,0.02469
1843.89051,0.02467
1842.92613,0.02425
1841.96175,0.02428
1840.99737,0.02475
1840.03300,0.02501
1839.06862,0.02502
1838.10424,0.02514
1837.13986,0.02522
1836.17548,0.02511
1835.21111,0.02489
1834.24673,0.02482
1833.28235,0.02502
1832.31797,0.02518
1831.35359,0.02539
1830.38922,0.02557
1829.42484,0.02555
1828.46046,0.02549
1827.49608,0.02545
1826.53171,0.02567
1825.56733,0.02587
1824.60295,0.02591
1823.63857,0.02585
1822.67419,0.02573
1821.70982,0.02582
1820.74544,0.02587
1819.78106,0.02605
1818.81668,0.02635
1817.85230,0.02639
1816.88793,0.02630
1815.92355,0.02617
1814.95917,0.02614
1813.99479,0.02622
1813.03041,0.02646
1812.06604,0.02664
1811.10166,0.02653
1810.13728,0.02654
1809.17290,0.02666
1808.20853,0.02672
1807.24415,0.02673
1806.27977,0.02667
1805.31539,0.02674
1804.35101,0.02691
1803.38664,0.02704
1802.42226,0.02709
1801.45788,0.02716
1800.49350,0.02736
1799.52912,0.02750
1798.56475,0.02745
1797.60037,0.02743
1796.63599,0.02753
1795.67161,0.02763
1794.70724,0.02779
1793.74286,0.02801
1792.77848,0.02824
1791.81410,0.02841
1790.84972,0.02836
1789.88535,0.02830
1788.92097,0.02831
1787.95659,0.02842
1786.99221,0.02867
1786.02783,0.02883
1785.06346,0.02899
1784.09908,0.02930
1783.13470,0.02964
1782.17032,0.02992
1781.20594,0.03010
1780.24157,0.03019
1779.27719,0.03036
1778.31281,0.03068
1777.34843,0.03088
1776.38406,0.03110
1775.41968,0.03152
1774.45530,0.03193
1773.49092,0.03237
1772.52654,0.03266
1771.56217,0.03283
1770.59779,0.03296
1769.63341,0.03310
1768.66903,0.03348
1767.70465,0.03380
1766.74028,0.03396
1765.77590,0.03429
1764.81152,0.03468
1763.84714,0.03495
1762.88276,0.03529
1761.91839,0.03566
1760.95401,0.03579
1759.98963,0.03594
1759.02525,0.03627
1758.06088,0.03661
1757.09650,0.03689
1756.13212,0.03696
1755.16774,0.03721
1754.20336,0.03755
1753.23899,0.03765
1752.27461,0.03808
1751.31023,0.03858
1750.34585,0.03860
1749.38147,0.03859
1748.41710,0.03882
1747.45272,0.03903
1746.48834,0.03915
1745.52396,0.03927
1744.55959,0.03939
1743.59521,0.03947
1742.63083,0.03957
1741.66645,0.03971
1740.70207,0.03988
1739.73770,0.03995
1738.77332,0.03990
1737.80894,0.03997
1736.84456,0.04004
1735.88018,0.04015
1734.91581,0.04042
1733.95143,0.04044
1732.98705,0.04020
1732.02267,0.03987
1731.05829,0.03963
1730.09392,0.03959
1729.12954,0.03949
1728.16516,0.03939
1727.20078,0.03928
1726.23641,0.03926
1725.27203,0.03919
1724.30765,0.03895
1723.34327,0.03885
1722.37889,0.03867
1721.41452,0.03839
1720.45014,0.03829
1719.48576,0.03832
1718.52138,0.03839
1717.55700,0.03821
1716.59263,0.03781
1715.62825,0.03757
1714.66387,0.03746
1713.69949,0.03714
1712.73512,0.03683
1711.77074,0.03663
1710.80636,0.03640
1709.84198,0.03618
1708.87760,0.03589
1707.91323,0.03563
1706.94885,0.03551
1705.98447,0.03543
1705.02009,0.03515
1704.05571,0.03480
1703.09134,0.03457
1702.12696,0.03441
1701.16258,0.03460
1700.19820,0.03459
1699.23382,0.03397
1698.26945,0.03345
1697.30507,0.03333
1696.34069,0.03346
1695.37631,0.03315
1694.41194,0.03258
1693.44756,0.03232
1692.48318,0.03214
1691.51880,0.03202
1690.55442,0.03187
1689.59005,0.03164
1688.62567,0.03149
1687.66129,0.03127
1686.69691,0.03111
1685.73253,0.03131
1684.76816,0.03140
1683.80378,0.03106
1682.83940,0.03069
1681.87502,0.03042
1680.91065,0.03033
1679.94627,0.03025
1678.98189,0.03016
1678.01751,0.03002
1677.05313,0.02985
1676.08876,0.02995
1675.12438,0.02995
1674.16000,0.02973
1673.19562,0.02971
1672.23124,0.02974
1671.26687,0.02967
1670.30249,0.02962
1669.33811,0.02964
1668.37373,0.02954
1667.40935,0.02948
1666.44498,0.02956
1665.48060,0.02957
1664.51622,0.02960
1663.55184,0.02971
1662.58747,0.02981
1661.62309,0.02971
1660.65871,0.02971
1659.69433,0.02988
1658.72995,0.02997
1657.76558,0.03002
1656.80120,0.03003
1655.83682,0.03021
1654.87244,0.03058
1653.90806,0.03111
1652.94369,0.03150
1651.97931,0.03124
1651.01493,0.03099
1650.05055,0.03100
1649.08618,0.03118
1648.12180,0.03150
1647.15742,0.03185
1646.19304,0.03216
1645.22866,0.03218
1644.26429,0.03220
1643.29991,0.03243
1642.33553,0.03265
1641.37115,0.03290
1640.40677,0.03319
1639.44240,0.03350
1638.47802,0.03381
1637.51364,0.03411
1636.54926,0.03466
1635.58488,0.03527
1634.62051,0.03545
1633.65613,0.03555
1632.69175,0.03587
1631.72737,0.03627
1630.76300,0.03669
1629.79862,0.03707
1628.83424,0.03749
1627.86986,0.03785
1626.90548,0.03813
1625.94111,0.03845
1624.97673,0.03878
1624.01235,0.03919
1623.04797,0.03948
1622.08359,0.03964
1621.11922,0.03989
1620.15484,0.04022
1619.19046,0.04048
1618.22608,0.04076
1617.26171,0.04126
1616.29733,0.04146
1615.33295,0.04131
1614.36857,0.04143
1613.40419,0.04161
1612.43982,0.04169
1611.47544,0.04189
1610.51106,0.04218
1609.54668,0.04233
1608.58230,0.04249
1607.61793,0.04271
1606.65355,0.04286
1605.68917,0.04306
1604.72479,0.04324
1603.76041,0.04340
1602.79604,0.04360
1601.83166,0.04386
1600.86728,0.04406
1599.90290,0.04429
1598.93853,0.04467
1597.97415,0.04495
1597.00977,0.04519
1596.04539,0.04545
1595.08101,0.04570
1594.11664,0.04591
1593.15226,0.04608
1592.18788,0.04636
1591.22350,0.04662
1590.25912,0.04681
1589.29475,0.04697
1588.33037,0.04714
1587.36599,0.04729
1586.40161,0.04737
1585.43724,0.04746
1584.47286,0.04752
1583.50848,0.04750
1582.54410,0.04750
1581.57972,0.04752
1580.61535,0.04748
1579.65097,0.04744
1578.68659,0.04732
1577.72221,0.04723
1576.75783,0.04734
1575.79346,0.04709
1574.82908,0.04652
1573.86470,0.04619
1572.90032,0.04599
1571.93594,0.04571
1570.97157,0.04545
1570.00719,0.04533
1569.04281,0.04499
1568.07843,0.04436
1567.11406,0.04384
1566.14968,0.04354
1565.18530,0.04322
1564.22092,0.04282
1563.25654,0.04236
1562.29217,0.04188
1561.32779,0.04166
1560.36341,0.04159
1559.39903,0.04134
1558.43465,0.04091
1557.47028,0.04017
1556.50590,0.03945
1555.54152,0.03911
1554.57714,0.03883
1553.61276,0.03828
1552.64839,0.03772
1551.68401,0.03737
1550.71963,0.03710
1549.75525,0.03673
1548.79088,0.03624
1547.82650,0.03576
1546.86212,0.03540
1545.89774,0.03515
1544.93336,0.03489
1543.96899,0.03451
1543.00461,0.03429
1542.04023,0.03416
1541.07585,0.03378
1540.11147,0.03365
1539.14710,0.03354
1538.18272,0.03292
1537.21834,0.03243
1536.25396,0.03219
1535.28959,0.03197
1534.32521,0.03180
1533.36083,0.03153
1532.39645,0.03114
1531.43207,0.03089
1530.46770,0.03077
1529.50332,0.03063
1528.53894,0.03048
1527.57456,0.03024
1526.61018,0.03009
1525.64581,0.02999
1524.68143,0.02972
1523.71705,0.02961
1522.75267,0.02969
1521.78829,0.02970
1520.82392,0.02949
1519.85954,0.02912
1518.89516,0.02894
1517.93078,0.02896
1516.96641,0.02891
1516.00203,0.02872
1515.03765,0.02857
1514.07327,0.02852
1513.10889,0.02853
1512.14452,0.02847
1511.18014,0.02831
1510.21576,0.02830
1509.25138,0.02832
1508.28700,0.02838
1507.32263,0.02859
1506.35825,0.02870
1505.39387,0.02854
1504.42949,0.02822
1503.46512,0.02808
1502.50074,0.02815
1501.53636,0.02821
1500.57198,0.02825
1499.60760,0.02831
1498.64323,0.02834
1497.67885,0.02835
1496.71447,0.02850
1495.75009,0.02849
1494.78571,0.02835
1493.82134,0.02839
1492.85696,0.02847
1491.89258,0.02865
1490.92820,0.02885
1489.96382,0.02894
1488.99945,0.02899
1488.03507,0.02909
1487.07069,0.02923
1486.10631,0.02922
1485.14194,0.02922
1484.17756,0.02934
1483.21318,0.02943
1482.24880,0.02956
1481.28442,0.02970
1480.32005,0.02986
1479.35567,0.03004
1478.39129,0.03019
1477.42691,0.03039
1476.46253,0.03060
1475.49816,0.03070
1474.53378,0.03087
1473.56940,0.03120
1472.60502,0.03151
1471.64065,0.03164
1470.67627,0.03165
1469.71189,0.03177
1468.74751,0.03201
1467.78313,0.03230
1466.81876,0.03258
1465.85438,0.03288
1464.89000,0.03322
1463.92562,0.03336
1462.96124,0.03345
1461.99687,0.03367
1461.03249,0.03398
1460.06811,0.03432
1459.10373,0.03459
1458.13935,0.03496
1457.17498,0.03552
1456.21060,0.03568
1455.24622,0.03560
1454.28184,0.03582
1453.31747,0.03609
1452.35309,0.03626
1451.38871,0.03646
1450.42433,0.03666
1449.45995,0.03697
1448.49558,0.03731
1447.53120,0.03757
1446.56682,0.03773
1445.60244,0.03790
1444.63806,0.03821
1443.67369,0.03849
1442.70931,0.03876
1441.74493,0.03899
1440.78055,0.03919
1439.81618,0.03942
1438.85180,0.03962
1437.88742,0.04003
1436.92304,0.04050
1435.95866,0.04057
1434.99429,0.04061
1434.02991,0.04088
1433.06553,0.04108
1432.10115,0.04123
1431.13677,0.04149
1430.17240,0.04173
1429.20802,0.04198
1428.24364,0.04218
1427.27926,0.04234
1426.31488,0.04253
1425.35051,0.04275
1424.38613,0.04296
1423.42175,0.04308
1422.45737,0.04324
1421.49300,0.04342
1420.52862,0.04374
1419.56424,0.04412
1418.59986,0.04416
1417.63548,0.04415
1416.67111,0.04426
1415.70673,0.04434
1414.74235,0.04445
1413.77797,0.04463
1412.81359,0.04486
1411.84922,0.04499
1410.88484,0.04510
1409.92046,0.04520
1408.95608,0.04528
1407.99171,0.04537
1407.02733,0.04549
1406.06295,0.04562
1405.09857,0.04576
1404.13419,0.04591
1403.16982,0.04591
1402.20544,0.04590
1401.24106,0.04600
1400.27668,0.04616
1399.31230,0.04636
1398.34793,0.04644
1397.38355,0.04650
1396.41917,0.04660
1395.45479,0.04672
1394.49041,0.04671
1393.52604,0.04652
1392.56166,0.04659
1391.59728,0.04680
1390.63290,0.04689
1389.66853,0.04693
1388.70415,0.04698
1387.73977,0.04711
1386.77539,0.04721
1385.81101,0.04717
1384.84664,0.04713
1383.88226,0.04717
1382.91788,0.04727
1381.95350,0.04727
1380.98912,0.04728
1380.02475,0.04749
1379.06037,0.04766
1378.09599,0.04764
1377.13161,0.04765
1376.16724,0.04775
1375.20286,0.04784
1374.23848,0.04786
1373.27410,0.04781
1372.30972,0.04783
1371.34535,0.04787
1370.38097,0.04785
1369.41659,0.04786
1368.45221,0.04789
1367.48783,0.04791
1366.52346,0.04796
1365.55908,0.04800
1364.59470,0.04803
1363.63032,0.04813
1362.66594,0.04820
1361.70157,0.04819
1360.73719,0.04821
1359.77281,0.04818
1358.80843,0.04812
1357.84406,0.04815
1356.87968,0.04819
1355.91530,0.04812
1354.95092,0.04807
1353.98654,0.04812
1353.02217,0.04820
1352.05779,0.04822
1351.09341,0.04823
1350.12903,0.04823
1349.16465,0.04817
1348.20028,0.04813
1347.23590,0.04813
1346.27152,0.04809
1345.30714,0.04804
1344.34276,0.04805
1343.37839,0.04816
1342.41401,0.04822
1341.44963,0.04822
1340.48525,0.04820
1339.52088,0.04816
1338.55650,0.04820
1337.59212,0.04821
1336.62774,0.04822
1335.66336,0.04827
1334.69899,0.04832
1333.73461,0.04840
1332.77023,0.04835
1331.80585,0.04836
1330.84147,0.04847
1329.87710,0.04849
1328.91272,0.04855
1327.94834,0.04858
1326.98396,0.04861
1326.01959,0.04863
1325.05521,0.04866
1324.09083,0.04877
1323.12645,0.04887
1322.16207,0.04894
1321.19770,0.04896
1320.23332,0.04898
1319.26894,0.04899
1318.30456,0.04901
1317.34018,0.04913
1316.37581,0.04928
1315.41143,0.04946
1314.44705,0.04954
1313.48267,0.04953
1312.51829,0.04962
1311.55392,0.04974
1310.58954,0.04985
1309.62516,0.04998
1308.66078,0.05011
1307.69641,0.05025
1306.73203,0.05036
1305.76765,0.05050
1304.80327,0.05058
1303.83889,0.05064
1302.87452,0.05086
1301.91014,0.05110
1300.94576,0.05123
1299.98138,0.05131
1299.01700,0.05149
1298.05263,0.05167
1297.08825,0.05175
1296.12387,0.05189
1295.15949,0.05210
1294.19512,0.05239
1293.23074,0.05258
1292.26636,0.05269
1291.30198,0.05280
1290.33760,0.05289
1289.37323,0.05312
1288.40885,0.05340
1287.44447,0.05359
1286.48009,0.05375
1285.51571,0.05389
1284.55134,0.05407
1283.58696,0.05423
1282.62258,0.05438
1281.65820,0.05456
1280.69382,0.05472
1279.72945,0.05487
1278.76507,0.05506
1277.80069,0.05524
1276.83631,0.05538
1275.87194,0.05557
1274.90756,0.05570
1273.94318,0.05581
1272.97880,0.05602
1272.01442,0.05621
1271.05005,0.05642
1270.08567,0.05668
1269.12129,0.05689
1268.15691,0.05701
1267.19253,0.05711
1266.22816,0.05729
1265.26378,0.05745
1264.29940,0.05754
1263.33502,0.05763
1262.37065,0.05775
1261.40627,0.05792
1260.44189,0.05814
1259.47751,0.05827
1258.51313,0.05836
1257.54876,0.05849
1256.58438,0.05864
1255.62000,0.05878
1254.65562,0.05888
1253.69124,0.05902
1252.72687,0.05910
1251.76249,0.05917
1250.79811,0.05931
1249.83373,0.05935
1248.86935,0.05934
1247.90498,0.05946
1246.94060,0.05962
1245.97622,0.05971
1245.01184,0.05975
1244.04747,0.05979
1243.08309,0.05980
1242.11871,0.05981
1241.15433,0.05980
1240.18995,0.05981
1239.22558,0.05983
1238.26120,0.05977
1237.29682,0.05974
1236.33244,0.05981
1235.36806,0.05989
1234.40369,0.05989
1233.43931,0.05983
1232.47493,0.05975
1231.51055,0.05970
1230.54618,0.05967
1229.58180,0.05964
1228.61742,0.05957
1227.65304,0.05946
1226.68866,0.05936
1225.72429,0.05926
1224.75991,0.05914
1223.79553,0.05901
1222.83115,0.05885
1221.86677,0.05868
1220.90240,0.05853
1219.93802,0.05846
1218.97364,0.05830
1218.00926,0.05806
1217.04488,0.05792
1216.08051,0.05774
1215.11613,0.05751
1214.15175,0.05732
1213.18737,0.05717
1212.22300,0.05705
1211.25862,0.05685
1210.29424,0.05667
1209.32986,0.05663
1208.36548,0.05651
1207.40111,0.05627
1206.43673,0.05608
1205.47235,0.05592
1204.50797,0.05578
1203.54359,0.05569
1202.57922,0.05551
1201.61484,0.05529
1200.65046,0.05514
1199.68608,0.05497
1198.72171,0.05483
1197.75733,0.05473
1196.79295,0.05463
1195.82857,0.05450
1194.86419,0.05433
1193.89982,0.05414
1192.93544,0.05401
1191.97106,0.05397
1191.00668,0.05391
1190.04230,0.05378
1189.07793,0.05368
1188.11355,0.05363
1187.14917,0.05356
1186.18479,0.05341
1185.22041,0.05326
1184.25604,0.05317
1183.29166,0.05308
1182.32728,0.05306
1181.36290,0.05304
1180.39853,0.05295
1179.43415,0.05296
1178.46977,0.05289
1177.50539,0.05271
1176.54101,0.05267
1175.57664,0.05272
1174.61226,0.05266
1173.64788,0.05249
1172.68350,0.05245
1171.71912,0.05241
1170.75475,0.05225
1169.79037,0.05225
1168.82599,0.05231
1167.86161,0.05227
1166.89724,0.05214
1165.93286,0.05201
1164.96848,0.05198
1164.00410,0.05192
1163.03972,0.05190
1162.07535,0.05193
1161.11097,0.05189
1160.14659,0.05178
1159.18221,0.05170
1158.21783,0.05165
1157.25346,0.05151
1156.28908,0.05147
1155.32470,0.05146
1154.36032,0.05121
1153.39594,0.05103
1152.43157,0.05106
1151.46719,0.05120
1150.50281,0.05120
1149.53843,0.05106
1148.57406,0.05096
1147.60968,0.05083
1146.64530,0.05069
1145.68092,0.05059
1144.71654,0.05055
1143.75217,0.05051
1142.78779,0.05042
1141.82341,0.05039
1140.85903,0.05032
1139.89465,0.05029
1138.93028,0.05028
1137.96590,0.05011
1137.00152,0.04994
1136.03714,0.04997
1135.07276,0.05003
1134.10839,0.04996
1133.14401,0.04990
1132.17963,0.04995
1131.21525,0.04993
1130.25088,0.04991
1129.28650,0.05004
1128.32212,0.05001
1127.35774,0.04986
1126.39336,0.04988
1125.42899,0.04996
1124.46461,0.05000
1123.50023,0.04996
1122.53585,0.04994
1121.57147,0.05000
1120.60710,0.05006
1119.64272,0.05006
1118.67834,0.05010
1117.71396,0.05027
1116.74959,0.05032
1115.78521,0.05020
1114.82083,0.05017
1113.85645,0.05021
1112.89207,0.05025
1111.92770,0.05037
1110.96332,0.05050
1109.99894,0.05053
1109.03456,0.05060
1108.07018,0.05069
1107.10581,0.05071
1106.14143,0.05084
1105.17705,0.05100
1104.21267,0.05102
1103.24829,0.05102
1102.28392,0.05109
1101.31954,0.05118
1100.35516,0.05128
1099.39078,0.05143
1098.42641,0.05165
1097.46203,0.05180
1096.49765,0.05184
1095.53327,0.05189
1094.56889,0.05198
1093.60452,0.05215
1092.64014,0.05236
1091.67576,0.05244
1090.71138,0.05257
1089.74700,0.05274
1088.78263,0.05280
1087.81825,0.05286
1086.85387,0.05299
1085.88949,0.05321
1084.92512,0.05337
1083.96074,0.05347
1082.99636,0.05367
1082.03198,0.05379
1081.06760,0.05385
1080.10323,0.05395
1079.13885,0.05396
1078.17447,0.05405
1077.21009,0.05416
1076.24571,0.05417
1075.28134,0.05427
1074.31696,0.05439
1073.35258,0.05441
1072.38820,0.05438
1071.42382,0.05439
1070.45945,0.05449
1069.49507,0.05459
1068.53069,0.05462
1067.56631,0.05459
1066.60194,0.05459
1065.63756,0.05460
1064.67318,0.05453
1063.70880,0.05437
1062.74442,0.05424
1061.78005,0.05429
1060.81567,0.05437
1059.85129,0.05437
1058.88691,0.05432
1057.92253,0.05420
1056.95816,0.05412
1055.99378,0.05404
1055.02940,0.05395
1054.06502,0.05378
1053.10065,0.05345
1052.13627,0.05319
1051.17189,0.05309
1050.20751,0.05291
1049.24313,0.05265
1048.27876,0.05243
1047.31438,0.05223
1046.35000,0.05202
1045.38562,0.05177
1044.42124,0.05145
1043.45687,0.05103
1042.49249,0.05061
1041.52811,0.05035
1040.56373,0.05017
1039.59935,0.04985
1038.63498,0.04942
1037.67060,0.04907
1036.70622,0.04869
1035.74184,0.04840
1034.77747,0.04821
1033.81309,0.04782
1032.84871,0.04744
1031.88433,0.04711
1030.91995,0.04678
1029.95558,0.04649
1028.99120,0.04617
1028.02682,0.04587
1027.06244,0.04552
1026.09806,0.04524
1025.13369,0.04492
1024.16931,0.04454
1023.20493,0.04442
1022.24055,0.04421
1021.27618,0.04387
1020.31180,0.04362
1019.34742,0.04336
1018.38304,0.04310
1017.41866,0.04291
1016.45429,0.04270
1015.48991,0.04245
1014.52553,0.04233
1013.56115,0.04215
1012.59677,0.04197
1011.63240,0.04193
1010.66802,0.04174
1009.70364,0.04146
1008.73926,0.04127
1007.77488,0.04110
1006.81051,0.04090
1005.84613,0.04076
1004.88175,0.04076
1003.91737,0.04063
1002.95300,0.04046
1001.98862,0.04047
1001.02424,0.04039
1000.05986,0.04030
999.09548,0.04025
998.13111,0.04009
997.16673,0.04001
996.20235,0.04002
995.23797,0.04001
994.27359,0.04000
993.30922,0.03983
992.34484,0.03968
991.38046,0.03969
990.41608,0.03956
989.45171,0.03938
988.48733,0.03931
987.52295,0.03927
986.55857,0.03917
985.59419,0.03902
984.62982,0.03890
983.66544,0.03881
982.70106,0.03884
981.73668,0.03889
980.77230,0.03868
979.80793,0.03835
978.84355,0.03813
977.87917,0.03803
976.91479,0.03786
975.95041,0.03770
974.98604,0.03771
974.02166,0.03765
973.05728,0.03744
972.09290,0.03718
971.12853,0.03693
970.16415,0.03676
969.19977,0.03659
968.23539,0.03644
967.27101,0.03620
966.30664,0.03592
965.34226,0.03572
964.37788,0.03561
963.41350,0.03564
962.44912,0.03557
961.48475,0.03538
960.52037,0.03512
959.55599,0.03476
958.59161,0.03461
957.62724,0.03454
956.66286,0.03440
955.69848,0.03430
954.73410,0.03418
953.76972,0.03393
952.80535,0.03362
951.84097,0.03346
950.87659,0.03337
949.91221,0.03345
948.94783,0.03354
947.98346,0.03315
947.01908,0.03268
946.05470,0.03254
945.09032,0.03254
944.12594,0.03236
943.16157,0.03200
942.19719,0.03185
941.23281,0.03188
940.26843,0.03188
939.30406,0.03169
938.33968,0.03149
937.37530,0.03149
936.41092,0.03137
935.44654,0.03111
934.48217,0.03087
933.51779,0.03078
932.55341,0.03070
931.58903,0.03053
930.62465,0.03046
929.66028,0.03030
928.69590,0.03008
927.73152,0.02991
926.76714,0.02965
925.80276,0.02942
924.83839,0.02941
923.87401,0.02954
922.90963,0.02944
921.94525,0.02928
920.98088,0.02922
920.01650,0.02894
919.05212,0.02877
918.08774,0.02895
917.12336,0.02886
916.15899,0.02849
915.19461,0.02850
914.23023,0.02857
913.26585,0.02849
912.30147,0.02849
911.33710,0.02818
910.37272,0.02796
909.40834,0.02815
908.44396,0.02826
907.47959,0.02816
906.51521,0.02803
905.55083,0.02822
904.58645,0.02831
903.62207,0.02800
902.65770,0.02781
901.69332,0.02781
900.72894,0.02795
899.76456,0.02797
898.80018,0.02773
897.83581,0.02774
896.87143,0.02787
895.90705,0.02784
894.94267,0.02796
893.97829,0.02820
893.01392,0.02819
892.04954,0.02792
891.08516,0.02781
890.12078,0.02803
889.15641,0.02793
888.19203,0.02747
887.22765,0.02737
886.26327,0.02756
885.29889,0.02768
884.33452,0.02782
883.37014,0.02784
882.40576,0.02776
881.44138,0.02772
880.47700,0.02771
879.51263,0.02783
878.54825,0.02786
877.58387,0.02781
876.61949,0.02788
875.65512,0.02800
874.69074,0.02820
873.72636,0.02823
872.76198,0.02824
871.79760,0.02839
870.83323,0.02821
869.86885,0.02821
868.90447,0.02852
867.94009,0.02859
866.97571,0.02850
866.01134,0.02848
865.04696,0.02862
864.08258,0.02885
863.11820,0.02890
862.15382,0.02868
861.18945,0.02854
860.22507,0.02861
859.26069,0.02873
858.29631,0.02876
857.33194,0.02873
856.36756,0.02883
855.40318,0.02896
854.43880,0.02899
853.47442,0.02909
852.51005,0.02921
851.54567,0.02909
850.58129,0.02890
849.61691,0.02900
848.65253,0.02913
847.68816,0.02899
846.72378,0.02880
845.75940,0.02887
844.79502,0.02901
843.83065,0.02904
842.86627,0.02909
841.90189,0.02916
840.93751,0.02912
839.97313,0.02902
839.00876,0.02914
838.04438,0.02939
837.08000,0.02933
836.11562,0.02915
835.15124,0.02902
834.18687,0.02903
833.22249,0.02900
832.25811,0.02897
831.29373,0.02912
830.32935,0.02910
829.36498,0.02899
828.40060,0.02898
827.43622,0.02892
826.47184,0.02879
825.50747,0.02869
824.54309,0.02859
823.57871,0.02851
822.61433,0.02854
821.64995,0.02844
820.68558,0.02844
819.72120,0.02866
818.75682,0.02871
817.79244,0.02854
816.82806,0.02838
815.86369,0.02849
814.89931,0.02859
813.93493,0.02847
812.97055,0.02841
812.00618,0.02830
811.04180,0.02814
810.07742,0.02809
809.11304,0.02810
808.14866,0.02812
807.18429,0.02827
806.21991,0.02832
805.25553,0.02807
804.29115,0.02797
803.32677,0.02813
802.36240,0.02830
801.39802,0.02842
800.43364,0.02846
799.46926,0.02827
798.50488,0.02802
797.54051,0.02784
796.57613,0.02774
795.61175,0.02788
794.64737,0.02784
793.68300,0.02771
792.71862,0.02788
791.75424,0.02777
790.78986,0.02755
789.82548,0.02760
788.86111,0.02783
787.89673,0.02790
786.93235,0.02773
785.96797,0.02765
785.00359,0.02746
784.03922,0.02745
783.07484,0.02780
782.11046,0.02793
781.14608,0.02791
780.18171,0.02775
779.21733,0.02748
778.25295,0.02747
777.28857,0.02762
776.32419,0.02794
775.35982,0.02820
774.39544,0.02801
773.43106,0.02779
772.46668,0.02772
771.50230,0.02763
770.53793,0.02770
769.57355,0.02787
768.60917,0.02795
767.64479,0.02804
766.68041,0.02792
765.71604,0.02766
764.75166,0.02776
763.78728,0.02810
762.82290,0.02827
761.85853,0.02792
760.89415,0.02764
759.92977,0.02780
758.96539,0.02773
758.00101,0.02762
757.03664,0.02775
756.07226,0.02797
755.10788,0.02804
754.14350,0.02814
753.17912,0.02841
752.21475,0.02834
751.25037,0.02822
750.28599,0.02809
749.32161,0.02799
748.35724,0.02826
747.39286,0.02829
746.42848,0.02806
745.46410,0.02801
744.49972,0.02817
743.53535,0.02822
742.57097,0.02812
741.60659,0.02823
740.64221,0.02851
739.67783,0.02878
738.71346,0.02880
737.74908,0.02867
736.78470,0.02856
735.82032,0.02857
734.85594,0.02868
733.89157,0.02855
732.92719,0.02851
731.96281,0.02861
730.99843,0.02864
730.03406,0.02894
729.06968,0.02919
728.10530,0.02903
727.14092,0.02890
726.17654,0.02903
725.21217,0.02908
724.24779,0.02907
723.28341,0.02917
722.31903,0.02917
721.35465,0.02909
720.39028,0.02913
719.42590,0.02934
718.46152,0.02961
717.49714,0.02960
716.53276,0.02936
715.56839,0.02939
714.60401,0.02959
713.63963,0.02970
712.67525,0.02973
711.71088,0.02978
710.74650,0.02995
709.78212,0.02998
708.81774,0.02970
707.85336,0.02960
706.88899,0.02985
705.92461,0.03006
704.96023,0.03020
703.99585,0.03016
703.03147,0.02992
702.06710,0.02989
701.10272,0.03007
700.13834,0.03030
699.17396,0.03031
698.20959,0.03023
697.24521,0.03026
696.28083,0.03021
695.31645,0.03012
694.35207,0.03003
693.38770,0.03009
692.42332,0.03026
691.45894,0.03036
690.49456,0.03028
689.53018,0.03009
688.56581,0.03010
687.60143,0.03012
686.63705,0.03011
685.67267,0.03018
684.70829,0.03036
683.74392,0.03044
682.77954,0.03034
681.81516,0.03040
680.85078,0.03053
679.88641,0.03049
678.92203,0.03039
677.95765,0.03042
676.99327,0.03044
676.02889,0.03037
675.06452,0.03050
674.10014,0.03057
673.13576,0.03054
672.17138,0.03053
671.20700,0.03064
670.24263,0.03086
669.27825,0.03120
668.31387,0.03179
667.34949,0.03165
666.38512,0.03119
665.42074,0.03098
664.45636,0.03069
663.49198,0.03064
662.52760,0.03079
661.56323,0.03100
660.59885,0.03101
659.63447,0.03095
658.67009,0.03107
657.70571,0.03120
656.74134,0.03124
655.77696,0.03114
654.81258,0.03116
653.84820,0.03115
652.88382,0.03102
651.91945,0.03099
650.95507,0.03111
649.99069,0.03133
649.02631,0.03127
648.06194,0.03128
647.09756,0.03131
646.13318,0.03128
645.16880,0.03128
644.20442,0.03119
643.24005,0.03159
642.27567,0.03194
641.31129,0.03186
640.34691,0.03179
639.38253,0.03168
638.41816,0.03150
637.45378,0.03142
636.48940,0.03171
635.52502,0.03192
634.56065,0.03185
633.59627,0.03180
632.63189,0.03171
631.66751,0.03153
630.70313,0.03134
629.73876,0.03148
628.77438,0.03177
627.81000,0.03178
626.84562,0.03167
625.88124,0.03122
624.91687,0.03094
623.95249,0.03079
622.98811,0.02892
622.02373,0.02626
621.05935,0.02676
620.09498,0.02955
619.13060,0.03167
618.16622,0.03145
617.20184,0.03176
616.23747,0.03385
615.27309,0.03246
614.30871,0.03090
613.34433,0.03109
612.37995,0.03106
611.41558,0.03286
610.45120,0.03231
609.48682,0.03206
608.52244,0.03355
607.55806,0.03201
606.59369,0.03181
605.62931,0.03254
604.66493,0.03059
603.70055,0.02989
602.73618,0.03168
601.77180,0.03243
600.80742,0.03273
599.84304,0.03334
598.87866,0.03327
597.91429,0.03248
596.94991,0.03197
595.98553,0.03240
595.02115,0.03325
594.05677,0.03370
593.09240,0.03325
592.12802,0.03263
591.16364,0.03264
590.19926,0.03282
589.23488,0.03312
588.27051,0.03361
587.30613,0.03358
586.34175,0.03303
585.37737,0.03289
584.41300,0.03311
583.44862,0.03315
582.48424,0.03312
581.51986,0.03281
580.55548,0.03251
579.59111,0.03271
578.62673,0.03278
577.66235,0.03238
576.69797,0.03193
575.73359,0.03155
574.76922,0.03166
573.80484,0.03228
572.84046,0.03263
571.87608,0.03274
570.91171,0.03240
569.94733,0.03202
568.98295,0.03236
568.01857,0.03231
567.05419,0.03169
566.08982,0.03154
565.12544,0.03184
564.16106,0.03208
563.19668,0.03201
562.23230,0.03184
561.26793,0.03162
560.30355,0.03121
559.33917,0.03097
558.37479,0.03140
557.41041,0.03142
556.44604,0.03070
555.48166,0.03067
554.51728,0.03120
553.55290,0.03166
552.58853,0.03203
551.62415,0.03192
550.65977,0.03157
549.69539,0.03125
548.73101,0.03130
547.76664,0.03195
546.80226,0.03252
545.83788,0.03229
544.87350,0.03149
543.90912,0.03110
542.94475,0.03118
541.98037,0.03137
541.01599,0.03160
540.05161,0.03136
539.08724,0.03103
538.12286,0.03137
537.15848,0.03187
536.19410,0.03223
535.22972,0.03214
534.26535,0.03157
533.30097,0.03164
532.33659,0.03214
531.37221,0.03171
530.40783,0.03087
529.44346,0.03100
528.47908,0.03157
527.51470,0.03204
526.55032,0.03230
525.58594,0.03206
524.62157,0.03178
523.65719,0.03135
522.69281,0.03102
521.72843,0.03112
520.76406,0.03125
519.79968,0.03165
518.83530,0.03170
517.87092,0.03158
516.90654,0.03183
515.94217,0.03177
514.97779,0.03162
514.01341,0.03169
513.04903,0.03187
512.08465,0.03187
511.12028,0.03185
510.15590,0.03231
509.19152,0.03249
508.22714,0.03212
507.26276,0.03157
506.29839,0.03110
505.33401,0.03122
504.36963,0.03173
503.40525,0.03185
502.44088,0.03172
501.47650,0.03188
500.51212,0.03202
499.54774,0.03189
498.58336,0.03167
497.61899,0.03168
496.65461,0.03143
495.69023,0.03092
494.72585,0.03121
493.76147,0.03161
492.79710,0.03133
491.83272,0.03069
490.86834,0.03044
489.90396,0.03080
488.93959,0.03103
487.97521,0.03153
487.01083,0.03181
486.04645,0.03126
485.08207,0.03097
484.11770,0.03125
483.15332,0.03163
482.18894,0.03133
481.22456,0.03112
480.26018,0.03135
479.29581,0.03111
478.33143,0.03114
477.36705,0.03139
476.40267,0.03116
475.43829,0.03102
474.47392,0.03134
473.50954,0.03166
472.54516,0.03166
471.58078,0.03161
470.61641,0.03185
469.65203,0.03176
468.68765,0.03103
467.72327,0.03099
466.75889,0.03117
465.79452,0.03100
464.83014,0.03130
463.86576,0.03118
462.90138,0.03072
461.93700,0.03056
460.97263,0.03083
460.00825,0.03122
459.04387,0.03095
458.07949,0.03061
457.11512,0.03050
456.15074,0.03075
455.18636,0.03120
454.22198,0.03111
453.25760,0.03094
452.29323,0.03106
451.32885,0.03110
450.36447,0.03086
449.40009,0.03076
448.43571,0.03070
447.47134,0.03060
446.50696,0.03079
445.54258,0.03079
444.57820,0.03078
443.61382,0.03100
442.64945,0.03100
441.68507,0.03106
440.72069,0.03106
439.75631,0.03061
438.79194,0.03045
437.82756,0.03073
436.86318,0.03042
435.89880,0.03007
434.93442,0.03018
433.97005,0.03019
433.00567,0.03030
432.04129,0.03041
431.07691,0.03028
430.11253,0.03019
429.14816,0.03044
428.18378,0.03055
427.21940,0.03014
426.25502,0.02976
425.29065,0.02976
424.32627,0.02987
423.36189,0.02994
422.39751,0.02993
421.43313,0.02975
420.46876,0.02971
419.50438,0.02971
418.54000,0.02950
417.57562,0.02945
416.61124,0.02960
415.64687,0.02965
414.68249,0.02957
413.71811,0.02957
412.75373,0.02934
411.78935,0.02898
410.82498,0.02898
409.86060,0.02901
408.89622,0.02909
407.93184,0.02903
406.96747,0.02892
406.00309,0.02893
405.03871,0.02852
404.07433,0.02828
403.10995,0.02867
402.14558,0.02903
401.18120,0.02885
400.21682,0.02879
399.25244,0.02897
