3998.31069,0.00309
3997.34631,0.00323
3996.38194,0.00330
3995.41756,0.00337
3994.45318,0.00335
3993.48880,0.00334
3992.52442,0.00320
3991.56005,0.00284
3990.59567,0.00286
3989.63129,0.00308
3988.66691,0.00314
3987.70253,0.00295
3986.73816,0.00302
3985.77378,0.00333
3984.80940,0.00319
3983.84502,0.00307
3982.88065,0.00299
3981.91627,0.00284
3980.95189,0.00287
3979.98751,0.00314
3979.02313,0.00352
3978.05876,0.00336
3977.09438,0.00298
3976.13000,0.00301
3975.16562,0.00329
3974.20124,0.00324
3973.23687,0.00267
3972.27249,0.00235
3971.30811,0.00248
3970.34373,0.00290
3969.37935,0.00300
3968.41498,0.00300
3967.45060,0.00330
3966.48622,0.00311
3965.52184,0.00291
3964.55747,0.00285
3963.59309,0.00270
3962.62871,0.00277
3961.66433,0.00261
3960.69995,0.00254
3959.73558,0.00283
3958.77120,0.00308
3957.80682,0.00304
3956.84244,0.00313
3955.87806,0.00350
3954.91369,0.00336
3953.94931,0.00301
3952.98493,0.00283
3952.02055,0.00283
3951.05618,0.00286
3950.09180,0.00260
3949.12742,0.00265
3948.16304,0.00295
3947.19866,0.00306
3946.23429,0.00307
3945.26991,0.00316
3944.30553,0.00328
3943.34115,0.00341
3942.37677,0.00348
3941.41240,0.00300
3940.44802,0.00256
3939.48364,0.00266
3938.51926,0.00264
3937.55488,0.00255
3936.59051,0.00240
3935.62613,0.00245
3934.66175,0.00299
3933.69737,0.00319
3932.73300,0.00293
3931.76862,0.00271
3930.80424,0.00282
3929.83986,0.00289
3928.87548,0.00252
3927.91111,0.00234
3926.94673,0.00276
3925.98235,0.00332
3925.01797,0.00332
3924.05359,0.00297
3923.08922,0.00318
3922.12484,0.00332
3921.16046,0.00298
3920.19608,0.00301
3919.23171,0.00302
3918.26733,0.00287
3917.30295,0.00312
3916.33857,0.00325
3915.37419,0.00314
3914.40982,0.00306
3913.44544,0.00280
3912.48106,0.00263
3911.51668,0.00291
3910.55230,0.00315
3909.58793,0.00313
3908.62355,0.00324
3907.65917,0.00340
3906.69479,0.00307
3905.73041,0.00257
3904.76604,0.00268
3903.80166,0.00279
3902.83728,0.00259
3901.87290,0.00267
3900.90853,0.00270
3899.94415,0.00277
3898.97977,0.00295
3898.01539,0.00285
3897.05101,0.00289
3896.08664,0.00322
3895.12226,0.00340
3894.15788,0.00321
3893.19350,0.00305
3892.22912,0.00320
3891.26475,0.00329
3890.30037,0.00334
3889.33599,0.00338
3888.37161,0.00324
3887.40724,0.00312
3886.44286,0.00308
3885.47848,0.00284
3884.51410,0.00267
3883.54972,0.00272
3882.58535,0.00287
3881.62097,0.00313
3880.65659,0.00294
3879.69221,0.00262
3878.72783,0.00267
3877.76346,0.00288
3876.79908,0.00324
3875.83470,0.00327
3874.87032,0.00314
3873.90594,0.00316
3872.94157,0.00296
3871.97719,0.00296
3871.01281,0.00339
3870.04843,0.00359
3869.08406,0.00339
3868.11968,0.00342
3867.15530,0.00352
3866.19092,0.00352
3865.22654,0.00365
3864.26217,0.00359
3863.29779,0.00366
3862.33341,0.00364
3861.36903,0.00317
3860.40465,0.00294
3859.44028,0.00305
3858.47590,0.00330
3857.51152,0.00326
3856.54714,0.00281
3855.58276,0.00296
3854.61839,0.00371
3853.65401,0.00391
3852.68963,0.00375
3851.72525,0.00335
3850.76088,0.00277
3849.79650,0.00299
3848.83212,0.00371
3847.86774,0.00368
3846.90336,0.00319
3845.93899,0.00308
3844.97461,0.00298
3844.01023,0.00276
3843.04585,0.00289
3842.08147,0.00306
3841.11710,0.00304
3840.15272,0.00305
3839.18834,0.00307
3838.22396,0.00264
3837.25959,0.00242
3836.29521,0.00295
3835.33083,0.00291
3834.36645,0.00257
3833.40207,0.00287
3832.43770,0.00312
3831.47332,0.00267
3830.50894,0.00222
3829.54456,0.00256
3828.58018,0.00301
3827.61581,0.00311
3826.65143,0.00296
3825.68705,0.00291
3824.72267,0.00324
3823.75829,0.00351
3822.79392,0.00341
3821.82954,0.00292
3820.86516,0.00284
3819.90078,0.00315
3818.93641,0.00308
3817.97203,0.00306
3817.00765,0.00335
3816.04327,0.00359
3815.07889,0.00317
3814.11452,0.00260
3813.15014,0.00247
3812.18576,0.00258
3811.22138,0.00285
3810.25700,0.00292
3809.29263,0.00312
3808.32825,0.00343
3807.36387,0.00340
3806.39949,0.00330
3805.43512,0.00313
3804.47074,0.00308
3803.50636,0.00343
3802.54198,0.00363
3801.57760,0.00313
3800.61323,0.00288
3799.64885,0.00313
3798.68447,0.00300
3797.72009,0.00275
3796.75571,0.00289
3795.79134,0.00314
3794.82696,0.00300
3793.86258,0.00294
3792.89820,0.00298
3791.93382,0.00266
3790.96945,0.00254
3790.00507,0.00258
3789.04069,0.00244
3788.07631,0.00221
3787.11194,0.00242
3786.14756,0.00291
3785.18318,0.00294
3784.21880,0.00290
3783.25442,0.00274
3782.29005,0.00259
3781.32567,0.00276
3780.36129,0.00260
3779.39691,0.00247
3778.43253,0.00261
3777.46816,0.00275
3776.50378,0.00294
3775.53940,0.00328
3774.57502,0.00360
3773.61065,0.00354
3772.64627,0.00308
3771.68189,0.00276
3770.71751,0.00305
3769.75313,0.00321
3768.78876,0.00283
3767.82438,0.00283
3766.86000,0.00298
3765.89562,0.00293
3764.93124,0.00297
3763.96687,0.00298
3763.00249,0.00303
3762.03811,0.00313
3761.07373,0.00313
3760.10935,0.00303
3759.14498,0.00298
3758.18060,0.00302
3757.21622,0.00292
3756.25184,0.00290
3755.28747,0.00292
3754.32309,0.00281
3753.35871,0.00312
3752.39433,0.00344
3751.42995,0.00338
3750.46558,0.00342
3749.50120,0.00329
3748.53682,0.00308
3747.57244,0.00308
3746.60806,0.00296
3745.64369,0.00326
3744.67931,0.00371
3743.71493,0.00327
3742.75055,0.00294
3741.78618,0.00295
3740.82180,0.00278
3739.85742,0.00290
3738.89304,0.00316
3737.92866,0.00318
3736.96429,0.00316
3735.99991,0.00335
3735.03553,0.00351
3734.07115,0.00313
3733.10677,0.00274
3732.14240,0.00280
3731.17802,0.00271
3730.21364,0.00224
3729.24926,0.00216
3728.28488,0.00289
3727.32051,0.00344
3726.35613,0.00326
3725.39175,0.00293
3724.42737,0.00281
3723.46300,0.00283
3722.49862,0.00271
3721.53424,0.00260
3720.56986,0.00286
3719.60548,0.00289
3718.64111,0.00254
3717.67673,0.00253
3716.71235,0.00274
3715.74797,0.00286
3714.78359,0.00293
3713.81922,0.00299
3712.85484,0.00320
3711.89046,0.00345
3710.92608,0.00346
3709.96171,0.00299
3708.99733,0.00253
3708.03295,0.00269
3707.06857,0.00300
3706.10419,0.00309
3705.13982,0.00274
3704.17544,0.00240
3703.21106,0.00282
3702.24668,0.00316
3701.28230,0.00286
3700.31793,0.00268
3699.35355,0.00313
3698.38917,0.00345
3697.42479,0.00312
3696.46041,0.00299
3695.49604,0.00259
3694.53166,0.00192
3693.56728,0.00216
3692.60290,0.00276
3691.63853,0.00317
3690.67415,0.00305
3689.70977,0.00277
3688.74539,0.00316
3687.78101,0.00343
3686.81664,0.00307
3685.85226,0.00253
3684.88788,0.00236
3683.92350,0.00231
3682.95912,0.00222
3681.99475,0.00242
3681.03037,0.00241
3680.06599,0.00237
3679.10161,0.00274
3678.13724,0.00329
3677.17286,0.00367
3676.20848,0.00352
3675.24410,0.00315
3674.27972,0.00303
3673.31535,0.00297
3672.35097,0.00277
3671.38659,0.00282
3670.42221,0.00296
3669.45783,0.00267
3668.49346,0.00261
3667.52908,0.00299
3666.56470,0.00325
3665.60032,0.00311
3664.63594,0.00255
3663.67157,0.00215
3662.70719,0.00243
3661.74281,0.00275
3660.77843,0.00256
3659.81406,0.00251
3658.84968,0.00296
3657.88530,0.00334
3656.92092,0.00322
3655.95654,0.00297
3654.99217,0.00296
3654.02779,0.00303
3653.06341,0.00321
3652.09903,0.00347
3651.13465,0.00353
3650.17028,0.00340
3649.20590,0.00340
3648.24152,0.00319
3647.27714,0.00297
3646.31276,0.00304
3645.34839,0.00310
3644.38401,0.00329
3643.41963,0.00294
3642.45525,0.00253
3641.49088,0.00280
3640.52650,0.00275
3639.56212,0.00285
3638.59774,0.00332
3637.63336,0.00345
3636.66899,0.00339
3635.70461,0.00339
3634.74023,0.00325
3633.77585,0.00289
3632.81147,0.00313
3631.84710,0.00346
3630.88272,0.00319
3629.91834,0.00352
3628.95396,0.00402
3627.98959,0.00357
3627.02521,0.00329
3626.06083,0.00370
3625.09645,0.00371
3624.13207,0.00323
3623.16770,0.00322
3622.20332,0.00362
3621.23894,0.00346
3620.27456,0.00295
3619.31018,0.00294
3618.34581,0.00318
3617.38143,0.00302
3616.41705,0.00279
3615.45267,0.00295
3614.48829,0.00303
3613.52392,0.00326
3612.55954,0.00367
3611.59516,0.00370
3610.63078,0.00356
3609.66641,0.00323
3608.70203,0.00336
3607.73765,0.00368
3606.77327,0.00337
3605.80889,0.00334
3604.84452,0.00347
3603.88014,0.00337
3602.91576,0.00348
3601.95138,0.00355
3600.98700,0.00329
3600.02263,0.00326
3599.05825,0.00359
3598.09387,0.00330
3597.12949,0.00280
3596.16512,0.00301
3595.20074,0.00320
3594.23636,0.00315
3593.27198,0.00332
3592.30760,0.00335
3591.34323,0.00314
3590.37885,0.00310
3589.41447,0.00329
3588.45009,0.00359
3587.48571,0.00376
3586.52134,0.00389
3585.55696,0.00383
3584.59258,0.00355
3583.62820,0.00360
3582.66382,0.00367
3581.69945,0.00361
3580.73507,0.00368
3579.77069,0.00382
3578.80631,0.00397
3577.84194,0.00382
3576.87756,0.00365
3575.91318,0.00378
3574.94880,0.00397
3573.98442,0.00431
3573.02005,0.00435
3572.05567,0.00391
3571.09129,0.00384
3570.12691,0.00406
3569.16253,0.00398
3568.19816,0.00385
3567.23378,0.00358
3566.26940,0.00323
3565.30502,0.00328
3564.34065,0.00359
3563.37627,0.00358
3562.41189,0.00340
3561.44751,0.00349
3560.48313,0.00355
3559.51876,0.00364
3558.55438,0.00383
3557.59000,0.00370
3556.62562,0.00357
3555.66124,0.00370
3554.69687,0.00401
3553.73249,0.00407
3552.76811,0.00374
3551.80373,0.00348
3550.83935,0.00322
3549.87498,0.00324
3548.91060,0.00359
3547.94622,0.00387
3546.98184,0.00400
3546.01747,0.00379
3545.05309,0.00366
3544.08871,0.00374
3543.12433,0.00379
3542.15995,0.00409
3541.19558,0.00395
3540.23120,0.00353
3539.26682,0.00396
3538.30244,0.00432
3537.33806,0.00408
3536.37369,0.00409
3535.40931,0.00421
3534.44493,0.00429
3533.48055,0.00446
3532.51618,0.00419
3531.55180,0.00386
3530.58742,0.00404
3529.62304,0.00407
3528.65866,0.00388
3527.69429,0.00392
3526.72991,0.00392
3525.76553,0.00384
3524.80115,0.00402
3523.83677,0.00430
3522.87240,0.00431
3521.90802,0.00416
3520.94364,0.00422
3519.97926,0.00426
3519.01488,0.00397
3518.05051,0.00364
3517.08613,0.00366
3516.12175,0.00406
3515.15737,0.00444
3514.19300,0.00446
3513.22862,0.00438
3512.26424,0.00441
3511.29986,0.00454
3510.33548,0.00441
3509.37111,0.00386
3508.40673,0.00380
3507.44235,0.00406
3506.47797,0.00403
3505.51359,0.00427
3504.54922,0.00432
3503.58484,0.00409
3502.62046,0.00435
3501.65608,0.00475
3500.69171,0.00488
3499.72733,0.00472
3498.76295,0.00452
3497.79857,0.00435
3496.83419,0.00436
3495.86982,0.00471
3494.90544,0.00464
3493.94106,0.00417
3492.97668,0.00405
3492.01230,0.00427
3491.04793,0.00440
3490.08355,0.00434
3489.11917,0.00424
3488.15479,0.00423
3487.19041,0.00443
3486.22604,0.00455
3485.26166,0.00457
3484.29728,0.00459
3483.33290,0.00446
3482.36853,0.00472
3481.40415,0.00498
3480.43977,0.00475
3479.47539,0.00451
3478.51101,0.00440
3477.54664,0.00448
3476.58226,0.00460
3475.61788,0.00486
3474.65350,0.00509
3473.68912,0.00476
3472.72475,0.00446
3471.76037,0.00449
3470.79599,0.00462
3469.83161,0.00475
3468.86724,0.00469
3467.90286,0.00451
3466.93848,0.00444
3465.97410,0.00448
3465.00972,0.00460
3464.04535,0.00498
3463.08097,0.00534
3462.11659,0.00533
3461.15221,0.00506
3460.18783,0.00483
3459.22346,0.00507
3458.25908,0.00540
3457.29470,0.00540
3456.33032,0.00520
3455.36594,0.00503
3454.40157,0.00493
3453.43719,0.00481
3452.47281,0.00508
3451.50843,0.00531
3450.54406,0.00517
3449.57968,0.00525
3448.61530,0.00524
3447.65092,0.00511
3446.68654,0.00516
3445.72217,0.00524
3444.75779,0.00512
3443.79341,0.00484
3442.82903,0.00490
3441.86465,0.00479
3440.90028,0.00441
3439.93590,0.00464
3438.97152,0.00503
3438.00714,0.00500
3437.04276,0.00488
3436.07839,0.00506
3435.11401,0.00512
3434.14963,0.00489
3433.18525,0.00487
3432.22088,0.00493
3431.25650,0.00518
3430.29212,0.00546
3429.32774,0.00537
3428.36336,0.00539
3427.39899,0.00535
3426.43461,0.00506
3425.47023,0.00503
3424.50585,0.00532
3423.54147,0.00544
3422.57710,0.00527
3421.61272,0.00521
3420.64834,0.00517
3419.68396,0.00509
3418.71959,0.00519
3417.75521,0.00543
3416.79083,0.00566
3415.82645,0.00577
3414.86207,0.00552
3413.89770,0.00516
3412.93332,0.00517
3411.96894,0.00505
3411.00456,0.00501
3410.04018,0.00534
3409.07581,0.00557
3408.11143,0.00581
3407.14705,0.00571
3406.18267,0.00557
3405.21829,0.00575
3404.25392,0.00577
3403.28954,0.00563
3402.32516,0.00538
3401.36078,0.00543
3400.39641,0.00561
3399.43203,0.00552
3398.46765,0.00559
3397.50327,0.00567
3396.53889,0.00545
3395.57452,0.00516
3394.61014,0.00513
3393.64576,0.00512
3392.68138,0.00501
3391.71700,0.00506
3390.75263,0.00522
3389.78825,0.00532
3388.82387,0.00526
3387.85949,0.00517
3386.89512,0.00525
3385.93074,0.00554
3384.96636,0.00561
3384.00198,0.00539
3383.03760,0.00541
3382.07323,0.00565
3381.10885,0.00592
3380.14447,0.00590
3379.18009,0.00563
3378.21571,0.00557
3377.25134,0.00565
3376.28696,0.00563
3375.32258,0.00547
3374.35820,0.00554
3373.39382,0.00585
3372.42945,0.00581
3371.46507,0.00558
3370.50069,0.00560
3369.53631,0.00555
3368.57194,0.00534
3367.60756,0.00523
3366.64318,0.00524
3365.67880,0.00551
3364.71442,0.00550
3363.75005,0.00523
3362.78567,0.00540
3361.82129,0.00543
3360.85691,0.00547
3359.89253,0.00570
3358.92816,0.00572
3357.96378,0.00575
3356.99940,0.00576
3356.03502,0.00568
3355.07065,0.00559
3354.10627,0.00564
3353.14189,0.00582
3352.17751,0.00570
3351.21313,0.00538
3350.24876,0.00553
3349.28438,0.00568
3348.32000,0.00545
3347.35562,0.00572
3346.39124,0.00595
3345.42687,0.00583
3344.46249,0.00597
3343.49811,0.00586
3342.53373,0.00566
3341.56935,0.00579
3340.60498,0.00572
3339.64060,0.00539
3338.67622,0.00535
3337.71184,0.00577
3336.74747,0.00591
3335.78309,0.00552
3334.81871,0.00508
3333.85433,0.00513
3332.88995,0.00543
3331.92558,0.00547
3330.96120,0.00545
3329.99682,0.00557
3329.03244,0.00578
3328.06806,0.00575
3327.10369,0.00543
3326.13931,0.00529
3325.17493,0.00535
3324.21055,0.00547
3323.24618,0.00563
3322.28180,0.00554
3321.31742,0.00523
3320.35304,0.00522
3319.38866,0.00562
3318.42429,0.00572
3317.45991,0.00534
3316.49553,0.00526
3315.53115,0.00565
3314.56677,0.00586
3313.60240,0.00562
3312.63802,0.00516
3311.67364,0.00482
3310.70926,0.00500
3309.74488,0.00537
3308.78051,0.00552
3307.81613,0.00578
3306.85175,0.00597
3305.88737,0.00582
3304.92300,0.00573
3303.95862,0.00562
3302.99424,0.00565
3302.02986,0.00596
3301.06548,0.00590
3300.10111,0.00571
3299.13673,0.00583
3298.17235,0.00594
3297.20797,0.00603
3296.24359,0.00619
3295.27922,0.00596
3294.31484,0.00540
3293.35046,0.00534
3292.38608,0.00567
3291.42171,0.00581
3290.45733,0.00567
3289.49295,0.00547
3288.52857,0.00560
3287.56419,0.00572
3286.59982,0.00560
3285.63544,0.00570
3284.67106,0.00591
3283.70668,0.00597
3282.74230,0.00589
3281.77793,0.00574
3280.81355,0.00559
3279.84917,0.00559
3278.88479,0.00587
3277.92041,0.00602
3276.95604,0.00580
3275.99166,0.00562
3275.02728,0.00559
3274.06290,0.00548
3273.09853,0.00541
3272.13415,0.00535
3271.16977,0.00522
3270.20539,0.00525
3269.24101,0.00539
3268.27664,0.00547
3267.31226,0.00550
3266.34788,0.00552
3265.38350,0.00563
3264.41912,0.00574
3263.45475,0.00573
3262.49037,0.00560
3261.52599,0.00549
3260.56161,0.00544
3259.59724,0.00538
3258.63286,0.00550
3257.66848,0.00568
3256.70410,0.00566
3255.73972,0.00560
3254.77535,0.00565
3253.81097,0.00553
3252.84659,0.00548
3251.88221,0.00567
3250.91783,0.00560
3249.95346,0.00547
3248.98908,0.00564
3248.02470,0.00580
3247.06032,0.00593
3246.09594,0.00597
3245.13157,0.00568
3244.16719,0.00551
3243.20281,0.00564
3242.23843,0.00553
3241.27406,0.00542
3240.30968,0.00533
3239.34530,0.00508
3238.38092,0.00521
3237.41654,0.00533
3236.45217,0.00555
3235.48779,0.00591
3234.52341,0.00585
3233.55903,0.00562
3232.59465,0.00551
3231.63028,0.00562
3230.66590,0.00535
3229.70152,0.00504
3228.73714,0.00532
3227.77276,0.00546
3226.80839,0.00549
3225.84401,0.00549
3224.87963,0.00539
3223.91525,0.00519
3222.95088,0.00498
3221.98650,0.00529
3221.02212,0.00554
3220.05774,0.00542
3219.09336,0.00525
3218.12899,0.00516
3217.16461,0.00525
3216.20023,0.00534
3215.23585,0.00539
3214.27147,0.00536
3213.30710,0.00542
3212.34272,0.00568
3211.37834,0.00554
3210.41396,0.00524
3209.44959,0.00553
3208.48521,0.00583
3207.52083,0.00557
3206.55645,0.00529
3205.59207,0.00509
3204.62770,0.00503
3203.66332,0.00525
3202.69894,0.00533
3201.73456,0.00527
3200.77018,0.00534
3199.80581,0.00526
3198.84143,0.00510
3197.87705,0.00511
3196.91267,0.00508
3195.94829,0.00512
3194.98392,0.00520
3194.01954,0.00512
3193.05516,0.00512
3192.09078,0.00529
3191.12641,0.00554
3190.16203,0.00568
3189.19765,0.00570
3188.23327,0.00570
3187.26889,0.00574
3186.30452,0.00555
3185.34014,0.00503
3184.37576,0.00476
3183.41138,0.00497
3182.44700,0.00536
3181.48263,0.00576
3180.51825,0.00579
3179.55387,0.00548
3178.58949,0.00525
3177.62512,0.00519
3176.66074,0.00521
3175.69636,0.00534
3174.73198,0.00527
3173.76760,0.00511
3172.80323,0.00521
3171.83885,0.00520
3170.87447,0.00499
3169.91009,0.00492
3168.94571,0.00488
3167.98134,0.00477
3167.01696,0.00484
3166.05258,0.00511
3165.08820,0.00516
3164.12382,0.00501
3163.15945,0.00505
3162.19507,0.00524
3161.23069,0.00531
3160.26631,0.00532
3159.30194,0.00523
3158.33756,0.00494
3157.37318,0.00485
3156.40880,0.00502
3155.44442,0.00507
3154.48005,0.00500
3153.51567,0.00505
3152.55129,0.00510
3151.58691,0.00509
3150.62253,0.00505
3149.65816,0.00501
3148.69378,0.00500
3147.72940,0.00481
3146.76502,0.00494
3145.80065,0.00540
3144.83627,0.00540
3143.87189,0.00524
3142.90751,0.00505
3141.94313,0.00481
3140.97876,0.00498
3140.01438,0.00517
3139.05000,0.00503
3138.08562,0.00495
3137.12124,0.00496
3136.15687,0.00493
3135.19249,0.00487
3134.22811,0.00489
3133.26373,0.00514
3132.29935,0.00521
3131.33498,0.00499
3130.37060,0.00493
3129.40622,0.00486
3128.44184,0.00480
3127.47747,0.00503
3126.51309,0.00526
3125.54871,0.00526
3124.58433,0.00521
3123.61995,0.00514
3122.65558,0.00489
3121.69120,0.00468
3120.72682,0.00478
3119.76244,0.00496
3118.79806,0.00512
3117.83369,0.00523
3116.86931,0.00506
3115.90493,0.00494
3114.94055,0.00498
3113.97618,0.00494
3113.01180,0.00500
3112.04742,0.00494
3111.08304,0.00494
3110.11866,0.00495
3109.15429,0.00464
3108.18991,0.00457
3107.22553,0.00475
3106.26115,0.00487
3105.29677,0.00487
3104.33240,0.00482
3103.36802,0.00485
3102.40364,0.00478
3101.43926,0.00473
3100.47488,0.00472
3099.51051,0.00485
3098.54613,0.00505
3097.58175,0.00504
3096.61737,0.00512
3095.65300,0.00508
3094.68862,0.00494
3093.72424,0.00486
3092.75986,0.00470
3091.79548,0.00484
3090.83111,0.00498
3089.86673,0.00483
3088.90235,0.00483
3087.93797,0.00487
3086.97359,0.00482
3086.00922,0.00487
3085.04484,0.00500
3084.08046,0.00478
3083.11608,0.00462
3082.15171,0.00493
3081.18733,0.00498
3080.22295,0.00484
3079.25857,0.00492
3078.29419,0.00497
3077.32982,0.00491
3076.36544,0.00490
3075.40106,0.00503
3074.43668,0.00499
3073.47230,0.00505
3072.50793,0.00529
3071.54355,0.00513
3070.57917,0.00485
3069.61479,0.00477
3068.65041,0.00483
3067.68604,0.00490
3066.72166,0.00496
3065.75728,0.00519
3064.79290,0.00523
3063.82853,0.00501
3062.86415,0.00495
3061.89977,0.00488
3060.93539,0.00478
3059.97101,0.00497
3059.00664,0.00514
3058.04226,0.00504
3057.07788,0.00506
3056.11350,0.00508
3055.14912,0.00475
3054.18475,0.00458
3053.22037,0.00482
3052.25599,0.00501
3051.29161,0.00489
3050.32724,0.00458
3049.36286,0.00442
3048.39848,0.00459
3047.43410,0.00463
3046.46972,0.00464
3045.50535,0.00465
3044.54097,0.00456
3043.57659,0.00459
3042.61221,0.00463
3041.64783,0.00464
3040.68346,0.00455
3039.71908,0.00445
3038.75470,0.00462
3037.79032,0.00470
3036.82594,0.00459
3035.86157,0.00445
3034.89719,0.00453
3033.93281,0.00471
3032.96843,0.00481
3032.00406,0.00495
3031.03968,0.00481
3030.07530,0.00468
3029.11092,0.00479
3028.14654,0.00467
3027.18217,0.00452
3026.21779,0.00470
3025.25341,0.00477
3024.28903,0.00454
3023.32465,0.00445
3022.36028,0.00455
3021.39590,0.00476
3020.43152,0.00475
3019.46714,0.00447
3018.50276,0.00444
3017.53839,0.00457
3016.57401,0.00476
3015.60963,0.00479
3014.64525,0.00446
3013.68088,0.00434
3012.71650,0.00444
3011.75212,0.00436
3010.78774,0.00427
3009.82336,0.00434
3008.85899,0.00451
3007.89461,0.00464
3006.93023,0.00452
3005.96585,0.00436
3005.00147,0.00450
3004.03710,0.00475
3003.07272,0.00469
3002.10834,0.00449
3001.14396,0.00453
3000.17959,0.00455
2999.21521,0.00457
2998.25083,0.00453
2997.28645,0.00450
2996.32207,0.00469
2995.35770,0.00469
2994.39332,0.00461
2993.42894,0.00456
2992.46456,0.00448
2991.50018,0.00465
2990.53581,0.00474
2989.57143,0.00472
2988.60705,0.00461
2987.64267,0.00433
2986.67829,0.00424
2985.71392,0.00434
2984.74954,0.00451
2983.78516,0.00470
2982.82078,0.00460
2981.85641,0.00435
2980.89203,0.00445
2979.92765,0.00463
2978.96327,0.00466
2977.99889,0.00464
2977.03452,0.00461
2976.07014,0.00464
2975.10576,0.00465
2974.14138,0.00461
2973.17700,0.00450
2972.21263,0.00449
2971.24825,0.00444
2970.28387,0.00448
2969.31949,0.00470
2968.35512,0.00466
2967.39074,0.00466
2966.42636,0.00460
2965.46198,0.00447
2964.49760,0.00466
2963.53323,0.00477
2962.56885,0.00474
2961.60447,0.00466
2960.64009,0.00469
2959.67571,0.00478
2958.71134,0.00466
2957.74696,0.00460
2956.78258,0.00459
2955.81820,0.00455
2954.85382,0.00457
2953.88945,0.00465
2952.92507,0.00465
2951.96069,0.00446
2950.99631,0.00446
2950.03194,0.00469
2949.06756,0.00481
2948.10318,0.00474
2947.13880,0.00452
2946.17442,0.00436
2945.21005,0.00450
2944.24567,0.00455
2943.28129,0.00449
2942.31691,0.00454
2941.35253,0.00458
2940.38816,0.00475
2939.42378,0.00501
2938.45940,0.00521
2937.49502,0.00518
2936.53065,0.00501
2935.56627,0.00506
2934.60189,0.00515
2933.63751,0.00515
2932.67313,0.00506
2931.70876,0.00510
2930.74438,0.00526
2929.78000,0.00534
2928.81562,0.00532
2927.85124,0.00524
2926.88687,0.00529
2925.92249,0.00530
2924.95811,0.00513
2923.99373,0.00506
2923.02935,0.00513
2922.06498,0.00514
2921.10060,0.00500
2920.13622,0.00504
2919.17184,0.00514
2918.20747,0.00506
2917.24309,0.00503
2916.27871,0.00497
2915.31433,0.00486
2914.34995,0.00486
2913.38558,0.00491
2912.42120,0.00490
2911.45682,0.00492
2910.49244,0.00493
2909.52806,0.00474
2908.56369,0.00457
2907.59931,0.00450
2906.63493,0.00449
2905.67055,0.00453
2904.70618,0.00452
2903.74180,0.00464
2902.77742,0.00469
2901.81304,0.00449
2900.84866,0.00433
2899.88429,0.00418
2898.91991,0.00405
2897.95553,0.00414
2896.99115,0.00441
2896.02677,0.00461
2895.06240,0.00456
2894.09802,0.00440
2893.13364,0.00426
2892.16926,0.00417
2891.20488,0.00428
2890.24051,0.00440
2889.27613,0.00440
2888.31175,0.00431
2887.34737,0.00424
2886.38300,0.00422
2885.41862,0.00421
2884.45424,0.00422
2883.48986,0.00420
2882.52548,0.00429
2881.56111,0.00426
2880.59673,0.00404
2879.63235,0.00409
2878.66797,0.00428
2877.70359,0.00443
2876.73922,0.00444
2875.77484,0.00420
2874.81046,0.00411
2873.84608,0.00428
2872.88171,0.00446
2871.91733,0.00446
2870.95295,0.00439
2869.98857,0.00434
2869.02419,0.00431
2868.05982,0.00444
2867.09544,0.00450
2866.13106,0.00449
2865.16668,0.00460
2864.20230,0.00476
2863.23793,0.00470
2862.27355,0.00435
2861.30917,0.00424
2860.34479,0.00438
2859.38041,0.00448
2858.41604,0.00456
2857.45166,0.00456
2856.48728,0.00457
2855.52290,0.00468
2854.55853,0.00477
2853.59415,0.00479
2852.62977,0.00481
2851.66539,0.00483
2850.70101,0.00461
2849.73664,0.00448
2848.77226,0.00458
2847.80788,0.00449
2846.84350,0.00421
2845.87912,0.00399
2844.91475,0.00408
2843.95037,0.00433
2842.98599,0.00428
2842.02161,0.00404
2841.05724,0.00390
2840.09286,0.00395
2839.12848,0.00410
2838.16410,0.00419
2837.19972,0.00412
2836.23535,0.00394
2835.27097,0.00396
2834.30659,0.00411
2833.34221,0.00409
2832.37783,0.00409
2831.41346,0.00417
2830.44908,0.00412
2829.48470,0.00411
2828.52032,0.00424
2827.55594,0.00427
2826.59157,0.00420
2825.62719,0.00408
2824.66281,0.00383
2823.69843,0.00367
2822.73406,0.00374
2821.76968,0.00395
2820.80530,0.00408
2819.84092,0.00398
2818.87654,0.00380
2817.91217,0.00370
2816.94779,0.00371
2815.98341,0.00379
2815.01903,0.00377
2814.05465,0.00372
2813.09028,0.00368
2812.12590,0.00361
2811.16152,0.00377
2810.19714,0.00397
2809.23276,0.00399
2808.26839,0.00401
2807.30401,0.00393
2806.33963,0.00379
2805.37525,0.00372
2804.41088,0.00378
2803.44650,0.00390
2802.48212,0.00394
2801.51774,0.00385
2800.55336,0.00377
2799.58899,0.00380
2798.62461,0.00376
2797.66023,0.00379
2796.69585,0.00388
2795.73147,0.00388
2794.76710,0.00391
2793.80272,0.00384
2792.83834,0.00372
2791.87396,0.00366
2790.90959,0.00373
2789.94521,0.00384
2788.98083,0.00383
2788.01645,0.00386
2787.05207,0.00384
2786.08770,0.00376
2785.12332,0.00372
2784.15894,0.00365
2783.19456,0.00364
2782.23018,0.00371
2781.26581,0.00379
2780.30143,0.00376
2779.33705,0.00374
2778.37267,0.00383
2777.40829,0.00387
2776.44392,0.00375
2775.47954,0.00357
2774.51516,0.00347
2773.55078,0.00342
2772.58641,0.00350
2771.62203,0.00358
2770.65765,0.00358
2769.69327,0.00370
2768.72889,0.00368
2767.76452,0.00357
2766.80014,0.00348
2765.83576,0.00342
2764.87138,0.00356
2763.90700,0.00361
2762.94263,0.00347
2761.97825,0.00338
2761.01387,0.00341
2760.04949,0.00355
2759.08512,0.00361
2758.12074,0.00359
2757.15636,0.00363
2756.19198,0.00362
2755.22760,0.00365
2754.26323,0.00372
2753.29885,0.00359
2752.33447,0.00351
2751.37009,0.00357
2750.40571,0.00362
2749.44134,0.00366
2748.47696,0.00347
2747.51258,0.00328
2746.54820,0.00336
2745.58382,0.00349
2744.61945,0.00358
2743.65507,0.00356
2742.69069,0.00357
2741.72631,0.00363
2740.76194,0.00357
2739.79756,0.00345
2738.83318,0.00336
2737.86880,0.00339
2736.90442,0.00342
2735.94005,0.00337
2734.97567,0.00340
2734.01129,0.00346
2733.04691,0.00356
2732.08253,0.00355
2731.11816,0.00350
2730.15378,0.00356
2729.18940,0.00347
2728.22502,0.00335
2727.26065,0.00340
2726.29627,0.00336
2725.33189,0.00329
2724.36751,0.00331
2723.40313,0.00333
2722.43876,0.00331
2721.47438,0.00337
2720.51000,0.00344
2719.54562,0.00345
2718.58124,0.00349
2717.61687,0.00339
2716.65249,0.00332
2715.68811,0.00347
2714.72373,0.00357
2713.75935,0.00360
2712.79498,0.00358
2711.83060,0.00339
2710.86622,0.00329
2709.90184,0.00342
2708.93747,0.00345
2707.97309,0.00335
2707.00871,0.00334
2706.04433,0.00337
2705.07995,0.00330
2704.11558,0.00328
2703.15120,0.00325
2702.18682,0.00313
2701.22244,0.00316
2700.25806,0.00334
2699.29369,0.00338
2698.32931,0.00330
2697.36493,0.00342
2696.40055,0.00356
2695.43618,0.00349
2694.47180,0.00349
2693.50742,0.00356
2692.54304,0.00351
2691.57866,0.00347
2690.61429,0.00344
2689.64991,0.00344
2688.68553,0.00339
2687.72115,0.00326
2686.75677,0.00322
2685.79240,0.00325
2684.82802,0.00330
2683.86364,0.00333
2682.89926,0.00338
2681.93488,0.00343
2680.97051,0.00330
2680.00613,0.00323
2679.04175,0.00334
2678.07737,0.00335
2677.11300,0.00329
2676.14862,0.00324
2675.18424,0.00326
2674.21986,0.00341
2673.25548,0.00345
2672.29111,0.00341
2671.32673,0.00338
2670.36235,0.00332
2669.39797,0.00330
2668.43359,0.00332
2667.46922,0.00339
2666.50484,0.00340
2665.54046,0.00325
2664.57608,0.00315
2663.61171,0.00325
2662.64733,0.00344
2661.68295,0.00341
2660.71857,0.00332
2659.75419,0.00335
2658.78982,0.00332
2657.82544,0.00323
2656.86106,0.00318
2655.89668,0.00326
2654.93230,0.00332
2653.96793,0.00321
2653.00355,0.00312
2652.03917,0.00303
2651.07479,0.00302
2650.11041,0.00313
2649.14604,0.00314
2648.18166,0.00307
2647.21728,0.00312
2646.25290,0.00327
2645.28853,0.00326
2644.32415,0.00323
2643.35977,0.00319
2642.39539,0.00310
2641.43101,0.00313
2640.46664,0.00314
2639.50226,0.00320
2638.53788,0.00317
2637.57350,0.00304
2636.60912,0.00309
2635.64475,0.00315
2634.68037,0.00307
2633.71599,0.00306
2632.75161,0.00310
2631.78724,0.00295
2630.82286,0.00290
2629.85848,0.00319
2628.89410,0.00329
2627.92972,0.00313
2626.96535,0.00301
2626.00097,0.00291
2625.03659,0.00287
2624.07221,0.00297
2623.10783,0.00301
2622.14346,0.00305
2621.17908,0.00320
2620.21470,0.00320
2619.25032,0.00325
2618.28594,0.00319
2617.32157,0.00293
2616.35719,0.00299
2615.39281,0.00323
2614.42843,0.00329
2613.46406,0.00328
2612.49968,0.00324
2611.53530,0.00294
2610.57092,0.00279
2609.60654,0.00303
2608.64217,0.00315
2607.67779,0.00315
2606.71341,0.00308
2605.74903,0.00277
2604.78465,0.00261
2603.82028,0.00284
2602.85590,0.00303
2601.89152,0.00309
2600.92714,0.00316
2599.96276,0.00338
2598.99839,0.00356
2598.03401,0.00334
2597.06963,0.00305
2596.10525,0.00278
2595.14088,0.00272
2594.17650,0.00303
2593.21212,0.00311
2592.24774,0.00282
2591.28336,0.00252
2590.31899,0.00268
2589.35461,0.00289
2588.39023,0.00259
2587.42585,0.00243
2586.46147,0.00257
2585.49710,0.00284
2584.53272,0.00299
2583.56834,0.00285
2582.60396,0.00291
2581.63959,0.00315
2580.67521,0.00300
2579.71083,0.00258
2578.74645,0.00262
2577.78207,0.00288
2576.81770,0.00301
2575.85332,0.00310
2574.88894,0.00304
2573.92456,0.00286
2572.96018,0.00274
2571.99581,0.00282
2571.03143,0.00288
2570.06705,0.00299
2569.10267,0.00316
2568.13829,0.00291
2567.17392,0.00270
2566.20954,0.00309
2565.24516,0.00346
2564.28078,0.00331
2563.31641,0.00291
2562.35203,0.00249
2561.38765,0.00240
2560.42327,0.00271
2559.45889,0.00293
2558.49452,0.00288
2557.53014,0.00281
2556.56576,0.00287
2555.60138,0.00295
2554.63700,0.00314
2553.67263,0.00324
2552.70825,0.00301
2551.74387,0.00287
2550.77949,0.00282
2549.81512,0.00280
2548.85074,0.00284
2547.88636,0.00265
2546.92198,0.00244
2545.95760,0.00271
2544.99323,0.00296
2544.02885,0.00277
2543.06447,0.00281
2542.10009,0.00286
2541.13571,0.00279
2540.17134,0.00298
2539.20696,0.00317
2538.24258,0.00288
2537.27820,0.00231
2536.31382,0.00245
2535.34945,0.00275
2534.38507,0.00275
2533.42069,0.00277
2532.45631,0.00232
2531.49194,0.00221
2530.52756,0.00253
2529.56318,0.00260
2528.59880,0.00299
2527.63442,0.00313
2526.67005,0.00282
2525.70567,0.00313
2524.74129,0.00325
2523.77691,0.00251
2522.81253,0.00221
2521.84816,0.00245
2520.88378,0.00276
2519.91940,0.00284
2518.95502,0.00235
2517.99065,0.00200
2517.02627,0.00219
2516.06189,0.00269
2515.09751,0.00300
2514.13313,0.00273
2513.16876,0.00262
2512.20438,0.00296
2511.24000,0.00297
2510.27562,0.00271
2509.31124,0.00260
2508.34687,0.00221
2507.38249,0.00210
2506.41811,0.00255
2505.45373,0.00277
2504.48935,0.00287
2503.52498,0.00263
2502.56060,0.00227
2501.59622,0.00224
2500.63184,0.00220
2499.66747,0.00240
2498.70309,0.00271
2497.73871,0.00292
2496.77433,0.00293
2495.80995,0.00270
2494.84558,0.00272
2493.88120,0.00294
2492.91682,0.00310
2491.95244,0.00295
2490.98806,0.00268
2490.02369,0.00293
2489.05931,0.00317
2488.09493,0.00287
2487.13055,0.00254
2486.16618,0.00262
2485.20180,0.00301
2484.23742,0.00306
2483.27304,0.00285
2482.30866,0.00263
2481.34429,0.00246
2480.37991,0.00259
2479.41553,0.00264
2478.45115,0.00267
2477.48677,0.00279
2476.52240,0.00274
2475.55802,0.00276
2474.59364,0.00261
2473.62926,0.00232
2472.66488,0.00244
2471.70051,0.00277
2470.73613,0.00276
2469.77175,0.00253
2468.80737,0.00234
2467.84300,0.00238
2466.87862,0.00280
2465.91424,0.00283
2464.94986,0.00254
2463.98548,0.00270
2463.02111,0.00295
2462.05673,0.00290
2461.09235,0.00256
2460.12797,0.00248
2459.16359,0.00274
2458.19922,0.00286
2457.23484,0.00286
2456.27046,0.00256
2455.30608,0.00222
2454.34171,0.00234
2453.37733,0.00262
2452.41295,0.00269
2451.44857,0.00253
2450.48419,0.00214
2449.51982,0.00206
2448.55544,0.00256
2447.59106,0.00273
2446.62668,0.00240
2445.66230,0.00213
2444.69793,0.00241
2443.73355,0.00301
2442.76917,0.00285
2441.80479,0.00232
2440.84041,0.00237
2439.87604,0.00284
2438.91166,0.00298
2437.94728,0.00260
2436.98290,0.00257
2436.01853,0.00301
2435.05415,0.00294
2434.08977,0.00255
2433.12539,0.00249
2432.16101,0.00236
2431.19664,0.00242
2430.23226,0.00263
2429.26788,0.00245
2428.30350,0.00254
2427.33912,0.00264
2426.37475,0.00246
2425.41037,0.00272
2424.44599,0.00305
2423.48161,0.00283
2422.51724,0.00262
2421.55286,0.00270
2420.58848,0.00246
2419.62410,0.00226
2418.65972,0.00250
2417.69535,0.00251
2416.73097,0.00235
2415.76659,0.00236
2414.80221,0.00252
2413.83783,0.00257
2412.87346,0.00268
2411.90908,0.00288
2410.94470,0.00278
2409.98032,0.00279
2409.01594,0.00289
2408.05157,0.00275
2407.08719,0.00247
2406.12281,0.00255
2405.15843,0.00275
2404.19406,0.00255
2403.22968,0.00236
2402.26530,0.00207
2401.30092,0.00199
2400.33654,0.00231
2399.37217,0.00248
2398.40779,0.00271
2397.44341,0.00295
2396.47903,0.00296
2395.51465,0.00262
2394.55028,0.00233
2393.58590,0.00234
2392.62152,0.00212
2391.65714,0.00215
2390.69276,0.00249
2389.72839,0.00268
2388.76401,0.00271
2387.79963,0.00268
2386.83525,0.00272
2385.87088,0.00267
2384.90650,0.00257
2383.94212,0.00240
2382.97774,0.00237
2382.01336,0.00257
2381.04899,0.00254
2380.08461,0.00250
2379.12023,0.00266
2378.15585,0.00278
2377.19147,0.00278
2376.22710,0.00268
2375.26272,0.00271
2374.29834,0.00305
2373.33396,0.00334
2372.36959,0.00334
2371.40521,0.00346
2370.44083,0.00351
2369.47645,0.00350
2368.51207,0.00382
2367.54770,0.00384
2366.58332,0.00365
2365.61894,0.00376
2364.65456,0.00398
2363.69018,0.00421
2362.72581,0.00410
2361.76143,0.00377
2360.79705,0.00368
2359.83267,0.00371
2358.86829,0.00372
2357.90392,0.00370
2356.93954,0.00361
2355.97516,0.00357
2355.01078,0.00365
2354.04641,0.00366
2353.08203,0.00350
2352.11765,0.00337
2351.15327,0.00332
2350.18889,0.00320
2349.22452,0.00295
2348.26014,0.00274
2347.29576,0.00286
2346.33138,0.00322
2345.36700,0.00342
2344.40263,0.00347
2343.43825,0.00352
2342.47387,0.00354
2341.50949,0.00348
2340.54512,0.00351
2339.58074,0.00365
2338.61636,0.00358
2337.65198,0.00349
2336.68760,0.00365
2335.72323,0.00368
2334.75885,0.00344
2333.79447,0.00338
2332.83009,0.00347
2331.86571,0.00352
2330.90134,0.00360
2329.93696,0.00345
2328.97258,0.00320
2328.00820,0.00320
2327.04382,0.00335
2326.07945,0.00347
2325.11507,0.00367
2324.15069,0.00375
2323.18631,0.00346
2322.22194,0.00316
2321.25756,0.00291
2320.29318,0.00280
2319.32880,0.00291
2318.36442,0.00292
2317.40005,0.00297
2316.43567,0.00297
2315.47129,0.00287
2314.50691,0.00294
2313.54253,0.00298
2312.57816,0.00270
2311.61378,0.00241
2310.64940,0.00246
2309.68502,0.00234
2308.72065,0.00218
2307.75627,0.00243
2306.79189,0.00259
2305.82751,0.00264
2304.86313,0.00277
2303.89876,0.00275
2302.93438,0.00246
2301.97000,0.00218
2301.00562,0.00217
2300.04124,0.00206
2299.07687,0.00187
2298.11249,0.00186
2297.14811,0.00207
2296.18373,0.00238
2295.21935,0.00257
2294.25498,0.00242
2293.29060,0.00204
2292.32622,0.00182
2291.36184,0.00181
2290.39747,0.00207
2289.43309,0.00268
2288.46871,0.00301
2287.50433,0.00271
2286.53995,0.00213
2285.57558,0.00215
2284.61120,0.00281
2283.64682,0.00313
2282.68244,0.00321
2281.71806,0.00306
2280.75369,0.00251
2279.78931,0.00198
2278.82493,0.00168
2277.86055,0.00145
2276.89618,0.00109
2275.93180,0.00124
2274.96742,0.00156
2274.00304,0.00141
2273.03866,0.00148
2272.07429,0.00168
2271.10991,0.00205
2270.14553,0.00205
2269.18115,0.00205
2268.21677,0.00205
2267.25240,0.00204
2266.28802,0.00204
2265.32364,0.00204
2264.35926,0.00204
2263.39488,0.00204
2262.43051,0.00203
2261.46613,0.00203
2260.50175,0.00203
2259.53737,0.00203
2258.57300,0.00202
2257.60862,0.00202
2256.64424,0.00202
2255.67986,0.00202
2254.71548,0.00201
2253.75111,0.00201
2252.78673,0.00201
2251.82235,0.00201
2250.85797,0.00200
2249.89359,0.00200
2248.92922,0.00200
2247.96484,0.00200
2247.00046,0.00200
2246.03608,0.00199
2245.07171,0.00199
2244.10733,0.00199
2243.14295,0.00199
2242.17857,0.00198
2241.21419,0.00198
2240.24982,0.00198
2239.28544,0.00198
2238.32106,0.00197
2237.35668,0.00197
2236.39230,0.00197
2235.42793,0.00197
2234.46355,0.00197
2233.49917,0.00196
2232.53479,0.00196
2231.57041,0.00196
2230.60604,0.00196
2229.64166,0.00195
2228.67728,0.00195
2227.71290,0.00195
2226.74853,0.00195
2225.78415,0.00194
2224.81977,0.00194
2223.85539,0.00194
2222.89101,0.00194
2221.92664,0.00194
2220.96226,0.00193
2219.99788,0.00193
2219.03350,0.00193
2218.06912,0.00193
2217.10475,0.00192
2216.14037,0.00192
2215.17599,0.00192
2214.21161,0.00192
2213.24724,0.00191
2212.28286,0.00191
2211.31848,0.00191
2210.35410,0.00191
2209.38972,0.00191
2208.42535,0.00190
2207.46097,0.00190
2206.49659,0.00190
2205.53221,0.00190
2204.56783,0.00189
2203.60346,0.00189
2202.63908,0.00189
2201.67470,0.00189
2200.71032,0.00188
2199.74594,0.00188
2198.78157,0.00188
2197.81719,0.00188
2196.85281,0.00188
2195.88843,0.00187
2194.92406,0.00187
2193.95968,0.00187
2192.99530,0.00187
2192.03092,0.00186
2191.06654,0.00186
2190.10217,0.00186
2189.13779,0.00186
2188.17341,0.00185
2187.20903,0.00185
2186.24465,0.00185
2185.28028,0.00185
2184.31590,0.00185
2183.35152,0.00184
2182.38714,0.00184
2181.42276,0.00184
2180.45839,0.00184
2179.49401,0.00183
2178.52963,0.00183
2177.56525,0.00183
2176.60088,0.00183
2175.63650,0.00182
2174.67212,0.00182
2173.70774,0.00182
2172.74336,0.00182
2171.77899,0.00182
2170.81461,0.00181
2169.85023,0.00181
2168.88585,0.00181
2167.92147,0.00181
2166.95710,0.00180
2165.99272,0.00180
2165.02834,0.00180
2164.06396,0.00180
2163.09959,0.00179
2162.13521,0.00179
2161.17083,0.00179
2160.20645,0.00179
2159.24207,0.00178
2158.27770,0.00178
2157.31332,0.00178
2156.34894,0.00178
2155.38456,0.00178
2154.42018,0.00177
2153.45581,0.00177
2152.49143,0.00177
2151.52705,0.00177
2150.56267,0.00176
2149.59829,0.00176
2148.63392,0.00176
2147.66954,0.00176
2146.70516,0.00175
2145.74078,0.00175
2144.77641,0.00175
2143.81203,0.00175
2142.84765,0.00175
2141.88327,0.00174
2140.91889,0.00174
2139.95452,0.00174
2138.99014,0.00174
2138.02576,0.00173
2137.06138,0.00173
2136.09700,0.00173
2135.13263,0.00173
2134.16825,0.00172
2133.20387,0.00172
2132.23949,0.00172
2131.27512,0.00172
2130.31074,0.00172
2129.34636,0.00171
2128.38198,0.00171
2127.41760,0.00171
2126.45323,0.00171
2125.48885,0.00170
2124.52447,0.00170
2123.56009,0.00170
2122.59571,0.00170
2121.63134,0.00169
2120.66696,0.00169
2119.70258,0.00169
2118.73820,0.00169
2117.77382,0.00169
2116.80945,0.00168
2115.84507,0.00168
2114.88069,0.00168
2113.91631,0.00168
2112.95194,0.00167
2111.98756,0.00167
2111.02318,0.00167
2110.05880,0.00167
2109.09442,0.00166
2108.13005,0.00166
2107.16567,0.00166
2106.20129,0.00166
2105.23691,0.00166
2104.27253,0.00165
2103.30816,0.00165
2102.34378,0.00165
2101.37940,0.00165
2100.41502,0.00164
2099.45065,0.00164
2098.48627,0.00164
2097.52189,0.00164
2096.55751,0.00163
2095.59313,0.00163
2094.62876,0.00163
2093.66438,0.00163
2092.70000,0.00163
2091.73562,0.00162
2090.77124,0.00162
2089.80687,0.00162
2088.84249,0.00162
2087.87811,0.00161
2086.91373,0.00161
2085.94935,0.00161
2084.98498,0.00161
2084.02060,0.00160
2083.05622,0.00160
2082.09184,0.00160
2081.12747,0.00160
2080.16309,0.00160
2079.19871,0.00159
2078.23433,0.00159
2077.26995,0.00159
2076.30558,0.00159
2075.34120,0.00158
2074.37682,0.00158
2073.41244,0.00158
2072.44806,0.00158
2071.48369,0.00157
2070.51931,0.00157
2069.55493,0.00157
2068.59055,0.00157
2067.62618,0.00156
2066.66180,0.00156
2065.69742,0.00156
2064.73304,0.00156
2063.76866,0.00156
2062.80429,0.00155
2061.83991,0.00155
2060.87553,0.00155
2059.91115,0.00155
2058.94677,0.00154
2057.98240,0.00154
2057.01802,0.00154
2056.05364,0.00154
2055.08926,0.00153
2054.12488,0.00153
2053.16051,0.00153
2052.19613,0.00153
2051.23175,0.00153
2050.26737,0.00152
2049.30300,0.00152
2048.33862,0.00152
2047.37424,0.00152
2046.40986,0.00151
2045.44548,0.00151
2044.48111,0.00151
2043.51673,0.00151
2042.55235,0.00150
2041.58797,0.00150
2040.62359,0.00150
2039.65922,0.00150
2038.69484,0.00150
2037.73046,0.00149
2036.76608,0.00149
2035.80171,0.00149
2034.83733,0.00149
2033.87295,0.00148
2032.90857,0.00148
2031.94419,0.00148
2030.97982,0.00148
2030.01544,0.00147
2029.05106,0.00147
2028.08668,0.00147
2027.12230,0.00147
2026.15793,0.00147
2025.19355,0.00146
2024.22917,0.00146
2023.26479,0.00146
2022.30041,0.00146
2021.33604,0.00145
2020.37166,0.00145
2019.40728,0.00145
2018.44290,0.00145
2017.47853,0.00144
2016.51415,0.00144
2015.54977,0.00144
2014.58539,0.00144
2013.62101,0.00144
2012.65664,0.00143
2011.69226,0.00143
2010.72788,0.00143
2009.76350,0.00143
2008.79912,0.00142
2007.83475,0.00142
2006.87037,0.00142
2005.90599,0.00142
2004.94161,0.00141
2003.97724,0.00141
2003.01286,0.00141
2002.04848,0.00141
2001.08410,0.00141
2000.11972,0.00140
1999.15535,0.00140
1998.19097,0.00140
1997.22659,0.00140
1996.26221,0.00139
1995.29783,0.00139
1994.33346,0.00139
1993.36908,0.00139
1992.40470,0.00138
1991.44032,0.00138
1990.47594,0.00138
1989.51157,0.00138
1988.54719,0.00138
1987.58281,0.00137
1986.61843,0.00137
1985.65406,0.00137
1984.68968,0.00137
1983.72530,0.00136
1982.76092,0.00136
1981.79654,0.00136
1980.83217,0.00136
1979.86779,0.00135
1978.90341,0.00135
1977.93903,0.00135
1976.97465,0.00135
1976.01028,0.00134
1975.04590,0.00134
1974.08152,0.00134
1973.11714,0.00134
1972.15276,0.00134
1971.18839,0.00133
1970.22401,0.00133
1969.25963,0.00133
1968.29525,0.00133
1967.33088,0.00132
1966.36650,0.00132
1965.40212,0.00132
1964.43774,0.00132
1963.47336,0.00131
1962.50899,0.00131
1961.54461,0.00131
1960.58023,0.00131
1959.61585,0.00131
1958.65147,0.00130
1957.68710,0.00130
1956.72272,0.00130
1955.75834,0.00130
1954.79396,0.00129
1953.82959,0.00129
1952.86521,0.00129
1951.90083,0.00129
1950.93645,0.00128
1949.97207,0.00128
1949.00770,0.00128
1948.04332,0.00128
1947.07894,0.00128
1946.11456,0.00127
1945.15018,0.00127
1944.18581,0.00127
1943.22143,0.00127
1942.25705,0.00126
1941.29267,0.00126
1940.32829,0.00126
1939.36392,0.00126
1938.39954,0.00125
1937.43516,0.00125
1936.47078,0.00125
1935.50641,0.00125
1934.54203,0.00125
1933.57765,0.00124
1932.61327,0.00124
1931.64889,0.00124
1930.68452,0.00124
1929.72014,0.00123
1928.75576,0.00123
1927.79138,0.00123
1926.82700,0.00123
1925.86263,0.00118
1924.89825,0.00129
1923.93387,0.00184
1922.96949,0.00221
1922.00512,0.00210
1921.04074,0.00147
1920.07636,0.00151
1919.11198,0.00190
1918.14760,0.00160
1917.18323,0.00150
1916.21885,0.00141
1915.25447,0.00103
1914.29009,0.00088
1913.32571,0.00118
1912.36134,0.00171
1911.39696,0.00185
1910.43258,0.00147
1909.46820,0.00125
1908.50382,0.00136
1907.53945,0.00087
1906.57507,0.00074
1905.61069,0.00134
1904.64631,0.00143
1903.68194,0.00155
1902.71756,0.00143
1901.75318,0.00112
1900.78880,0.00143
1899.82442,0.00156
1898.86005,0.00129
1897.89567,0.00132
1896.93129,0.00172
1895.96691,0.00152
1895.00253,0.00125
1894.03816,0.00165
1893.07378,0.00175
1892.10940,0.00143
1891.14502,0.00111
1890.18065,0.00107
1889.21627,0.00102
1888.25189,0.00095
1887.28751,0.00132
1886.32313,0.00151
1885.35876,0.00142
1884.39438,0.00126
1883.43000,0.00143
1882.46562,0.00176
1881.50124,0.00159
1880.53687,0.00147
1879.57249,0.00167
1878.60811,0.00174
1877.64373,0.00159
1876.67935,0.00176
1875.71498,0.00188
1874.75060,0.00168
1873.78622,0.00173
1872.82184,0.00141
1871.85747,0.00126
1870.89309,0.00159
1869.92871,0.00186
1868.96433,0.00187
1867.99995,0.00144
1867.03558,0.00144
1866.07120,0.00156
1865.10682,0.00141
1864.14244,0.00152
1863.17806,0.00154
1862.21369,0.00162
1861.24931,0.00196
1860.28493,0.00225
1859.32055,0.00204
1858.35618,0.00185
1857.39180,0.00203
1856.42742,0.00177
1855.46304,0.00144
1854.49866,0.00134
1853.53429,0.00124
1852.56991,0.00124
1851.60553,0.00110
1850.64115,0.00117
1849.67677,0.00152
1848.71240,0.00158
1847.74802,0.00159
1846.78364,0.00175
1845.81926,0.00170
1844.85488,0.00171
1843.89051,0.00181
1842.92613,0.00158
1841.96175,0.00153
1840.99737,0.00179
1840.03300,0.00179
1839.06862,0.00175
1838.10424,0.00182
1837.13986,0.00175
1836.17548,0.00159
1835.21111,0.00148
1834.24673,0.00143
1833.28235,0.00144
1832.31797,0.00146
1831.35359,0.00157
1830.38922,0.00170
1829.42484,0.00174
1828.46046,0.00169
1827.49608,0.00170
1826.53171,0.00190
1825.56733,0.00211
1824.60295,0.00202
1823.63857,0.00171
1822.67419,0.00162
1821.70982,0.00167
1820.74544,0.00163
1819.78106,0.00171
1818.81668,0.00178
1817.85230,0.00182
1816.88793,0.00171
1815.92355,0.00153
1814.95917,0.00170
1813.99479,0.00187
1813.03041,0.00197
1812.06604,0.00204
1811.10166,0.00184
1810.13728,0.00172
1809.17290,0.00176
1808.20853,0.00181
1807.24415,0.00181
1806.27977,0.00180
1805.31539,0.00189
1804.35101,0.00188
1803.38664,0.00186
1802.42226,0.00194
1801.45788,0.00196
1800.49350,0.00204
1799.52912,0.00214
1798.56475,0.00206
1797.60037,0.00194
1796.63599,0.00190
1795.67161,0.00198
1794.70724,0.00208
1793.74286,0.00206
1792.77848,0.00205
1791.81410,0.00209
1790.84972,0.00210
1789.88535,0.00201
1788.92097,0.00186
1787.95659,0.00183
1786.99221,0.00190
1786.02783,0.00190
1785.06346,0.00190
1784.09908,0.00195
1783.13470,0.00203
1782.17032,0.00209
1781.20594,0.00208
1780.24157,0.00203
1779.27719,0.00202
1778.31281,0.00204
1777.34843,0.00200
1776.38406,0.00204
1775.41968,0.00216
1774.45530,0.00227
1773.49092,0.00247
1772.52654,0.00259
1771.56217,0.00249
1770.59779,0.00228
1769.63341,0.00219
1768.66903,0.00229
1767.70465,0.00233
1766.74028,0.00232
1765.77590,0.00236
1764.81152,0.00241
1763.84714,0.00247
1762.88276,0.00255
1761.91839,0.00264
1760.95401,0.00261
1759.98963,0.00256
1759.02525,0.00261
1758.06088,0.00266
1757.09650,0.00269
1756.13212,0.00260
1755.16774,0.00258
1754.20336,0.00276
1753.23899,0.00279
1752.27461,0.00299
1751.31023,0.00322
1750.34585,0.00304
1749.38147,0.00290
1748.41710,0.00291
1747.45272,0.00302
1746.48834,0.00313
1745.52396,0.00311
1744.55959,0.00310
1743.59521,0.00311
1742.63083,0.00317
1741.66645,0.00323
1740.70207,0.00333
1739.73770,0.00339
1738.77332,0.00320
1737.80894,0.00315
1736.84456,0.00323
1735.88018,0.00335
1734.91581,0.00350
1733.95143,0.00349
1732.98705,0.00334
1732.02267,0.00309
1731.05829,0.00305
1730.09392,0.00317
1729.12954,0.00311
1728.16516,0.00306
1727.20078,0.00311
1726.23641,0.00324
1725.27203,0.00332
1724.30765,0.00326
1723.34327,0.00324
1722.37889,0.00319
1721.41452,0.00311
1720.45014,0.00311
1719.48576,0.00324
1718.52138,0.00348
1717.55700,0.00355
1716.59263,0.00335
1715.62825,0.00329
1714.66387,0.00340
1713.69949,0.00331
1712.73512,0.00321
1711.77074,0.00320
1710.80636,0.00324
1709.84198,0.00325
1708.87760,0.00315
1707.91323,0.00322
1706.94885,0.00335
1705.98447,0.00336
1705.02009,0.00321
1704.05571,0.00311
1703.09134,0.00312
1702.12696,0.00318
1701.16258,0.00352
1700.19820,0.00371
1699.23382,0.00338
1698.26945,0.00306
1697.30507,0.00313
1696.34069,0.00346
1695.37631,0.00331
1694.41194,0.00293
1693.44756,0.00283
1692.48318,0.00283
1691.51880,0.00290
1690.55442,0.00293
1689.59005,0.00289
1688.62567,0.00291
1687.66129,0.00287
1686.69691,0.00283
1685.73253,0.00308
1684.76816,0.00328
1683.80378,0.00311
1682.83940,0.00291
1681.87502,0.00277
1680.91065,0.00275
1679.94627,0.00277
1678.98189,0.00276
1678.01751,0.00273
1677.05313,0.00264
1676.08876,0.00279
1675.12438,0.00290
1674.16000,0.00276
1673.19562,0.00269
1672.23124,0.00269
1671.26687,0.00268
1670.30249,0.00270
1669.33811,0.00278
1668.37373,0.00268
1667.40935,0.00248
1666.44498,0.00251
1665.48060,0.00258
1664.51622,0.00260
1663.55184,0.00271
1662.58747,0.00281
1661.62309,0.00270
1660.65871,0.00263
1659.69433,0.00268
1658.72995,0.00270
1657.76558,0.00275
1656.80120,0.00273
1655.83682,0.00278
1654.87244,0.00290
1653.90806,0.00317
1652.94369,0.00340
1651.97931,0.00310
1651.01493,0.00274
1650.05055,0.00256
1649.08618,0.00256
1648.12180,0.00269
1647.15742,0.00285
1646.19304,0.00297
1645.22866,0.00283
1644.26429,0.00269
1643.29991,0.00268
1642.33553,0.00267
1641.37115,0.00264
1640.40677,0.00257
1639.44240,0.00255
1638.47802,0.00254
1637.51364,0.00258
1636.54926,0.00279
1635.58488,0.00296
1634.62051,0.00277
1633.65613,0.00255
1632.69175,0.00260
1631.72737,0.00261
1630.76300,0.00256
1629.79862,0.00259
1628.83424,0.00269
1627.86986,0.00272
1626.90548,0.00265
1625.94111,0.00256
1624.97673,0.00257
1624.01235,0.00276
1623.04797,0.00280
1622.08359,0.00265
1621.11922,0.00263
1620.15484,0.00269
1619.19046,0.00270
1618.22608,0.00277
1617.26171,0.00306
1616.29733,0.00301
1615.33295,0.00268
1614.36857,0.00266
1613.40419,0.00270
1612.43982,0.00260
1611.47544,0.00254
1610.51106,0.00267
1609.54668,0.00277
1608.58230,0.00275
1607.61793,0.00277
1606.65355,0.00274
1605.68917,0.00275
1604.72479,0.00273
1603.76041,0.00268
1602.79604,0.00269
1601.83166,0.00272
1600.86728,0.00275
1599.90290,0.00276
1598.93853,0.00279
1597.97415,0.00286
1597.00977,0.00291
1596.04539,0.00293
1595.08101,0.00295
1594.11664,0.00290
1593.15226,0.00281
1592.18788,0.00284
1591.22350,0.00289
1590.25912,0.00296
1589.29475,0.00297
1588.33037,0.00289
1587.36599,0.00286
1586.40161,0.00286
1585.43724,0.00288
1584.47286,0.00290
1583.50848,0.00291
1582.54410,0.00292
1581.57972,0.00290
1580.61535,0.00287
1579.65097,0.00295
1578.68659,0.00296
1577.72221,0.00298
1576.75783,0.00322
1575.79346,0.00319
1574.82908,0.00289
1573.86470,0.00280
1572.90032,0.00283
1571.93594,0.00286
1570.97157,0.00289
1570.00719,0.00300
1569.04281,0.00298
1568.07843,0.00285
1567.11406,0.00276
1566.14968,0.00271
1565.18530,0.00273
1564.22092,0.00275
1563.25654,0.00270
1562.29217,0.00267
1561.32779,0.00279
1560.36341,0.00305
1559.39903,0.00321
1558.43465,0.00324
1557.47028,0.00296
1556.50590,0.00266
1555.54152,0.00275
1554.57714,0.00289
1553.61276,0.00279
1552.64839,0.00262
1551.68401,0.00258
1550.71963,0.00264
1549.75525,0.00268
1548.79088,0.00260
1547.82650,0.00252
1546.86212,0.00255
1545.89774,0.00263
1544.93336,0.00277
1543.96899,0.00276
1543.00461,0.00277
1542.04023,0.00284
1541.07585,0.00275
1540.11147,0.00288
1539.14710,0.00296
1538.18272,0.00268
1537.21834,0.00251
1536.25396,0.00251
1535.28959,0.00253
1534.32521,0.00258
1533.36083,0.00259
1532.39645,0.00245
1531.43207,0.00242
1530.46770,0.00247
1529.50332,0.00249
1528.53894,0.00251
1527.57456,0.00239
1526.61018,0.00240
1525.64581,0.00253
1524.68143,0.00247
1523.71705,0.00246
1522.75267,0.00255
1521.78829,0.00266
1520.82392,0.00260
1519.85954,0.00238
1518.89516,0.00229
1517.93078,0.00235
1516.96641,0.00240
1516.00203,0.00237
1515.03765,0.00229
1514.07327,0.00227
1513.10889,0.00233
1512.14452,0.00230
1511.18014,0.00223
1510.21576,0.00225
1509.25138,0.00223
1508.28700,0.00223
1507.32263,0.00243
1506.35825,0.00260
1505.39387,0.00253
1504.42949,0.00226
1503.46512,0.00209
1502.50074,0.00209
1501.53636,0.00211
1500.57198,0.00213
1499.60760,0.00220
1498.64323,0.00226
1497.67885,0.00224
1496.71447,0.00230
1495.75009,0.00229
1494.78571,0.00212
1493.82134,0.00205
1492.85696,0.00206
1491.89258,0.00211
1490.92820,0.00221
1489.96382,0.00225
1488.99945,0.00219
1488.03507,0.00218
1487.07069,0.00218
1486.10631,0.00210
1485.14194,0.00209
1484.17756,0.00209
1483.21318,0.00202
1482.24880,0.00200
1481.28442,0.00206
1480.32005,0.00205
1479.35567,0.00202
1478.39129,0.00207
1477.42691,0.00216
1476.46253,0.00222
1475.49816,0.00216
1474.53378,0.00218
1473.56940,0.00231
1472.60502,0.00238
1471.64065,0.00235
1470.67627,0.00226
1469.71189,0.00225
1468.74751,0.00236
1467.78313,0.00252
1466.81876,0.00258
1465.85438,0.00262
1464.89000,0.00271
1463.92562,0.00260
1462.96124,0.00251
1461.99687,0.00256
1461.03249,0.00259
1460.06811,0.00267
1459.10373,0.00271
1458.13935,0.00282
1457.17498,0.00306
1456.21060,0.00299
1455.24622,0.00272
1454.28184,0.00274
1453.31747,0.00285
1452.35309,0.00281
1451.38871,0.00279
1450.42433,0.00277
1449.45995,0.00276
1448.49558,0.00283
1447.53120,0.00293
1446.56682,0.00290
1445.60244,0.00278
1444.63806,0.00284
1443.67369,0.00291
1442.70931,0.00287
1441.74493,0.00282
1440.78055,0.00279
1439.81618,0.00283
1438.85180,0.00284
1437.88742,0.00300
1436.92304,0.00323
1435.95866,0.00316
1434.99429,0.00304
1434.02991,0.00302
1433.06553,0.00302
1432.10115,0.00303
1431.13677,0.00308
1430.17240,0.00310
1429.20802,0.00308
1428.24364,0.00303
1427.27926,0.00297
1426.31488,0.00298
1425.35051,0.00306
1424.38613,0.00307
1423.42175,0.00301
1422.45737,0.00304
1421.49300,0.00311
1420.52862,0.00319
1419.56424,0.00327
1418.59986,0.00314
1417.63548,0.00299
1416.67111,0.00303
1415.70673,0.00306
1414.74235,0.00308
1413.77797,0.00310
1412.81359,0.00308
1411.84922,0.00309
1410.88484,0.00308
1409.92046,0.00306
1408.95608,0.00305
1407.99171,0.00305
1407.02733,0.00304
1406.06295,0.00307
1405.09857,0.00312
1404.13419,0.00314
1403.16982,0.00310
1402.20544,0.00308
1401.24106,0.00310
1400.27668,0.00314
1399.31230,0.00318
1398.34793,0.00315
1397.38355,0.00310
1396.41917,0.00309
1395.45479,0.00315
1394.49041,0.00317
1393.52604,0.00301
1392.56166,0.00299
1391.59728,0.00312
1390.63290,0.00315
1389.66853,0.00312
1388.70415,0.00308
1387.73977,0.00315
1386.77539,0.00324
1385.81101,0.00316
1384.84664,0.00309
1383.88226,0.00312
1382.91788,0.00318
1381.95350,0.00320
1380.98912,0.00323
1380.02475,0.00331
1379.06037,0.00333
1378.09599,0.00332
1377.13161,0.00332
1376.16724,0.00331
1375.20286,0.00335
1374.23848,0.00338
1373.27410,0.00342
1372.30972,0.00344
1371.34535,0.00343
1370.38097,0.00342
1369.41659,0.00343
1368.45221,0.00344
1367.48783,0.00340
1366.52346,0.00339
1365.55908,0.00336
1364.59470,0.00332
1363.63032,0.00340
1362.66594,0.00349
1361.70157,0.00355
1360.73719,0.00357
1359.77281,0.00357
1358.80843,0.00356
1357.84406,0.00354
1356.87968,0.00357
1355.91530,0.00358
1354.95092,0.00362
1353.98654,0.00369
1353.02217,0.00372
1352.05779,0.00369
1351.09341,0.00369
1350.12903,0.00375
1349.16465,0.00374
1348.20028,0.00371
1347.23590,0.00371
1346.27152,0.00372
1345.30714,0.00375
1344.34276,0.00379
1343.37839,0.00386
1342.41401,0.00388
1341.44963,0.00390
1340.48525,0.00396
1339.52088,0.00401
1338.55650,0.00401
1337.59212,0.00400
1336.62774,0.00403
1335.66336,0.00402
1334.69899,0.00402
1333.73461,0.00403
1332.77023,0.00406
1331.80585,0.00417
1330.84147,0.00424
1329.87710,0.00426
1328.91272,0.00424
1327.94834,0.00424
1326.98396,0.00427
1326.01959,0.00430
1325.05521,0.00434
1324.09083,0.00441
1323.12645,0.00447
1322.16207,0.00450
1321.19770,0.00454
1320.23332,0.00451
1319.26894,0.00448
1318.30456,0.00452
1317.34018,0.00454
1316.37581,0.00461
1315.41143,0.00472
1314.44705,0.00473
1313.48267,0.00470
1312.51829,0.00475
1311.55392,0.00477
1310.58954,0.00475
1309.62516,0.00478
1308.66078,0.00482
1307.69641,0.00491
1306.73203,0.00494
1305.76765,0.00494
1304.80327,0.00495
1303.83889,0.00497
1302.87452,0.00504
1301.91014,0.00503
1300.94576,0.00500
1299.98138,0.00501
1299.01700,0.00503
1298.05263,0.00508
1297.08825,0.00510
1296.12387,0.00511
1295.15949,0.00514
1294.19512,0.00524
1293.23074,0.00533
1292.26636,0.00533
1291.30198,0.00532
1290.33760,0.00529
1289.37323,0.00534
1288.40885,0.00545
1287.44447,0.00545
1286.48009,0.00541
1285.51571,0.00539
1284.55134,0.00544
1283.58696,0.00550
1282.62258,0.00552
1281.65820,0.00548
1280.69382,0.00548
1279.72945,0.00551
1278.76507,0.00559
1277.80069,0.00562
1276.83631,0.00557
1275.87194,0.00563
1274.90756,0.00566
1273.94318,0.00564
1272.97880,0.00572
1272.01442,0.00575
1271.05005,0.00573
1270.08567,0.00577
1269.12129,0.00589
1268.15691,0.00595
1267.19253,0.00594
1266.22816,0.00600
1265.26378,0.00605
1264.29940,0.00607
1263.33502,0.00612
1262.37065,0.00615
1261.40627,0.00620
1260.44189,0.00624
1259.47751,0.00631
1258.51313,0.00632
1257.54876,0.00626
1256.58438,0.00626
1255.62000,0.00627
1254.65562,0.00628
1253.69124,0.00635
1252.72687,0.00641
1251.76249,0.00640
1250.79811,0.00633
1249.83373,0.00627
1248.86935,0.00631
1247.90498,0.00639
1246.94060,0.00648
1245.97622,0.00657
1245.01184,0.00664
1244.04747,0.00667
1243.08309,0.00670
1242.11871,0.00669
1241.15433,0.00663
1240.18995,0.00666
1239.22558,0.00675
1238.26120,0.00681
1237.29682,0.00688
1236.33244,0.00693
1235.36806,0.00693
1234.40369,0.00690
1233.43931,0.00694
1232.47493,0.00706
1231.51055,0.00708
1230.54618,0.00706
1229.58180,0.00710
1228.61742,0.00714
1227.65304,0.00715
1226.68866,0.00716
1225.72429,0.00712
1224.75991,0.00705
1223.79553,0.00708
1222.83115,0.00718
1221.86677,0.00716
1220.90240,0.00711
1219.93802,0.00717
1218.97364,0.00726
1218.00926,0.00725
1217.04488,0.00720
1216.08051,0.00716
1215.11613,0.00716
1214.15175,0.00719
1213.18737,0.00717
1212.22300,0.00717
1211.25862,0.00714
1210.29424,0.00712
1209.32986,0.00724
1208.36548,0.00732
1207.40111,0.00730
1206.43673,0.00730
1205.47235,0.00728
1204.50797,0.00726
1203.54359,0.00726
1202.57922,0.00725
1201.61484,0.00722
1200.65046,0.00724
1199.68608,0.00724
1198.72171,0.00726
1197.75733,0.00734
1196.79295,0.00737
1195.82857,0.00736
1194.86419,0.00736
1193.89982,0.00733
1192.93544,0.00729
1191.97106,0.00730
1191.00668,0.00730
1190.04230,0.00730
1189.07793,0.00735
1188.11355,0.00735
1187.14917,0.00729
1186.18479,0.00727
1185.22041,0.00733
1184.25604,0.00736
1183.29166,0.00730
1182.32728,0.00728
1181.36290,0.00733
1180.39853,0.00738
1179.43415,0.00747
1178.46977,0.00743
1177.50539,0.00733
1176.54101,0.00737
1175.57664,0.00739
1174.61226,0.00739
1173.64788,0.00741
1172.68350,0.00740
1171.71912,0.00732
1170.75475,0.00727
1169.79037,0.00736
1168.82599,0.00749
1167.86161,0.00748
1166.89724,0.00733
1165.93286,0.00728
1164.96848,0.00731
1164.00410,0.00722
1163.03972,0.00714
1162.07535,0.00713
1161.11097,0.00714
1160.14659,0.00715
1159.18221,0.00714
1158.21783,0.00707
1157.25346,0.00694
1156.28908,0.00696
1155.32470,0.00691
1154.36032,0.00671
1153.39594,0.00669
1152.43157,0.00675
1151.46719,0.00677
1150.50281,0.00665
1149.53843,0.00649
1148.57406,0.00647
1147.60968,0.00640
1146.64530,0.00633
1145.68092,0.00631
1144.71654,0.00623
1143.75217,0.00622
1142.78779,0.00617
1141.82341,0.00599
1140.85903,0.00592
1139.89465,0.00602
1138.93028,0.00606
1137.96590,0.00589
1137.00152,0.00570
1136.03714,0.00567
1135.07276,0.00561
1134.10839,0.00550
1133.14401,0.00552
1132.17963,0.00552
1131.21525,0.00545
1130.25088,0.00548
1129.28650,0.00552
1128.32212,0.00541
1127.35774,0.00535
1126.39336,0.00543
1125.42899,0.00545
1124.46461,0.00532
1123.50023,0.00528
1122.53585,0.00532
1121.57147,0.00527
1120.60710,0.00525
1119.64272,0.00524
1118.67834,0.00520
1117.71396,0.00523
1116.74959,0.00523
1115.78521,0.00513
1114.82083,0.00508
1113.85645,0.00512
1112.89207,0.00512
1111.92770,0.00512
1110.96332,0.00518
1109.99894,0.00524
1109.03456,0.00527
1108.07018,0.00524
1107.10581,0.00519
1106.14143,0.00519
1105.17705,0.00521
1104.21267,0.00510
1103.24829,0.00495
1102.28392,0.00485
1101.31954,0.00486
1100.35516,0.00505
1099.39078,0.00517
1098.42641,0.00512
1097.46203,0.00510
1096.49765,0.00508
1095.53327,0.00503
1094.56889,0.00501
1093.60452,0.00497
1092.64014,0.00497
1091.67576,0.00498
1090.71138,0.00496
1089.74700,0.00504
1088.78263,0.00516
1087.81825,0.00518
1086.85387,0.00516
1085.88949,0.00516
1084.92512,0.00519
1083.96074,0.00525
1082.99636,0.00532
1082.03198,0.00533
1081.06760,0.00533
1080.10323,0.00534
1079.13885,0.00530
1078.17447,0.00536
1077.21009,0.00550
1076.24571,0.00557
1075.28134,0.00564
1074.31696,0.00576
1073.35258,0.00582
1072.38820,0.00580
1071.42382,0.00592
1070.45945,0.00602
1069.49507,0.00608
1068.53069,0.00616
1067.56631,0.00621
1066.60194,0.00628
1065.63756,0.00623
1064.67318,0.00621
1063.70880,0.00633
1062.74442,0.00646
1061.78005,0.00661
1060.81567,0.00664
1059.85129,0.00672
1058.88691,0.00692
1057.92253,0.00699
1056.95816,0.00697
1055.99378,0.00689
1055.02940,0.00692
1054.06502,0.00703
1053.10065,0.00694
1052.13627,0.00687
1051.17189,0.00697
1050.20751,0.00695
1049.24313,0.00684
1048.27876,0.00680
1047.31438,0.00679
1046.35000,0.00681
1045.38562,0.00683
1044.42124,0.00679
1043.45687,0.00673
1042.49249,0.00665
1041.52811,0.00666
1040.56373,0.00678
1039.59935,0.00679
1038.63498,0.00670
1037.67060,0.00666
1036.70622,0.00654
1035.74184,0.00648
1034.77747,0.00645
1033.81309,0.00628
1032.84871,0.00630
1031.88433,0.00634
1030.91995,0.00618
1029.95558,0.00607
1028.99120,0.00611
1028.02682,0.00609
1027.06244,0.00599
1026.09806,0.00598
1025.13369,0.00586
1024.16931,0.00565
1023.20493,0.00561
1022.24055,0.00562
1021.27618,0.00558
1020.31180,0.00548
1019.34742,0.00538
1018.38304,0.00528
1017.41866,0.00529
1016.45429,0.00534
1015.48991,0.00528
1014.52553,0.00516
1013.56115,0.00498
1012.59677,0.00501
1011.63240,0.00514
1010.66802,0.00506
1009.70364,0.00488
1008.73926,0.00472
1007.77488,0.00463
1006.81051,0.00459
1005.84613,0.00450
1004.88175,0.00428
1003.91737,0.00412
1002.95300,0.00419
1001.98862,0.00426
1001.02424,0.00425
1000.05986,0.00412
999.09548,0.00403
998.13111,0.00400
997.16673,0.00401
996.20235,0.00407
995.23797,0.00399
994.27359,0.00392
993.30922,0.00384
992.34484,0.00376
991.38046,0.00378
990.41608,0.00379
989.45171,0.00387
988.48733,0.00381
987.52295,0.00358
986.55857,0.00354
985.59419,0.00354
984.62982,0.00348
983.66544,0.00351
982.70106,0.00360
981.73668,0.00371
980.77230,0.00373
979.80793,0.00353
978.84355,0.00336
977.87917,0.00341
976.91479,0.00349
975.95041,0.00342
974.98604,0.00335
974.02166,0.00341
973.05728,0.00341
972.09290,0.00330
971.12853,0.00328
970.16415,0.00335
969.19977,0.00332
968.23539,0.00324
967.27101,0.00312
966.30664,0.00302
965.34226,0.00309
964.37788,0.00311
963.41350,0.00307
962.44912,0.00318
961.48475,0.00333
960.52037,0.00327
959.55599,0.00315
958.59161,0.00322
957.62724,0.00315
956.66286,0.00300
955.69848,0.00286
954.73410,0.00281
953.76972,0.00284
952.80535,0.00281
951.84097,0.00289
950.87659,0.00294
949.91221,0.00308
948.94783,0.00315
947.98346,0.00285
947.01908,0.00284
946.05470,0.00295
945.09032,0.00291
944.12594,0.00286
943.16157,0.00274
942.19719,0.00281
941.23281,0.00299
940.26843,0.00298
939.30406,0.00275
938.33968,0.00264
937.37530,0.00282
936.41092,0.00291
935.44654,0.00280
934.48217,0.00268
933.51779,0.00276
932.55341,0.00285
931.58903,0.00283
930.62465,0.00281
929.66028,0.00278
928.69590,0.00283
927.73152,0.00273
926.76714,0.00257
925.80276,0.00254
924.83839,0.00254
923.87401,0.00264
922.90963,0.00268
921.94525,0.00271
920.98088,0.00273
920.01650,0.00264
919.05212,0.00270
918.08774,0.00280
917.12336,0.00272
916.15899,0.00262
915.19461,0.00287
914.23023,0.00308
913.26585,0.00311
912.30147,0.00328
911.33710,0.00311
910.37272,0.00287
909.40834,0.00304
908.44396,0.00316
907.47959,0.00309
906.51521,0.00313
905.55083,0.00335
904.58645,0.00327
903.62207,0.00307
902.65770,0.00319
901.69332,0.00324
900.72894,0.00325
899.76456,0.00321
898.80018,0.00311
897.83581,0.00316
896.87143,0.00327
895.90705,0.00341
894.94267,0.00338
893.97829,0.00346
893.01392,0.00373
892.04954,0.00363
891.08516,0.00364
890.12078,0.00381
889.15641,0.00366
888.19203,0.00356
887.22765,0.00357
886.26327,0.00365
885.29889,0.00375
884.33452,0.00380
883.37014,0.00396
882.40576,0.00406
881.44138,0.00405
880.47700,0.00395
879.51263,0.00384
878.54825,0.00378
877.58387,0.00366
876.61949,0.00364
875.65512,0.00374
874.69074,0.00387
873.72636,0.00389
872.76198,0.00390
871.79760,0.00396
870.83323,0.00375
869.86885,0.00360
868.90447,0.00372
867.94009,0.00383
866.97571,0.00390
866.01134,0.00380
865.04696,0.00375
864.08258,0.00393
863.11820,0.00405
862.15382,0.00376
861.18945,0.00344
860.22507,0.00348
859.26069,0.00351
858.29631,0.00354
857.33194,0.00352
856.36756,0.00345
855.40318,0.00346
854.43880,0.00339
853.47442,0.00346
852.51005,0.00364
851.54567,0.00354
850.58129,0.00337
849.61691,0.00332
848.65253,0.00329
847.68816,0.00322
846.72378,0.00316
845.75940,0.00312
844.79502,0.00316
843.83065,0.00326
842.86627,0.00321
841.90189,0.00308
840.93751,0.00291
839.97313,0.00281
839.00876,0.00289
838.04438,0.00303
837.08000,0.00315
836.11562,0.00308
835.15124,0.00301
834.18687,0.00304
833.22249,0.00282
832.25811,0.00263
831.29373,0.00282
830.32935,0.00297
829.36498,0.00289
828.40060,0.00290
827.43622,0.00289
826.47184,0.00266
825.50747,0.00262
824.54309,0.00271
823.57871,0.00283
822.61433,0.00284
821.64995,0.00255
820.68558,0.00243
819.72120,0.00254
818.75682,0.00260
817.79244,0.00262
816.82806,0.00264
815.86369,0.00259
814.89931,0.00249
813.93493,0.00248
812.97055,0.00248
812.00618,0.00256
811.04180,0.00264
810.07742,0.00256
809.11304,0.00249
808.14866,0.00260
807.18429,0.00279
806.21991,0.00264
805.25553,0.00239
804.29115,0.00235
803.32677,0.00246
802.36240,0.00268
801.39802,0.00277
800.43364,0.00290
799.46926,0.00299
798.50488,0.00285
797.54051,0.00273
796.57613,0.00266
795.61175,0.00264
794.64737,0.00254
793.68300,0.00242
792.71862,0.00242
791.75424,0.00236
790.78986,0.00229
789.82548,0.00237
788.86111,0.00246
787.89673,0.00237
786.93235,0.00223
785.96797,0.00231
785.00359,0.00240
784.03922,0.00234
783.07484,0.00232
782.11046,0.00221
781.14608,0.00203
780.18171,0.00210
779.21733,0.00216
778.25295,0.00206
777.28857,0.00200
776.32419,0.00216
775.35982,0.00223
774.39544,0.00202
773.43106,0.00198
772.46668,0.00208
771.50230,0.00218
770.53793,0.00215
769.57355,0.00217
768.60917,0.00237
767.64479,0.00223
766.68041,0.00200
765.71604,0.00203
764.75166,0.00211
763.78728,0.00226
762.82290,0.00240
761.85853,0.00226
760.89415,0.00209
759.92977,0.00209
758.96539,0.00197
758.00101,0.00194
757.03664,0.00199
756.07226,0.00201
755.10788,0.00209
754.14350,0.00236
753.17912,0.00275
752.21475,0.00244
751.25037,0.00202
750.28599,0.00196
749.32161,0.00202
748.35724,0.00212
747.39286,0.00195
746.42848,0.00209
745.46410,0.00222
744.49972,0.00206
743.53535,0.00200
742.57097,0.00186
741.60659,0.00197
740.64221,0.00221
739.67783,0.00243
738.71346,0.00247
737.74908,0.00223
736.78470,0.00215
735.82032,0.00227
734.85594,0.00220
733.89157,0.00196
732.92719,0.00208
731.96281,0.00218
730.99843,0.00207
730.03406,0.00223
729.06968,0.00245
728.10530,0.00238
727.14092,0.00209
726.17654,0.00206
725.21217,0.00220
724.24779,0.00238
723.28341,0.00261
722.31903,0.00251
721.35465,0.00235
720.39028,0.00224
719.42590,0.00213
718.46152,0.00210
717.49714,0.00207
716.53276,0.00210
715.56839,0.00225
714.60401,0.00241
713.63963,0.00237
712.67525,0.00229
711.71088,0.00235
710.74650,0.00247
709.78212,0.00247
708.81774,0.00233
707.85336,0.00228
706.88899,0.00229
705.92461,0.00241
704.96023,0.00261
703.99585,0.00247
703.03147,0.00224
702.06710,0.00224
701.10272,0.00240
700.13834,0.00256
699.17396,0.00248
698.20959,0.00233
697.24521,0.00226
696.28083,0.00226
695.31645,0.00238
694.35207,0.00230
693.38770,0.00211
692.42332,0.00236
691.45894,0.00267
690.49456,0.00245
689.53018,0.00214
688.56581,0.00224
687.60143,0.00234
686.63705,0.00231
685.67267,0.00242
684.70829,0.00257
683.74392,0.00256
682.77954,0.00242
681.81516,0.00243
680.85078,0.00251
679.88641,0.00242
678.92203,0.00220
677.95765,0.00209
676.99327,0.00221
676.02889,0.00231
675.06452,0.00227
674.10014,0.00217
673.13576,0.00216
672.17138,0.00212
671.20700,0.00218
670.24263,0.00251
669.27825,0.00305
668.31387,0.00383
667.34949,0.00374
666.38512,0.00286
665.42074,0.00245
664.45636,0.00238
663.49198,0.00231
662.52760,0.00214
661.56323,0.00218
660.59885,0.00238
659.63447,0.00240
658.67009,0.00239
657.70571,0.00234
656.74134,0.00230
655.77696,0.00228
654.81258,0.00240
653.84820,0.00271
652.88382,0.00265
651.91945,0.00249
650.95507,0.00270
649.99069,0.00279
649.02631,0.00255
648.06194,0.00235
647.09756,0.00244
646.13318,0.00262
645.16880,0.00260
644.20442,0.00251
643.24005,0.00263
642.27567,0.00294
641.31129,0.00292
640.34691,0.00273
639.38253,0.00283
638.41816,0.00280
637.45378,0.00274
636.48940,0.00285
635.52502,0.00270
634.56065,0.00247
633.59627,0.00253
632.63189,0.00250
631.66751,0.00236
630.70313,0.00250
629.73876,0.00280
628.77438,0.00309
627.81000,0.00304
626.84562,0.00224
625.88124,0.00132
624.91687,0.00029
623.95249,0.00020
622.98811,0.00151
622.02373,-0.00010
621.05935,-0.00041
620.09498,0.00405
619.13060,0.00539
618.16622,0.00178
617.20184,0.00163
616.23747,0.00359
615.27309,0.00111
614.30871,-0.00013
613.34433,0.00272
612.37995,0.00541
611.41558,0.00677
610.45120,0.00746
609.48682,0.00675
608.52244,0.00661
607.55806,0.00647
606.59369,0.00334
605.62931,0.00155
604.66493,0.00295
603.70055,0.00451
602.73618,0.00452
601.77180,0.00367
600.80742,0.00337
599.84304,0.00414
598.87866,0.00501
597.91429,0.00477
596.94991,0.00396
595.98553,0.00303
595.02115,0.00335
594.05677,0.00461
593.09240,0.00439
592.12802,0.00381
591.16364,0.00393
590.19926,0.00397
589.23488,0.00400
588.27051,0.00392
587.30613,0.00386
586.34175,0.00425
585.37737,0.00449
584.41300,0.00426
583.44862,0.00452
582.48424,0.00498
581.51986,0.00483
580.55548,0.00449
579.59111,0.00436
578.62673,0.00435
577.66235,0.00426
576.69797,0.00436
575.73359,0.00418
574.76922,0.00379
573.80484,0.00403
572.84046,0.00435
571.87608,0.00439
570.91171,0.00392
569.94733,0.00371
568.98295,0.00423
568.01857,0.00410
567.05419,0.00382
566.08982,0.00379
565.12544,0.00338
564.16106,0.00304
563.19668,0.00304
562.23230,0.00298
561.26793,0.00267
560.30355,0.00239
559.33917,0.00237
558.37479,0.00295
557.41041,0.00323
556.44604,0.00263
555.48166,0.00233
554.51728,0.00266
553.55290,0.00291
552.58853,0.00263
551.62415,0.00207
550.65977,0.00173
549.69539,0.00213
548.73101,0.00285
547.76664,0.00317
546.80226,0.00335
545.83788,0.00322
544.87350,0.00294
543.90912,0.00275
542.94475,0.00274
541.98037,0.00302
541.01599,0.00280
540.05161,0.00259
539.08724,0.00306
538.12286,0.00343
537.15848,0.00358
536.19410,0.00369
535.22972,0.00352
534.26535,0.00298
533.30097,0.00257
532.33659,0.00247
531.37221,0.00221
530.40783,0.00209
529.44346,0.00269
528.47908,0.00321
527.51470,0.00296
526.55032,0.00266
525.58594,0.00246
524.62157,0.00215
523.65719,0.00222
522.69281,0.00238
521.72843,0.00234
520.76406,0.00235
519.79968,0.00212
518.83530,0.00196
517.87092,0.00229
516.90654,0.00280
515.94217,0.00312
514.97779,0.00294
514.01341,0.00307
513.04903,0.00359
512.08465,0.00316
511.12028,0.00284
510.15590,0.00315
509.19152,0.00306
508.22714,0.00264
507.26276,0.00210
506.29839,0.00185
505.33401,0.00194
504.36963,0.00214
503.40525,0.00247
502.44088,0.00273
501.47650,0.00288
500.51212,0.00281
499.54774,0.00267
498.58336,0.00246
497.61899,0.00221
496.65461,0.00225
495.69023,0.00245
494.72585,0.00269
493.76147,0.00254
492.79710,0.00213
491.83272,0.00208
490.86834,0.00215
489.90396,0.00221
488.93959,0.00229
487.97521,0.00241
487.01083,0.00251
486.04645,0.00229
485.08207,0.00186
484.11770,0.00208
483.15332,0.00243
482.18894,0.00222
481.22456,0.00228
480.26018,0.00228
479.29581,0.00211
478.33143,0.00219
477.36705,0.00216
476.40267,0.00210
475.43829,0.00238
474.47392,0.00300
473.50954,0.00311
472.54516,0.00300
471.58078,0.00311
470.61641,0.00290
469.65203,0.00263
468.68765,0.00269
467.72327,0.00301
466.75889,0.00269
465.79452,0.00250
464.83014,0.00282
463.86576,0.00250
462.90138,0.00238
461.93700,0.00249
460.97263,0.00262
460.00825,0.00275
459.04387,0.00263
458.07949,0.00265
457.11512,0.00284
456.15074,0.00324
455.18636,0.00316
454.22198,0.00273
453.25760,0.00270
452.29323,0.00304
451.32885,0.00309
450.36447,0.00241
449.40009,0.00234
448.43571,0.00256
447.47134,0.00235
446.50696,0.00212
445.54258,0.00206
444.57820,0.00259
443.61382,0.00279
442.64945,0.00265
441.68507,0.00275
440.72069,0.00264
439.75631,0.00255
438.79194,0.00261
437.82756,0.00262
436.86318,0.00227
435.89880,0.00229
434.93442,0.00276
433.97005,0.00261
433.00567,0.00256
432.04129,0.00272
431.07691,0.00249
430.11253,0.00235
429.14816,0.00254
428.18378,0.00274
427.21940,0.00279
426.25502,0.00250
425.29065,0.00208
424.32627,0.00222
423.36189,0.00252
422.39751,0.00236
421.43313,0.00245
420.46876,0.00280
419.50438,0.00269
418.54000,0.00240
417.57562,0.00221
416.61124,0.00229
415.64687,0.00259
414.68249,0.00230
413.71811,0.00174
412.75373,0.00170
411.78935,0.00210
410.82498,0.00225
409.86060,0.00181
408.89622,0.00165
407.93184,0.00189
406.96747,0.00205
406.00309,0.00209
405.03871,0.00192
404.07433,0.00202
403.10995,0.00211
402.14558,0.00188
401.18120,0.00211
400.21682,0.00257
399.25244,0.00252
