3998.31069,0.06863
3997.34631,0.06905
3996.38194,0.06925
3995.41756,0.06935
3994.45318,0.06942
3993.48880,0.06915
3992.52442,0.06910
3991.56005,0.06915
3990.59567,0.06907
3989.63129,0.06917
3988.66691,0.06951
3987.70253,0.06956
3986.73816,0.06951
3985.77378,0.06969
3984.80940,0.06985
3983.84502,0.06985
3982.88065,0.06924
3981.91627,0.06865
3980.95189,0.06859
3979.98751,0.06891
3979.02313,0.06925
3978.05876,0.06894
3977.09438,0.06898
3976.13000,0.06920
3975.16562,0.06923
3974.20124,0.06928
3973.23687,0.06878
3972.27249,0.06880
3971.30811,0.06916
3970.34373,0.06917
3969.37935,0.06897
3968.41498,0.06881
3967.45060,0.06901
3966.48622,0.06870
3965.52184,0.06830
3964.55747,0.06819
3963.59309,0.06837
3962.62871,0.06883
3961.66433,0.06883
3960.69995,0.06876
3959.73558,0.06891
3958.77120,0.06899
3957.80682,0.06885
3956.84244,0.06883
3955.87806,0.06892
3954.91369,0.06884
3953.94931,0.06867
3952.98493,0.06833
3952.02055,0.06867
3951.05618,0.06874
3950.09180,0.06804
3949.12742,0.06821
3948.16304,0.06861
3947.19866,0.06888
3946.23429,0.06905
3945.26991,0.06869
3944.30553,0.06872
3943.34115,0.06916
3942.37677,0.06919
3941.41240,0.06881
3940.44802,0.06854
3939.48364,0.06859
3938.51926,0.06864
3937.55488,0.06824
3936.59051,0.06784
3935.62613,0.06787
3934.66175,0.06827
3933.69737,0.06862
3932.73300,0.06838
3931.76862,0.06841
3930.80424,0.06854
3929.83986,0.06827
3928.87548,0.06816
3927.91111,0.06807
3926.94673,0.06825
3925.98235,0.06842
3925.01797,0.06807
3924.05359,0.06781
3923.08922,0.06837
3922.12484,0.06876
3921.16046,0.06833
3920.19608,0.06832
3919.23171,0.06839
3918.26733,0.06833
3917.30295,0.06824
3916.33857,0.06801
3915.37419,0.06810
3914.40982,0.06814
3913.44544,0.06819
3912.48106,0.06784
3911.51668,0.06769
3910.55230,0.06808
3909.58793,0.06792
3908.62355,0.06795
3907.65917,0.06810
3906.69479,0.06773
3905.73041,0.06716
3904.76604,0.06700
3903.80166,0.06736
3902.83728,0.06748
3901.87290,0.06773
3900.90853,0.06783
3899.94415,0.06754
3898.97977,0.06763
3898.01539,0.06803
3897.05101,0.06826
3896.08664,0.06819
3895.12226,0.06802
3894.15788,0.06763
3893.19350,0.06766
3892.22912,0.06821
3891.26475,0.06841
3890.30037,0.06828
3889.33599,0.06809
3888.37161,0.06788
3887.40724,0.06749
3886.44286,0.06754
3885.47848,0.06780
3884.51410,0.06759
3883.54972,0.06747
3882.58535,0.06754
3881.62097,0.06761
3880.65659,0.06740
3879.69221,0.06737
3878.72783,0.06766
3877.76346,0.06777
3876.79908,0.06787
3875.83470,0.06752
3874.87032,0.06761
3873.90594,0.06803
3872.94157,0.06747
3871.97719,0.06716
3871.01281,0.06763
3870.04843,0.06781
3869.08406,0.06736
3868.11968,0.06689
3867.15530,0.06699
3866.19092,0.06735
3865.22654,0.06751
3864.26217,0.06741
3863.29779,0.06723
3862.33341,0.06699
3861.36903,0.06700
3860.40465,0.06710
3859.44028,0.06697
3858.47590,0.06710
3857.51152,0.06721
3856.54714,0.06708
3855.58276,0.06747
3854.61839,0.06800
3853.65401,0.06776
3852.68963,0.06743
3851.72525,0.06724
3850.76088,0.06679
3849.79650,0.06675
3848.83212,0.06718
3847.86774,0.06727
3846.90336,0.06699
3845.93899,0.06673
3844.97461,0.06671
3844.01023,0.06661
3843.04585,0.06622
3842.08147,0.06613
3841.11710,0.06621
3840.15272,0.06625
3839.18834,0.06654
3838.22396,0.06659
3837.25959,0.06678
3836.29521,0.06736
3835.33083,0.06732
3834.36645,0.06676
3833.40207,0.06645
3832.43770,0.06660
3831.47332,0.06643
3830.50894,0.06604
3829.54456,0.06620
3828.58018,0.06623
3827.61581,0.06632
3826.65143,0.06666
3825.68705,0.06672
3824.72267,0.06664
3823.75829,0.06655
3822.79392,0.06662
3821.82954,0.06649
3820.86516,0.06632
3819.90078,0.06644
3818.93641,0.06627
3817.97203,0.06623
3817.00765,0.06661
3816.04327,0.06638
3815.07889,0.06548
3814.11452,0.06534
3813.15014,0.06581
3812.18576,0.06589
3811.22138,0.06575
3810.25700,0.06549
3809.29263,0.06554
3808.32825,0.06615
3807.36387,0.06647
3806.39949,0.06625
3805.43512,0.06612
3804.47074,0.06623
3803.50636,0.06616
3802.54198,0.06598
3801.57760,0.06604
3800.61323,0.06609
3799.64885,0.06600
3798.68447,0.06586
3797.72009,0.06557
3796.75571,0.06536
3795.79134,0.06548
3794.82696,0.06578
3793.86258,0.06603
3792.89820,0.06582
3791.93382,0.06551
3790.96945,0.06559
3790.00507,0.06548
3789.04069,0.06522
3788.07631,0.06505
3787.11194,0.06503
3786.14756,0.06552
3785.18318,0.06586
3784.21880,0.06546
3783.25442,0.06496
3782.29005,0.06475
3781.32567,0.06477
3780.36129,0.06474
3779.39691,0.06475
3778.43253,0.06504
3777.46816,0.06507
3776.50378,0.06510
3775.53940,0.06576
3774.57502,0.06606
3773.61065,0.06556
3772.64627,0.06489
3771.68189,0.06468
3770.71751,0.06531
3769.75313,0.06541
3768.78876,0.06466
3767.82438,0.06442
3766.86000,0.06437
3765.89562,0.06433
3764.93124,0.06439
3763.96687,0.06431
3763.00249,0.06467
3762.03811,0.06506
3761.07373,0.06482
3760.10935,0.06467
3759.14498,0.06491
3758.18060,0.06491
3757.21622,0.06459
3756.25184,0.06465
3755.28747,0.06459
3754.32309,0.06431
3753.35871,0.06492
3752.39433,0.06531
3751.42995,0.06479
3750.46558,0.06468
3749.50120,0.06477
3748.53682,0.06455
3747.57244,0.06415
3746.60806,0.06422
3745.64369,0.06492
3744.67931,0.06488
3743.71493,0.06419
3742.75055,0.06385
3741.78618,0.06421
3740.82180,0.06458
3739.85742,0.06440
3738.89304,0.06459
3737.92866,0.06474
3736.96429,0.06487
3735.99991,0.06539
3735.03553,0.06539
3734.07115,0.06487
3733.10677,0.06420
3732.14240,0.06424
3731.17802,0.06410
3730.21364,0.06329
3729.24926,0.06348
3728.28488,0.06401
3727.32051,0.06426
3726.35613,0.06424
3725.39175,0.06384
3724.42737,0.06367
3723.46300,0.06373
3722.49862,0.06366
3721.53424,0.06290
3720.56986,0.06297
3719.60548,0.06406
3718.64111,0.06406
3717.67673,0.06348
3716.71235,0.06307
3715.74797,0.06304
3714.78359,0.06335
3713.81922,0.06381
3712.85484,0.06458
3711.89046,0.06456
3710.92608,0.06376
3709.96171,0.06319
3708.99733,0.06302
3708.03295,0.06314
3707.06857,0.06367
3706.10419,0.06417
3705.13982,0.06352
3704.17544,0.06304
3703.21106,0.06345
3702.24668,0.06377
3701.28230,0.06419
3700.31793,0.06412
3699.35355,0.06385
3698.38917,0.06386
3697.42479,0.06356
3696.46041,0.06364
3695.49604,0.06356
3694.53166,0.06319
3693.56728,0.06331
3692.60290,0.06372
3691.63853,0.06417
3690.67415,0.06403
3689.70977,0.06412
3688.74539,0.06441
3687.78101,0.06412
3686.81664,0.06433
3685.85226,0.06442
3684.88788,0.06390
3683.92350,0.06344
3682.95912,0.06329
3681.99475,0.06346
3681.03037,0.06356
3680.06599,0.06399
3679.10161,0.06472
3678.13724,0.06535
3677.17286,0.06545
3676.20848,0.06510
3675.24410,0.06524
3674.27972,0.06543
3673.31535,0.06524
3672.35097,0.06539
3671.38659,0.06595
3670.42221,0.06620
3669.45783,0.06612
3668.49346,0.06624
3667.52908,0.06668
3666.56470,0.06720
3665.60032,0.06732
3664.63594,0.06696
3663.67157,0.06684
3662.70719,0.06740
3661.74281,0.06774
3660.77843,0.06764
3659.81406,0.06799
3658.84968,0.06836
3657.88530,0.06872
3656.92092,0.06911
3655.95654,0.06918
3654.99217,0.06958
3654.02779,0.07000
3653.06341,0.07013
3652.09903,0.07060
3651.13465,0.07136
3650.17028,0.07192
3649.20590,0.07209
3648.24152,0.07198
3647.27714,0.07200
3646.31276,0.07228
3645.34839,0.07263
3644.38401,0.07301
3643.41963,0.07290
3642.45525,0.07274
3641.49088,0.07323
3640.52650,0.07354
3639.56212,0.07336
3638.59774,0.07313
3637.63336,0.07324
3636.66899,0.07399
3635.70461,0.07492
3634.74023,0.07515
3633.77585,0.07491
3632.81147,0.07520
3631.84710,0.07540
3630.88272,0.07543
3629.91834,0.07614
3628.95396,0.07632
3627.98959,0.07594
3627.02521,0.07620
3626.06083,0.07655
3625.09645,0.07674
3624.13207,0.07704
3623.16770,0.07705
3622.20332,0.07689
3621.23894,0.07677
3620.27456,0.07672
3619.31018,0.07673
3618.34581,0.07660
3617.38143,0.07677
3616.41705,0.07730
3615.45267,0.07734
3614.48829,0.07702
3613.52392,0.07723
3612.55954,0.07768
3611.59516,0.07786
3610.63078,0.07805
3609.66641,0.07810
3608.70203,0.07804
3607.73765,0.07776
3606.77327,0.07740
3605.80889,0.07751
3604.84452,0.07747
3603.88014,0.07749
3602.91576,0.07779
3601.95138,0.07764
3600.98700,0.07755
3600.02263,0.07779
3599.05825,0.07763
3598.09387,0.07705
3597.12949,0.07665
3596.16512,0.07694
3595.20074,0.07763
3594.23636,0.07770
3593.27198,0.07724
3592.30760,0.07701
3591.34323,0.07713
3590.37885,0.07768
3589.41447,0.07822
3588.45009,0.07810
3587.48571,0.07757
3586.52134,0.07747
3585.55696,0.07785
3584.59258,0.07789
3583.62820,0.07770
3582.66382,0.07763
3581.69945,0.07766
3580.73507,0.07769
3579.77069,0.07778
3578.80631,0.07816
3577.84194,0.07818
3576.87756,0.07810
3575.91318,0.07838
3574.94880,0.07865
3573.98442,0.07912
3573.02005,0.07913
3572.05567,0.07903
3571.09129,0.07941
3570.12691,0.07946
3569.16253,0.07939
3568.19816,0.07943
3567.23378,0.07949
3566.26940,0.07921
3565.30502,0.07864
3564.34065,0.07880
3563.37627,0.07917
3562.41189,0.07927
3561.44751,0.07938
3560.48313,0.07942
3559.51876,0.07963
3558.55438,0.07997
3557.59000,0.08041
3556.62562,0.08061
3555.66124,0.08047
3554.69687,0.08082
3553.73249,0.08131
3552.76811,0.08132
3551.80373,0.08119
3550.83935,0.08105
3549.87498,0.08126
3548.91060,0.08195
3547.94622,0.08241
3546.98184,0.08248
3546.01747,0.08257
3545.05309,0.08278
3544.08871,0.08291
3543.12433,0.08307
3542.15995,0.08352
3541.19558,0.08393
3540.23120,0.08402
3539.26682,0.08438
3538.30244,0.08478
3537.33806,0.08451
3536.37369,0.08457
3535.40931,0.08516
3534.44493,0.08556
3533.48055,0.08573
3532.51618,0.08545
3531.55180,0.08544
3530.58742,0.08593
3529.62304,0.08610
3528.65866,0.08610
3527.69429,0.08615
3526.72991,0.08655
3525.76553,0.08701
3524.80115,0.08712
3523.83677,0.08731
3522.87240,0.08767
3521.90802,0.08795
3520.94364,0.08790
3519.97926,0.08782
3519.01488,0.08792
3518.05051,0.08785
3517.08613,0.08795
3516.12175,0.08856
3515.15737,0.08894
3514.19300,0.08912
3513.22862,0.08963
3512.26424,0.08979
3511.29986,0.08985
3510.33548,0.08992
3509.37111,0.08958
3508.40673,0.08970
3507.44235,0.09013
3506.47797,0.09053
3505.51359,0.09090
3504.54922,0.09090
3503.58484,0.09087
3502.62046,0.09107
3501.65608,0.09136
3500.69171,0.09172
3499.72733,0.09192
3498.76295,0.09165
3497.79857,0.09150
3496.83419,0.09201
3495.86982,0.09230
3494.90544,0.09218
3493.94106,0.09232
3492.97668,0.09261
3492.01230,0.09272
3491.04793,0.09271
3490.08355,0.09226
3489.11917,0.09204
3488.15479,0.09270
3487.19041,0.09319
3486.22604,0.09330
3485.26166,0.09365
3484.29728,0.09386
3483.33290,0.09366
3482.36853,0.09380
3481.40415,0.09412
3480.43977,0.09383
3479.47539,0.09377
3478.51101,0.09413
3477.54664,0.09445
3476.58226,0.09459
3475.61788,0.09433
3474.65350,0.09397
3473.68912,0.09391
3472.72475,0.09435
3471.76037,0.09446
3470.79599,0.09429
3469.83161,0.09464
3468.86724,0.09483
3467.90286,0.09470
3466.93848,0.09456
3465.97410,0.09452
3465.00972,0.09464
3464.04535,0.09514
3463.08097,0.09568
3462.11659,0.09540
3461.15221,0.09499
3460.18783,0.09501
3459.22346,0.09540
3458.25908,0.09579
3457.29470,0.09561
3456.33032,0.09569
3455.36594,0.09583
3454.40157,0.09543
3453.43719,0.09532
3452.47281,0.09586
3451.50843,0.09619
3450.54406,0.09597
3449.57968,0.09590
3448.61530,0.09604
3447.65092,0.09628
3446.68654,0.09643
3445.72217,0.09640
3444.75779,0.09658
3443.79341,0.09635
3442.82903,0.09593
3441.86465,0.09607
3440.90028,0.09621
3439.93590,0.09634
3438.97152,0.09636
3438.00714,0.09603
3437.04276,0.09593
3436.07839,0.09614
3435.11401,0.09631
3434.14963,0.09635
3433.18525,0.09633
3432.22088,0.09634
3431.25650,0.09653
3430.29212,0.09669
3429.32774,0.09650
3428.36336,0.09643
3427.39899,0.09639
3426.43461,0.09626
3425.47023,0.09636
3424.50585,0.09664
3423.54147,0.09706
3422.57710,0.09698
3421.61272,0.09673
3420.64834,0.09656
3419.68396,0.09610
3418.71959,0.09613
3417.75521,0.09639
3416.79083,0.09657
3415.82645,0.09697
3414.86207,0.09694
3413.89770,0.09669
3412.93332,0.09658
3411.96894,0.09639
3411.00456,0.09627
3410.04018,0.09617
3409.07581,0.09621
3408.11143,0.09674
3407.14705,0.09722
3406.18267,0.09725
3405.21829,0.09716
3404.25392,0.09707
3403.28954,0.09686
3402.32516,0.09665
3401.36078,0.09661
3400.39641,0.09639
3399.43203,0.09626
3398.46765,0.09644
3397.50327,0.09641
3396.53889,0.09639
3395.57452,0.09650
3394.61014,0.09654
3393.64576,0.09628
3392.68138,0.09576
3391.71700,0.09579
3390.75263,0.09622
3389.78825,0.09622
3388.82387,0.09588
3387.85949,0.09584
3386.89512,0.09586
3385.93074,0.09602
3384.96636,0.09629
3384.00198,0.09600
3383.03760,0.09575
3382.07323,0.09568
3381.10885,0.09578
3380.14447,0.09606
3379.18009,0.09586
3378.21571,0.09573
3377.25134,0.09587
3376.28696,0.09594
3375.32258,0.09582
3374.35820,0.09552
3373.39382,0.09546
3372.42945,0.09535
3371.46507,0.09510
3370.50069,0.09502
3369.53631,0.09491
3368.57194,0.09484
3367.60756,0.09505
3366.64318,0.09522
3365.67880,0.09515
3364.71442,0.09489
3363.75005,0.09463
3362.78567,0.09479
3361.82129,0.09496
3360.85691,0.09477
3359.89253,0.09465
3358.92816,0.09460
3357.96378,0.09468
3356.99940,0.09473
3356.03502,0.09425
3355.07065,0.09391
3354.10627,0.09425
3353.14189,0.09452
3352.17751,0.09431
3351.21313,0.09392
3350.24876,0.09394
3349.28438,0.09423
3348.32000,0.09426
3347.35562,0.09450
3346.39124,0.09463
3345.42687,0.09459
3344.46249,0.09466
3343.49811,0.09431
3342.53373,0.09412
3341.56935,0.09420
3340.60498,0.09403
3339.64060,0.09377
3338.67622,0.09345
3337.71184,0.09336
3336.74747,0.09361
3335.78309,0.09356
3334.81871,0.09298
3333.85433,0.09269
3332.88995,0.09286
3331.92558,0.09292
3330.96120,0.09294
3329.99682,0.09298
3329.03244,0.09312
3328.06806,0.09319
3327.10369,0.09277
3326.13931,0.09238
3325.17493,0.09249
3324.21055,0.09254
3323.24618,0.09251
3322.28180,0.09262
3321.31742,0.09245
3320.35304,0.09234
3319.38866,0.09239
3318.42429,0.09217
3317.45991,0.09208
3316.49553,0.09201
3315.53115,0.09185
3314.56677,0.09191
3313.60240,0.09179
3312.63802,0.09154
3311.67364,0.09148
3310.70926,0.09167
3309.74488,0.09185
3308.78051,0.09164
3307.81613,0.09148
3306.85175,0.09140
3305.88737,0.09132
3304.92300,0.09138
3303.95862,0.09112
3302.99424,0.09104
3302.02986,0.09129
3301.06548,0.09130
3300.10111,0.09119
3299.13673,0.09092
3298.17235,0.09085
3297.20797,0.09095
3296.24359,0.09102
3295.27922,0.09095
3294.31484,0.09052
3293.35046,0.09029
3292.38608,0.09025
3291.42171,0.09041
3290.45733,0.09050
3289.49295,0.09002
3288.52857,0.08979
3287.56419,0.09007
3286.59982,0.09037
3285.63544,0.09034
3284.67106,0.09021
3283.70668,0.09021
3282.74230,0.08997
3281.77793,0.08974
3280.81355,0.08962
3279.84917,0.08953
3278.88479,0.08954
3277.92041,0.08942
3276.95604,0.08914
3275.99166,0.08897
3275.02728,0.08912
3274.06290,0.08912
3273.09853,0.08900
3272.13415,0.08880
3271.16977,0.08846
3270.20539,0.08869
3269.24101,0.08885
3268.27664,0.08851
3267.31226,0.08836
3266.34788,0.08849
3265.38350,0.08867
3264.41912,0.08864
3263.45475,0.08855
3262.49037,0.08857
3261.52599,0.08855
3260.56161,0.08832
3259.59724,0.08796
3258.63286,0.08798
3257.66848,0.08796
3256.70410,0.08764
3255.73972,0.08765
3254.77535,0.08789
3253.81097,0.08787
3252.84659,0.08764
3251.88221,0.08751
3250.91783,0.08743
3249.95346,0.08743
3248.98908,0.08760
3248.02470,0.08740
3247.06032,0.08724
3246.09594,0.08730
3245.13157,0.08710
3244.16719,0.08731
3243.20281,0.08760
3242.23843,0.08729
3241.27406,0.08697
3240.30968,0.08649
3239.34530,0.08602
3238.38092,0.08605
3237.41654,0.08626
3236.45217,0.08647
3235.48779,0.08642
3234.52341,0.08631
3233.55903,0.08627
3232.59465,0.08644
3231.63028,0.08680
3230.66590,0.08638
3229.70152,0.08586
3228.73714,0.08602
3227.77276,0.08609
3226.80839,0.08591
3225.84401,0.08556
3224.87963,0.08546
3223.91525,0.08556
3222.95088,0.08531
3221.98650,0.08514
3221.02212,0.08521
3220.05774,0.08526
3219.09336,0.08525
3218.12899,0.08513
3217.16461,0.08486
3216.20023,0.08489
3215.23585,0.08518
3214.27147,0.08494
3213.30710,0.08470
3212.34272,0.08488
3211.37834,0.08478
3210.41396,0.08449
3209.44959,0.08453
3208.48521,0.08467
3207.52083,0.08447
3206.55645,0.08426
3205.59207,0.08414
3204.62770,0.08406
3203.66332,0.08402
3202.69894,0.08371
3201.73456,0.08373
3200.77018,0.08399
3199.80581,0.08374
3198.84143,0.08357
3197.87705,0.08356
3196.91267,0.08337
3195.94829,0.08329
3194.98392,0.08324
3194.01954,0.08319
3193.05516,0.08324
3192.09078,0.08312
3191.12641,0.08295
3190.16203,0.08288
3189.19765,0.08270
3188.23327,0.08275
3187.26889,0.08292
3186.30452,0.08273
3185.34014,0.08259
3184.37576,0.08280
3183.41138,0.08293
3182.44700,0.08262
3181.48263,0.08231
3180.51825,0.08227
3179.55387,0.08208
3178.58949,0.08181
3177.62512,0.08158
3176.66074,0.08162
3175.69636,0.08183
3174.73198,0.08152
3173.76760,0.08129
3172.80323,0.08146
3171.83885,0.08133
3170.87447,0.08108
3169.91009,0.08091
3168.94571,0.08069
3167.98134,0.08071
3167.01696,0.08073
3166.05258,0.08058
3165.08820,0.08050
3164.12382,0.08035
3163.15945,0.08027
3162.19507,0.08022
3161.23069,0.08009
3160.26631,0.08019
3159.30194,0.08012
3158.33756,0.07987
3157.37318,0.07966
3156.40880,0.07959
3155.44442,0.07973
3154.48005,0.07959
3153.51567,0.07943
3152.55129,0.07925
3151.58691,0.07909
3150.62253,0.07914
3149.65816,0.07882
3148.69378,0.07839
3147.72940,0.07828
3146.76502,0.07844
3145.80065,0.07867
3144.83627,0.07875
3143.87189,0.07863
3142.90751,0.07837
3141.94313,0.07819
3140.97876,0.07815
3140.01438,0.07827
3139.05000,0.07829
3138.08562,0.07806
3137.12124,0.07795
3136.15687,0.07780
3135.19249,0.07758
3134.22811,0.07750
3133.26373,0.07753
3132.29935,0.07760
3131.33498,0.07758
3130.37060,0.07760
3129.40622,0.07756
3128.44184,0.07727
3127.47747,0.07698
3126.51309,0.07694
3125.54871,0.07692
3124.58433,0.07688
3123.61995,0.07686
3122.65558,0.07659
3121.69120,0.07617
3120.72682,0.07610
3119.76244,0.07633
3118.79806,0.07646
3117.83369,0.07639
3116.86931,0.07621
3115.90493,0.07602
3114.94055,0.07575
3113.97618,0.07563
3113.01180,0.07587
3112.04742,0.07575
3111.08304,0.07554
3110.11866,0.07558
3109.15429,0.07538
3108.18991,0.07533
3107.22553,0.07520
3106.26115,0.07493
3105.29677,0.07500
3104.33240,0.07506
3103.36802,0.07484
3102.40364,0.07448
3101.43926,0.07458
3100.47488,0.07478
3099.51051,0.07465
3098.54613,0.07451
3097.58175,0.07445
3096.61737,0.07461
3095.65300,0.07449
3094.68862,0.07408
3093.72424,0.07400
3092.75986,0.07394
3091.79548,0.07386
3090.83111,0.07376
3089.86673,0.07354
3088.90235,0.07340
3087.93797,0.07348
3086.97359,0.07357
3086.00922,0.07363
3085.04484,0.07362
3084.08046,0.07322
3083.11608,0.07291
3082.15171,0.07296
3081.18733,0.07303
3080.22295,0.07306
3079.25857,0.07291
3078.29419,0.07277
3077.32982,0.07272
3076.36544,0.07270
3075.40106,0.07280
3074.43668,0.07274
3073.47230,0.07259
3072.50793,0.07257
3071.54355,0.07234
3070.57917,0.07186
3069.61479,0.07171
3068.65041,0.07184
3067.68604,0.07185
3066.72166,0.07200
3065.75728,0.07224
3064.79290,0.07219
3063.82853,0.07188
3062.86415,0.07152
3061.89977,0.07139
3060.93539,0.07144
3059.97101,0.07145
3059.00664,0.07138
3058.04226,0.07118
3057.07788,0.07113
3056.11350,0.07102
3055.14912,0.07065
3054.18475,0.07052
3053.22037,0.07048
3052.25599,0.07037
3051.29161,0.07032
3050.32724,0.07008
3049.36286,0.06991
3048.39848,0.06991
3047.43410,0.06979
3046.46972,0.06971
3045.50535,0.06968
3044.54097,0.06951
3043.57659,0.06935
3042.61221,0.06930
3041.64783,0.06928
3040.68346,0.06914
3039.71908,0.06899
3038.75470,0.06911
3037.79032,0.06923
3036.82594,0.06901
3035.86157,0.06880
3034.89719,0.06879
3033.93281,0.06876
3032.96843,0.06884
3032.00406,0.06898
3031.03968,0.06885
3030.07530,0.06858
3029.11092,0.06844
3028.14654,0.06821
3027.18217,0.06801
3026.21779,0.06808
3025.25341,0.06801
3024.28903,0.06777
3023.32465,0.06753
3022.36028,0.06745
3021.39590,0.06770
3020.43152,0.06778
3019.46714,0.06758
3018.50276,0.06728
3017.53839,0.06707
3016.57401,0.06728
3015.60963,0.06725
3014.64525,0.06687
3013.68088,0.06682
3012.71650,0.06683
3011.75212,0.06663
3010.78774,0.06643
3009.82336,0.06628
3008.85899,0.06623
3007.89461,0.06628
3006.93023,0.06617
3005.96585,0.06605
3005.00147,0.06622
3004.03710,0.06629
3003.07272,0.06590
3002.10834,0.06558
3001.14396,0.06566
3000.17959,0.06577
2999.21521,0.06583
2998.25083,0.06573
2997.28645,0.06538
2996.32207,0.06522
2995.35770,0.06519
2994.39332,0.06504
2993.42894,0.06498
2992.46456,0.06499
2991.50018,0.06498
2990.53581,0.06499
2989.57143,0.06492
2988.60705,0.06482
2987.64267,0.06478
2986.67829,0.06474
2985.71392,0.06461
2984.74954,0.06439
2983.78516,0.06445
2982.82078,0.06427
2981.85641,0.06388
2980.89203,0.06405
2979.92765,0.06420
2978.96327,0.06421
2977.99889,0.06423
2977.03452,0.06409
2976.07014,0.06401
2975.10576,0.06383
2974.14138,0.06374
2973.17700,0.06358
2972.21263,0.06329
2971.24825,0.06331
2970.28387,0.06330
2969.31949,0.06309
2968.35512,0.06304
2967.39074,0.06322
2966.42636,0.06315
2965.46198,0.06294
2964.49760,0.06296
2963.53323,0.06288
2962.56885,0.06280
2961.60447,0.06275
2960.64009,0.06263
2959.67571,0.06259
2958.71134,0.06255
2957.74696,0.06257
2956.78258,0.06253
2955.81820,0.06237
2954.85382,0.06228
2953.88945,0.06222
2952.92507,0.06206
2951.96069,0.06201
2950.99631,0.06212
2950.03194,0.06224
2949.06756,0.06235
2948.10318,0.06239
2947.13880,0.06223
2946.17442,0.06193
2945.21005,0.06168
2944.24567,0.06158
2943.28129,0.06163
2942.31691,0.06165
2941.35253,0.06151
2940.38816,0.06141
2939.42378,0.06150
2938.45940,0.06174
2937.49502,0.06180
2936.53065,0.06152
2935.56627,0.06130
2934.60189,0.06124
2933.63751,0.06115
2932.67313,0.06106
2931.70876,0.06120
2930.74438,0.06140
2929.78000,0.06117
2928.81562,0.06086
2927.85124,0.06091
2926.88687,0.06106
2925.92249,0.06102
2924.95811,0.06095
2923.99373,0.06095
2923.02935,0.06098
2922.06498,0.06102
2921.10060,0.06094
2920.13622,0.06083
2919.17184,0.06074
2918.20747,0.06070
2917.24309,0.06077
2916.27871,0.06074
2915.31433,0.06068
2914.34995,0.06066
2913.38558,0.06067
2912.42120,0.06058
2911.45682,0.06047
2910.49244,0.06042
2909.52806,0.06020
2908.56369,0.06004
2907.59931,0.05990
2906.63493,0.05965
2905.67055,0.05986
2904.70618,0.06017
2903.74180,0.06018
2902.77742,0.06015
2901.81304,0.06006
2900.84866,0.06001
2899.88429,0.05994
2898.91991,0.05985
2897.95553,0.05986
2896.99115,0.05982
2896.02677,0.05988
2895.06240,0.05999
2894.09802,0.06003
2893.13364,0.05993
2892.16926,0.05979
2891.20488,0.05978
2890.24051,0.05959
2889.27613,0.05944
2888.31175,0.05947
2887.34737,0.05939
2886.38300,0.05946
2885.41862,0.05945
2884.45424,0.05925
2883.48986,0.05919
2882.52548,0.05917
2881.56111,0.05918
2880.59673,0.05919
2879.63235,0.05924
2878.66797,0.05930
2877.70359,0.05928
2876.73922,0.05927
2875.77484,0.05924
2874.81046,0.05917
2873.84608,0.05927
2872.88171,0.05937
2871.91733,0.05932
2870.95295,0.05923
2869.98857,0.05914
2869.02419,0.05911
2868.05982,0.05912
2867.09544,0.05914
2866.13106,0.05922
2865.16668,0.05936
2864.20230,0.05930
2863.23793,0.05899
2862.27355,0.05883
2861.30917,0.05891
2860.34479,0.05894
2859.38041,0.05884
2858.41604,0.05886
2857.45166,0.05884
2856.48728,0.05862
2855.52290,0.05859
2854.55853,0.05860
2853.59415,0.05858
2852.62977,0.05862
2851.66539,0.05862
2850.70101,0.05862
2849.73664,0.05862
2848.77226,0.05882
2847.80788,0.05880
2846.84350,0.05844
2845.87912,0.05837
2844.91475,0.05846
2843.95037,0.05853
2842.98599,0.05848
2842.02161,0.05836
2841.05724,0.05833
2840.09286,0.05827
2839.12848,0.05826
2838.16410,0.05836
2837.19972,0.05846
2836.23535,0.05833
2835.27097,0.05821
2834.30659,0.05820
2833.34221,0.05804
2832.37783,0.05807
2831.41346,0.05821
2830.44908,0.05813
2829.48470,0.05802
2828.52032,0.05805
2827.55594,0.05825
2826.59157,0.05830
2825.62719,0.05810
2824.66281,0.05776
2823.69843,0.05745
2822.73406,0.05748
2821.76968,0.05765
2820.80530,0.05777
2819.84092,0.05769
2818.87654,0.05751
2817.91217,0.05749
2816.94779,0.05748
2815.98341,0.05743
2815.01903,0.05733
2814.05465,0.05725
2813.09028,0.05735
2812.12590,0.05733
2811.16152,0.05734
2810.19714,0.05739
2809.23276,0.05730
2808.26839,0.05730
2807.30401,0.05721
2806.33963,0.05709
2805.37525,0.05706
2804.41088,0.05706
2803.44650,0.05717
2802.48212,0.05706
2801.51774,0.05692
2800.55336,0.05692
2799.58899,0.05683
2798.62461,0.05678
2797.66023,0.05679
2796.69585,0.05681
2795.73147,0.05690
2794.76710,0.05686
2793.80272,0.05673
2792.83834,0.05670
2791.87396,0.05668
2790.90959,0.05669
2789.94521,0.05680
2788.98083,0.05670
2788.01645,0.05651
2787.05207,0.05646
2786.08770,0.05643
2785.12332,0.05642
2784.15894,0.05635
2783.19456,0.05619
2782.23018,0.05620
2781.26581,0.05621
2780.30143,0.05611
2779.33705,0.05612
2778.37267,0.05609
2777.40829,0.05604
2776.44392,0.05610
2775.47954,0.05595
2774.51516,0.05574
2773.55078,0.05571
2772.58641,0.05572
2771.62203,0.05571
2770.65765,0.05563
2769.69327,0.05559
2768.72889,0.05559
2767.76452,0.05548
2766.80014,0.05537
2765.83576,0.05540
2764.87138,0.05544
2763.90700,0.05547
2762.94263,0.05543
2761.97825,0.05525
2761.01387,0.05512
2760.04949,0.05512
2759.08512,0.05519
2758.12074,0.05514
2757.15636,0.05509
2756.19198,0.05512
2755.22760,0.05505
2754.26323,0.05499
2753.29885,0.05497
2752.33447,0.05494
2751.37009,0.05481
2750.40571,0.05460
2749.44134,0.05463
2748.47696,0.05459
2747.51258,0.05439
2746.54820,0.05443
2745.58382,0.05451
2744.61945,0.05450
2743.65507,0.05445
2742.69069,0.05443
2741.72631,0.05436
2740.76194,0.05423
2739.79756,0.05420
2738.83318,0.05413
2737.86880,0.05406
2736.90442,0.05397
2735.94005,0.05377
2734.97567,0.05371
2734.01129,0.05368
2733.04691,0.05369
2732.08253,0.05386
2731.11816,0.05396
2730.15378,0.05395
2729.18940,0.05378
2728.22502,0.05349
2727.26065,0.05343
2726.29627,0.05346
2725.33189,0.05347
2724.36751,0.05333
2723.40313,0.05301
2722.43876,0.05305
2721.47438,0.05323
2720.51000,0.05314
2719.54562,0.05313
2718.58124,0.05315
2717.61687,0.05302
2716.65249,0.05297
2715.68811,0.05305
2714.72373,0.05306
2713.75935,0.05298
2712.79498,0.05290
2711.83060,0.05282
2710.86622,0.05273
2709.90184,0.05268
2708.93747,0.05256
2707.97309,0.05237
2707.00871,0.05242
2706.04433,0.05253
2705.07995,0.05235
2704.11558,0.05221
2703.15120,0.05225
2702.18682,0.05220
2701.22244,0.05205
2700.25806,0.05204
2699.29369,0.05205
2698.32931,0.05202
2697.36493,0.05223
2696.40055,0.05227
2695.43618,0.05200
2694.47180,0.05193
2693.50742,0.05196
2692.54304,0.05184
2691.57866,0.05169
2690.61429,0.05169
2689.64991,0.05169
2688.68553,0.05162
2687.72115,0.05155
2686.75677,0.05139
2685.79240,0.05127
2684.82802,0.05133
2683.86364,0.05146
2682.89926,0.05150
2681.93488,0.05135
2680.97051,0.05121
2680.00613,0.05124
2679.04175,0.05124
2678.07737,0.05106
2677.11300,0.05097
2676.14862,0.05099
2675.18424,0.05107
2674.21986,0.05119
2673.25548,0.05114
2672.29111,0.05109
2671.32673,0.05101
2670.36235,0.05090
2669.39797,0.05088
2668.43359,0.05074
2667.46922,0.05058
2666.50484,0.05053
2665.54046,0.05056
2664.57608,0.05056
2663.61171,0.05055
2662.64733,0.05067
2661.68295,0.05061
2660.71857,0.05038
2659.75419,0.05025
2658.78982,0.05013
2657.82544,0.05000
2656.86106,0.04997
2655.89668,0.05013
2654.93230,0.05012
2653.96793,0.04985
2653.00355,0.04966
2652.03917,0.04945
2651.07479,0.04931
2650.11041,0.04947
2649.14604,0.04954
2648.18166,0.04924
2647.21728,0.04904
2646.25290,0.04919
2645.28853,0.04921
2644.32415,0.04900
2643.35977,0.04899
2642.39539,0.04904
2641.43101,0.04890
2640.46664,0.04883
2639.50226,0.04883
2638.53788,0.04874
2637.57350,0.04867
2636.60912,0.04872
2635.64475,0.04872
2634.68037,0.04846
2633.71599,0.04835
2632.75161,0.04836
2631.78724,0.04828
2630.82286,0.04829
2629.85848,0.04829
2628.89410,0.04832
2627.92972,0.04813
2626.96535,0.04789
2626.00097,0.04788
2625.03659,0.04784
2624.07221,0.04788
2623.10783,0.04780
2622.14346,0.04779
2621.17908,0.04788
2620.21470,0.04777
2619.25032,0.04788
2618.28594,0.04775
2617.32157,0.04743
2616.35719,0.04756
2615.39281,0.04766
2614.42843,0.04739
2613.46406,0.04714
2612.49968,0.04709
2611.53530,0.04692
2610.57092,0.04681
2609.60654,0.04684
2608.64217,0.04690
2607.67779,0.04698
2606.71341,0.04684
2605.74903,0.04650
2604.78465,0.04618
2603.82028,0.04629
2602.85590,0.04657
2601.89152,0.04654
2600.92714,0.04652
2599.96276,0.04672
2598.99839,0.04691
2598.03401,0.04679
2597.06963,0.04653
2596.10525,0.04629
2595.14088,0.04623
2594.17650,0.04646
2593.21212,0.04648
2592.24774,0.04620
2591.28336,0.04590
2590.31899,0.04593
2589.35461,0.04611
2588.39023,0.04601
2587.42585,0.04583
2586.46147,0.04577
2585.49710,0.04589
2584.53272,0.04602
2583.56834,0.04598
2582.60396,0.04577
2581.63959,0.04576
2580.67521,0.04568
2579.71083,0.04534
2578.74645,0.04530
2577.78207,0.04531
2576.81770,0.04552
2575.85332,0.04561
2574.88894,0.04522
2573.92456,0.04510
2572.96018,0.04520
2571.99581,0.04530
2571.03143,0.04491
2570.06705,0.04464
2569.10267,0.04494
2568.13829,0.04487
2567.17392,0.04491
2566.20954,0.04490
2565.24516,0.04476
2564.28078,0.04482
2563.31641,0.04467
2562.35203,0.04437
2561.38765,0.04401
2560.42327,0.04395
2559.45889,0.04409
2558.49452,0.04432
2557.53014,0.04459
2556.56576,0.04457
2555.60138,0.04453
2554.63700,0.04442
2553.67263,0.04422
2552.70825,0.04423
2551.74387,0.04438
2550.77949,0.04446
2549.81512,0.04428
2548.85074,0.04418
2547.88636,0.04431
2546.92198,0.04418
2545.95760,0.04384
2544.99323,0.04367
2544.02885,0.04365
2543.06447,0.04373
2542.10009,0.04364
2541.13571,0.04362
2540.17134,0.04396
2539.20696,0.04415
2538.24258,0.04407
2537.27820,0.04379
2536.31382,0.04361
2535.34945,0.04356
2534.38507,0.04359
2533.42069,0.04351
2532.45631,0.04297
2531.49194,0.04293
2530.52756,0.04338
2529.56318,0.04340
2528.59880,0.04336
2527.63442,0.04348
2526.67005,0.04347
2525.70567,0.04346
2524.74129,0.04337
2523.77691,0.04290
2522.81253,0.04289
2521.84816,0.04310
2520.88378,0.04273
2519.91940,0.04260
2518.95502,0.04255
2517.99065,0.04243
2517.02627,0.04248
2516.06189,0.04266
2515.09751,0.04289
2514.13313,0.04261
2513.16876,0.04258
2512.20438,0.04303
2511.24000,0.04300
2510.27562,0.04271
2509.31124,0.04242
2508.34687,0.04217
2507.38249,0.04221
2506.41811,0.04238
2505.45373,0.04251
2504.48935,0.04258
2503.52498,0.04238
2502.56060,0.04224
2501.59622,0.04213
2500.63184,0.04175
2499.66747,0.04177
2498.70309,0.04212
2497.73871,0.04238
2496.77433,0.04253
2495.80995,0.04243
2494.84558,0.04234
2493.88120,0.04210
2492.91682,0.04172
2491.95244,0.04156
2490.98806,0.04163
2490.02369,0.04176
2489.05931,0.04172
2488.09493,0.04175
2487.13055,0.04165
2486.16618,0.04138
2485.20180,0.04143
2484.23742,0.04170
2483.27304,0.04189
2482.30866,0.04164
2481.34429,0.04131
2480.37991,0.04130
2479.41553,0.04134
2478.45115,0.04142
2477.48677,0.04130
2476.52240,0.04122
2475.55802,0.04117
2474.59364,0.04096
2473.62926,0.04118
2472.66488,0.04141
2471.70051,0.04128
2470.73613,0.04122
2469.77175,0.04106
2468.80737,0.04062
2467.84300,0.04049
2466.87862,0.04093
2465.91424,0.04113
2464.94986,0.04106
2463.98548,0.04113
2463.02111,0.04134
2462.05673,0.04141
2461.09235,0.04094
2460.12797,0.04083
2459.16359,0.04120
2458.19922,0.04104
2457.23484,0.04075
2456.27046,0.04072
2455.30608,0.04051
2454.34171,0.04039
2453.37733,0.04046
2452.41295,0.04043
2451.44857,0.04047
2450.48419,0.04023
2449.51982,0.04003
2448.55544,0.04035
2447.59106,0.04037
2446.62668,0.04011
2445.66230,0.04001
2444.69793,0.04004
2443.73355,0.04006
2442.76917,0.03991
2441.80479,0.03980
2440.84041,0.03994
2439.87604,0.04038
2438.91166,0.04043
2437.94728,0.04000
2436.98290,0.03991
2436.01853,0.03999
2435.05415,0.03974
2434.08977,0.03959
2433.12539,0.03985
2432.16101,0.03983
2431.19664,0.03968
2430.23226,0.03976
2429.26788,0.03968
2428.30350,0.03957
2427.33912,0.03940
2426.37475,0.03926
2425.41037,0.03961
2424.44599,0.04011
2423.48161,0.03995
2422.51724,0.03967
2421.55286,0.03970
2420.58848,0.03949
2419.62410,0.03946
2418.65972,0.03945
2417.69535,0.03926
2416.73097,0.03927
2415.76659,0.03931
2414.80221,0.03962
2413.83783,0.03967
2412.87346,0.03934
2411.90908,0.03924
2410.94470,0.03898
2409.98032,0.03887
2409.01594,0.03921
2408.05157,0.03938
2407.08719,0.03922
2406.12281,0.03923
2405.15843,0.03938
2404.19406,0.03927
2403.22968,0.03916
2402.26530,0.03897
2401.30092,0.03874
2400.33654,0.03873
2399.37217,0.03880
2398.40779,0.03904
2397.44341,0.03933
2396.47903,0.03924
2395.51465,0.03891
2394.55028,0.03863
2393.58590,0.03845
2392.62152,0.03849
2391.65714,0.03864
2390.69276,0.03870
2389.72839,0.03868
2388.76401,0.03871
2387.79963,0.03877
2386.83525,0.03878
2385.87088,0.03887
2384.90650,0.03877
2383.94212,0.03840
2382.97774,0.03826
2382.01336,0.03839
2381.04899,0.03858
2380.08461,0.03869
2379.12023,0.03868
2378.15585,0.03873
2377.19147,0.03891
2376.22710,0.03908
2375.26272,0.03924
2374.29834,0.03948
2373.33396,0.03959
2372.36959,0.03962
2371.40521,0.03974
2370.44083,0.03975
2369.47645,0.04002
2368.51207,0.04043
2367.54770,0.04039
2366.58332,0.04016
2365.61894,0.04005
2364.65456,0.04017
2363.69018,0.04045
2362.72581,0.04050
2361.76143,0.04039
2360.79705,0.04015
2359.83267,0.03984
2358.86829,0.03992
2357.90392,0.04001
2356.93954,0.03988
2355.97516,0.03992
2355.01078,0.03987
2354.04641,0.03964
2353.08203,0.03938
2352.11765,0.03917
2351.15327,0.03901
2350.18889,0.03866
2349.22452,0.03824
2348.26014,0.03815
2347.29576,0.03856
2346.33138,0.03896
2345.36700,0.03898
2344.40263,0.03925
2343.43825,0.03963
2342.47387,0.03964
2341.50949,0.03937
2340.54512,0.03912
2339.58074,0.03928
2338.61636,0.03927
2337.65198,0.03911
2336.68760,0.03927
2335.72323,0.03918
2334.75885,0.03889
2333.79447,0.03875
2332.83009,0.03880
2331.86571,0.03884
2330.90134,0.03875
2329.93696,0.03871
2328.97258,0.03866
2328.00820,0.03878
2327.04382,0.03884
2326.07945,0.03865
2325.11507,0.03854
2324.15069,0.03845
2323.18631,0.03823
2322.22194,0.03794
2321.25756,0.03779
2320.29318,0.03777
2319.32880,0.03762
2318.36442,0.03737
2317.40005,0.03725
2316.43567,0.03712
2315.47129,0.03685
2314.50691,0.03699
2313.54253,0.03729
2312.57816,0.03710
2311.61378,0.03669
2310.64940,0.03654
2309.68502,0.03665
2308.72065,0.03664
2307.75627,0.03671
2306.79189,0.03666
2305.82751,0.03643
2304.86313,0.03652
2303.89876,0.03635
2302.93438,0.03591
2301.97000,0.03585
2301.00562,0.03589
2300.04124,0.03563
2299.07687,0.03543
2298.11249,0.03538
2297.14811,0.03523
2296.18373,0.03551
2295.21935,0.03596
2294.25498,0.03583
2293.29060,0.03530
2292.32622,0.03500
2291.36184,0.03511
2290.39747,0.03548
2289.43309,0.03610
2288.46871,0.03627
2287.50433,0.03601
2286.53995,0.03569
2285.57558,0.03548
2284.61120,0.03566
2283.64682,0.03536
2282.68244,0.03502
2281.71806,0.03521
2280.75369,0.03502
2279.78931,0.03440
2278.82493,0.03399
2277.86055,0.03398
2276.89618,0.03381
2275.93180,0.03398
2274.96742,0.03416
2274.00304,0.03395
2273.03866,0.03433
2272.07429,0.03462
2271.10991,0.03474
2270.14553,0.03471
2269.18115,0.03468
2268.21677,0.03465
2267.25240,0.03463
2266.28802,0.03460
2265.32364,0.03457
2264.35926,0.03454
2263.39488,0.03451
2262.43051,0.03449
2261.46613,0.03446
2260.50175,0.03443
2259.53737,0.03440
2258.57300,0.03437
2257.60862,0.03435
2256.64424,0.03432
2255.67986,0.03429
2254.71548,0.03426
2253.75111,0.03424
2252.78673,0.03421
2251.82235,0.03418
2250.85797,0.03415
2249.89359,0.03412
2248.92922,0.03410
2247.96484,0.03407
2247.00046,0.03404
2246.03608,0.03401
2245.07171,0.03398
2244.10733,0.03396
2243.14295,0.03393
2242.17857,0.03390
2241.21419,0.03387
2240.24982,0.03384
2239.28544,0.03382
2238.32106,0.03379
2237.35668,0.03376
2236.39230,0.03373
2235.42793,0.03370
2234.46355,0.03368
2233.49917,0.03365
2232.53479,0.03362
2231.57041,0.03359
2230.60604,0.03356
2229.64166,0.03354
2228.67728,0.03351
2227.71290,0.03348
2226.74853,0.03345
2225.78415,0.03342
2224.81977,0.03340
2223.85539,0.03337
2222.89101,0.03334
2221.92664,0.03331
2220.96226,0.03329
2219.99788,0.03326
2219.03350,0.03323
2218.06912,0.03320
2217.10475,0.03317
2216.14037,0.03315
2215.17599,0.03312
2214.21161,0.03309
2213.24724,0.03306
2212.28286,0.03303
2211.31848,0.03301
2210.35410,0.03298
2209.38972,0.03295
2208.42535,0.03292
2207.46097,0.03289
2206.49659,0.03287
2205.53221,0.03284
2204.56783,0.03281
2203.60346,0.03278
2202.63908,0.03275
2201.67470,0.03273
2200.71032,0.03270
2199.74594,0.03267
2198.78157,0.03264
2197.81719,0.03261
2196.85281,0.03259
2195.88843,0.03256
2194.92406,0.03253
2193.95968,0.03250
2192.99530,0.03247
2192.03092,0.03245
2191.06654,0.03242
2190.10217,0.03239
2189.13779,0.03236
2188.17341,0.03234
2187.20903,0.03231
2186.24465,0.03228
2185.28028,0.03225
2184.31590,0.03222
2183.35152,0.03220
2182.38714,0.03217
2181.42276,0.03214
2180.45839,0.03211
2179.49401,0.03208
2178.52963,0.03206
2177.56525,0.03203
2176.60088,0.03200
2175.63650,0.03197
2174.67212,0.03194
2173.70774,0.03192
2172.74336,0.03189
2171.77899,0.03186
2170.81461,0.03183
2169.85023,0.03180
2168.88585,0.03178
2167.92147,0.03175
2166.95710,0.03172
2165.99272,0.03169
2165.02834,0.03166
2164.06396,0.03164
2163.09959,0.03161
2162.13521,0.03158
2161.17083,0.03155
2160.20645,0.03152
2159.24207,0.03150
2158.27770,0.03147
2157.31332,0.03144
2156.34894,0.03141
2155.38456,0.03139
2154.42018,0.03136
2153.45581,0.03133
2152.49143,0.03130
2151.52705,0.03127
2150.56267,0.03125
2149.59829,0.03122
2148.63392,0.03119
2147.66954,0.03116
2146.70516,0.03113
2145.74078,0.03111
2144.77641,0.03108
2143.81203,0.03105
2142.84765,0.03102
2141.88327,0.03099
2140.91889,0.03097
2139.95452,0.03094
2138.99014,0.03091
2138.02576,0.03088
2137.06138,0.03085
2136.09700,0.03083
2135.13263,0.03080
2134.16825,0.03077
2133.20387,0.03074
2132.23949,0.03071
2131.27512,0.03069
2130.31074,0.03066
2129.34636,0.03063
2128.38198,0.03060
2127.41760,0.03057
2126.45323,0.03055
2125.48885,0.03052
2124.52447,0.03049
2123.56009,0.03046
2122.59571,0.03044
2121.63134,0.03041
2120.66696,0.03038
2119.70258,0.03035
2118.73820,0.03032
2117.77382,0.03030
2116.80945,0.03027
2115.84507,0.03024
2114.88069,0.03021
2113.91631,0.03018
2112.95194,0.03016
2111.98756,0.03013
2111.02318,0.03010
2110.05880,0.03007
2109.09442,0.03004
2108.13005,0.03002
2107.16567,0.02999
2106.20129,0.02996
2105.23691,0.02993
2104.27253,0.02990
2103.30816,0.02988
2102.34378,0.02985
2101.37940,0.02982
2100.41502,0.02979
2099.45065,0.02976
2098.48627,0.02974
2097.52189,0.02971
2096.55751,0.02968
2095.59313,0.02965
2094.62876,0.02962
2093.66438,0.02960
2092.70000,0.02957
2091.73562,0.02954
2090.77124,0.02951
2089.80687,0.02949
2088.84249,0.02946
2087.87811,0.02943
2086.91373,0.02940
2085.94935,0.02937
2084.98498,0.02935
2084.02060,0.02932
2083.05622,0.02929
2082.09184,0.02926
2081.12747,0.02923
2080.16309,0.02921
2079.19871,0.02918
2078.23433,0.02915
2077.26995,0.02912
2076.30558,0.02909
2075.34120,0.02907
2074.37682,0.02904
2073.41244,0.02901
2072.44806,0.02898
2071.48369,0.02895
2070.51931,0.02893
2069.55493,0.02890
2068.59055,0.02887
2067.62618,0.02884
2066.66180,0.02881
2065.69742,0.02879
2064.73304,0.02876
2063.76866,0.02873
2062.80429,0.02870
2061.83991,0.02867
2060.87553,0.02865
2059.91115,0.02862
2058.94677,0.02859
2057.98240,0.02856
2057.01802,0.02854
2056.05364,0.02851
2055.08926,0.02848
2054.12488,0.02845
2053.16051,0.02842
2052.19613,0.02840
2051.23175,0.02837
2050.26737,0.02834
2049.30300,0.02831
2048.33862,0.02828
2047.37424,0.02826
2046.40986,0.02823
2045.44548,0.02820
2044.48111,0.02817
2043.51673,0.02814
2042.55235,0.02812
2041.58797,0.02809
2040.62359,0.02806
2039.65922,0.02803
2038.69484,0.02800
2037.73046,0.02798
2036.76608,0.02795
2035.80171,0.02792
2034.83733,0.02789
2033.87295,0.02786
2032.90857,0.02784
2031.94419,0.02781
2030.97982,0.02778
2030.01544,0.02775
2029.05106,0.02772
2028.08668,0.02770
2027.12230,0.02767
2026.15793,0.02764
2025.19355,0.02761
2024.22917,0.02759
2023.26479,0.02756
2022.30041,0.02753
2021.33604,0.02750
2020.37166,0.02747
2019.40728,0.02745
2018.44290,0.02742
2017.47853,0.02739
2016.51415,0.02736
2015.54977,0.02733
2014.58539,0.02731
2013.62101,0.02728
2012.65664,0.02725
2011.69226,0.02722
2010.72788,0.02719
2009.76350,0.02717
2008.79912,0.02714
2007.83475,0.02711
2006.87037,0.02708
2005.90599,0.02705
2004.94161,0.02703
2003.97724,0.02700
2003.01286,0.02697
2002.04848,0.02694
2001.08410,0.02691
2000.11972,0.02689
1999.15535,0.02686
1998.19097,0.02683
1997.22659,0.02680
1996.26221,0.02677
1995.29783,0.02675
1994.33346,0.02672
1993.36908,0.02669
1992.40470,0.02666
1991.44032,0.02664
1990.47594,0.02661
1989.51157,0.02658
1988.54719,0.02655
1987.58281,0.02652
1986.61843,0.02650
1985.65406,0.02647
1984.68968,0.02644
1983.72530,0.02641
1982.76092,0.02638
1981.79654,0.02636
1980.83217,0.02633
1979.86779,0.02630
1978.90341,0.02627
1977.93903,0.02624
1976.97465,0.02622
1976.01028,0.02619
1975.04590,0.02616
1974.08152,0.02613
1973.11714,0.02610
1972.15276,0.02608
1971.18839,0.02605
1970.22401,0.02602
1969.25963,0.02599
1968.29525,0.02596
1967.33088,0.02594
1966.36650,0.02591
1965.40212,0.02588
1964.43774,0.02585
1963.47336,0.02582
1962.50899,0.02580
1961.54461,0.02577
1960.58023,0.02574
1959.61585,0.02571
1958.65147,0.02569
1957.68710,0.02566
1956.72272,0.02563
1955.75834,0.02560
1954.79396,0.02557
1953.82959,0.02555
1952.86521,0.02552
1951.90083,0.02549
1950.93645,0.02546
1949.97207,0.02543
1949.00770,0.02541
1948.04332,0.02538
1947.07894,0.02535
1946.11456,0.02532
1945.15018,0.02529
1944.18581,0.02527
1943.22143,0.02524
1942.25705,0.02521
1941.29267,0.02518
1940.32829,0.02515
1939.36392,0.02513
1938.39954,0.02510
1937.43516,0.02507
1936.47078,0.02504
1935.50641,0.02501
1934.54203,0.02499
1933.57765,0.02496
1932.61327,0.02493
1931.64889,0.02490
1930.68452,0.02487
1929.72014,0.02485
1928.75576,0.02482
1927.79138,0.02479
1926.82700,0.02476
1925.86263,0.02458
1924.89825,0.02517
1923.93387,0.02566
1922.96949,0.02576
1922.00512,0.02519
1921.04074,0.02492
1920.07636,0.02583
1919.11198,0.02625
1918.14760,0.02609
1917.18323,0.02590
1916.21885,0.02552
1915.25447,0.02536
1914.29009,0.02506
1913.32571,0.02522
1912.36134,0.02601
1911.39696,0.02625
1910.43258,0.02548
1909.46820,0.02483
1908.50382,0.02490
1907.53945,0.02473
1906.57507,0.02460
1905.61069,0.02472
1904.64631,0.02484
1903.68194,0.02524
1902.71756,0.02518
1901.75318,0.02477
1900.78880,0.02480
1899.82442,0.02512
1898.86005,0.02506
1897.89567,0.02464
1896.93129,0.02464
1895.96691,0.02482
1895.00253,0.02461
1894.03816,0.02463
1893.07378,0.02484
1892.10940,0.02452
1891.14502,0.02442
1890.18065,0.02486
1889.21627,0.02495
1888.25189,0.02473
1887.28751,0.02464
1886.32313,0.02484
1885.35876,0.02499
1884.39438,0.02478
1883.43000,0.02480
1882.46562,0.02511
1881.50124,0.02491
1880.53687,0.02439
1879.57249,0.02440
1878.60811,0.02465
1877.64373,0.02489
1876.67935,0.02506
1875.71498,0.02496
1874.75060,0.02489
1873.78622,0.02493
1872.82184,0.02500
1871.85747,0.02490
1870.89309,0.02469
1869.92871,0.02488
1868.96433,0.02496
1867.99995,0.02464
1867.03558,0.02477
1866.07120,0.02511
1865.10682,0.02504
1864.14244,0.02505
1863.17806,0.02513
1862.21369,0.02513
1861.24931,0.02543
1860.28493,0.02547
1859.32055,0.02512
1858.35618,0.02504
1857.39180,0.02532
1856.42742,0.02546
1855.46304,0.02512
1854.49866,0.02482
1853.53429,0.02497
1852.56991,0.02505
1851.60553,0.02497
1850.64115,0.02519
1849.67677,0.02537
1848.71240,0.02523
1847.74802,0.02535
1846.78364,0.02560
1845.81926,0.02564
1844.85488,0.02588
1843.89051,0.02600
1842.92613,0.02571
1841.96175,0.02563
1840.99737,0.02592
1840.03300,0.02608
1839.06862,0.02611
1838.10424,0.02610
1837.13986,0.02598
1836.17548,0.02599
1835.21111,0.02613
1834.24673,0.02620
1833.28235,0.02612
1832.31797,0.02619
1831.35359,0.02653
1830.38922,0.02668
1829.42484,0.02673
1828.46046,0.02670
1827.49608,0.02650
1826.53171,0.02662
1825.56733,0.02696
1824.60295,0.02704
1823.63857,0.02691
1822.67419,0.02689
1821.70982,0.02695
1820.74544,0.02684
1819.78106,0.02699
1818.81668,0.02728
1817.85230,0.02739
1816.88793,0.02740
1815.92355,0.02734
1814.95917,0.02741
1813.99479,0.02749
1813.03041,0.02750
1812.06604,0.02754
1811.10166,0.02749
1810.13728,0.02753
1809.17290,0.02757
1808.20853,0.02760
1807.24415,0.02766
1806.27977,0.02776
1805.31539,0.02803
1804.35101,0.02814
1803.38664,0.02814
1802.42226,0.02821
1801.45788,0.02823
1800.49350,0.02844
1799.52912,0.02862
1798.56475,0.02863
1797.60037,0.02865
1796.63599,0.02867
1795.67161,0.02874
1794.70724,0.02891
1793.74286,0.02906
1792.77848,0.02929
1791.81410,0.02949
1790.84972,0.02951
1789.88535,0.02952
1788.92097,0.02957
1787.95659,0.02967
1786.99221,0.02985
1786.02783,0.03008
1785.06346,0.03034
1784.09908,0.03060
1783.13470,0.03081
1782.17032,0.03101
1781.20594,0.03123
1780.24157,0.03137
1779.27719,0.03158
1778.31281,0.03203
1777.34843,0.03230
1776.38406,0.03247
1775.41968,0.03281
1774.45530,0.03318
1773.49092,0.03365
1772.52654,0.03400
1771.56217,0.03418
1770.59779,0.03433
1769.63341,0.03454
1768.66903,0.03489
1767.70465,0.03504
1766.74028,0.03522
1765.77590,0.03562
1764.81152,0.03591
1763.84714,0.03617
1762.88276,0.03651
1761.91839,0.03691
1760.95401,0.03710
1759.98963,0.03727
1759.02525,0.03769
1758.06088,0.03803
1757.09650,0.03828
1756.13212,0.03841
1755.16774,0.03857
1754.20336,0.03890
1753.23899,0.03914
1752.27461,0.03953
1751.31023,0.03984
1750.34585,0.03977
1749.38147,0.03987
1748.41710,0.04017
1747.45272,0.04036
1746.48834,0.04052
1745.52396,0.04065
1744.55959,0.04075
1743.59521,0.04082
1742.63083,0.04090
1741.66645,0.04102
1740.70207,0.04119
1739.73770,0.04127
1738.77332,0.04121
1737.80894,0.04119
1736.84456,0.04118
1735.88018,0.04129
1734.91581,0.04155
1733.95143,0.04157
1732.98705,0.04130
1732.02267,0.04098
1731.05829,0.04088
1730.09392,0.04087
1729.12954,0.04075
1728.16516,0.04069
1727.20078,0.04062
1726.23641,0.04059
1725.27203,0.04047
1724.30765,0.04026
1723.34327,0.04015
1722.37889,0.03995
1721.41452,0.03973
1720.45014,0.03962
1719.48576,0.03962
1718.52138,0.03967
1717.55700,0.03942
1716.59263,0.03893
1715.62825,0.03873
1714.66387,0.03866
1713.69949,0.03827
1712.73512,0.03792
1711.77074,0.03772
1710.80636,0.03755
1709.84198,0.03739
1708.87760,0.03713
1707.91323,0.03693
1706.94885,0.03676
1705.98447,0.03660
1705.02009,0.03628
1704.05571,0.03597
1703.09134,0.03576
1702.12696,0.03558
1701.16258,0.03577
1700.19820,0.03571
1699.23382,0.03511
1698.26945,0.03461
1697.30507,0.03449
1696.34069,0.03463
1695.37631,0.03429
1694.41194,0.03377
1693.44756,0.03350
1692.48318,0.03323
1691.51880,0.03310
1690.55442,0.03298
1689.59005,0.03276
1688.62567,0.03255
1687.66129,0.03234
1686.69691,0.03219
1685.73253,0.03242
1684.76816,0.03257
1683.80378,0.03219
1682.83940,0.03183
1681.87502,0.03160
1680.91065,0.03146
1679.94627,0.03128
1678.98189,0.03109
1678.01751,0.03100
1677.05313,0.03090
1676.08876,0.03105
1675.12438,0.03101
1674.16000,0.03073
1673.19562,0.03072
1672.23124,0.03072
1671.26687,0.03065
1670.30249,0.03068
1669.33811,0.03079
1668.37373,0.03067
1667.40935,0.03046
1666.44498,0.03042
1665.48060,0.03038
1664.51622,0.03040
1663.55184,0.03054
1662.58747,0.03067
1661.62309,0.03066
1660.65871,0.03062
1659.69433,0.03066
1658.72995,0.03074
1657.76558,0.03086
1656.80120,0.03091
1655.83682,0.03107
1654.87244,0.03139
1653.90806,0.03198
1652.94369,0.03240
1651.97931,0.03204
1651.01493,0.03174
1650.05055,0.03179
1649.08618,0.03200
1648.12180,0.03223
1647.15742,0.03251
1646.19304,0.03282
1645.22866,0.03288
1644.26429,0.03300
1643.29991,0.03325
1642.33553,0.03342
1641.37115,0.03364
1640.40677,0.03391
1639.44240,0.03423
1638.47802,0.03456
1637.51364,0.03490
1636.54926,0.03542
1635.58488,0.03596
1634.62051,0.03610
1633.65613,0.03619
1632.69175,0.03658
1631.72737,0.03699
1630.76300,0.03739
1629.79862,0.03781
1628.83424,0.03825
1627.86986,0.03868
1626.90548,0.03901
1625.94111,0.03930
1624.97673,0.03961
1624.01235,0.04016
1623.04797,0.04049
1622.08359,0.04057
1621.11922,0.04084
1620.15484,0.04118
1619.19046,0.04145
1618.22608,0.04181
1617.26171,0.04241
1616.29733,0.04262
1615.33295,0.04244
1614.36857,0.04251
1613.40419,0.04269
1612.43982,0.04285
1611.47544,0.04307
1610.51106,0.04339
1609.54668,0.04359
1608.58230,0.04376
1607.61793,0.04401
1606.65355,0.04420
1605.68917,0.04448
1604.72479,0.04473
1603.76041,0.04492
1602.79604,0.04514
1601.83166,0.04540
1600.86728,0.04565
1599.90290,0.04592
1598.93853,0.04630
1597.97415,0.04664
1597.00977,0.04695
1596.04539,0.04718
1595.08101,0.04737
1594.11664,0.04758
1593.15226,0.04777
1592.18788,0.04806
1591.22350,0.04830
1590.25912,0.04858
1589.29475,0.04882
1588.33037,0.04892
1587.36599,0.04905
1586.40161,0.04917
1585.43724,0.04923
1584.47286,0.04932
1583.50848,0.04938
1582.54410,0.04934
1581.57972,0.04930
1580.61535,0.04930
1579.65097,0.04933
1578.68659,0.04917
1577.72221,0.04908
1576.75783,0.04923
1575.79346,0.04892
1574.82908,0.04829
1573.86470,0.04795
1572.90032,0.04778
1571.93594,0.04760
1570.97157,0.04737
1570.00719,0.04712
1569.04281,0.04669
1568.07843,0.04618
1567.11406,0.04570
1566.14968,0.04529
1565.18530,0.04496
1564.22092,0.04450
1563.25654,0.04402
1562.29217,0.04360
1561.32779,0.04338
1560.36341,0.04324
1559.39903,0.04297
1558.43465,0.04258
1557.47028,0.04172
1556.50590,0.04090
1555.54152,0.04060
1554.57714,0.04035
1553.61276,0.03982
1552.64839,0.03924
1551.68401,0.03884
1550.71963,0.03851
1549.75525,0.03809
1548.79088,0.03763
1547.82650,0.03722
1546.86212,0.03692
1545.89774,0.03667
1544.93336,0.03635
1543.96899,0.03598
1543.00461,0.03575
1542.04023,0.03553
1541.07585,0.03518
1540.11147,0.03506
1539.14710,0.03484
1538.18272,0.03419
1537.21834,0.03371
1536.25396,0.03346
1535.28959,0.03323
1534.32521,0.03306
1533.36083,0.03282
1532.39645,0.03244
1531.43207,0.03218
1530.46770,0.03201
1529.50332,0.03186
1528.53894,0.03172
1527.57456,0.03140
1526.61018,0.03119
1525.64581,0.03114
1524.68143,0.03095
1523.71705,0.03082
1522.75267,0.03082
1521.78829,0.03084
1520.82392,0.03066
1519.85954,0.03025
1518.89516,0.03002
1517.93078,0.03002
1516.96641,0.03002
1516.00203,0.02987
1515.03765,0.02971
1514.07327,0.02967
1513.10889,0.02967
1512.14452,0.02960
1511.18014,0.02946
1510.21576,0.02940
1509.25138,0.02937
1508.28700,0.02950
1507.32263,0.02972
1506.35825,0.02981
1505.39387,0.02967
1504.42949,0.02932
1503.46512,0.02916
1502.50074,0.02921
1501.53636,0.02923
1500.57198,0.02924
1499.60760,0.02933
1498.64323,0.02942
1497.67885,0.02950
1496.71447,0.02969
1495.75009,0.02964
1494.78571,0.02949
1493.82134,0.02949
1492.85696,0.02949
1491.89258,0.02971
1490.92820,0.02995
1489.96382,0.03004
1488.99945,0.03003
1488.03507,0.03009
1487.07069,0.03028
1486.10631,0.03032
1485.14194,0.03036
1484.17756,0.03050
1483.21318,0.03064
1482.24880,0.03077
1481.28442,0.03092
1480.32005,0.03108
1479.35567,0.03121
1478.39129,0.03141
1477.42691,0.03166
1476.46253,0.03183
1475.49816,0.03193
1474.53378,0.03218
1473.56940,0.03261
1472.60502,0.03291
1471.64065,0.03300
1470.67627,0.03303
1469.71189,0.03324
1468.74751,0.03354
1467.78313,0.03377
1466.81876,0.03401
1465.85438,0.03435
1464.89000,0.03475
1463.92562,0.03490
1462.96124,0.03500
1461.99687,0.03522
1461.03249,0.03544
1460.06811,0.03579
1459.10373,0.03607
1458.13935,0.03644
1457.17498,0.03703
1456.21060,0.03725
1455.24622,0.03725
1454.28184,0.03744
1453.31747,0.03768
1452.35309,0.03788
1451.38871,0.03813
1450.42433,0.03842
1449.45995,0.03866
1448.49558,0.03894
1447.53120,0.03927
1446.56682,0.03949
1445.60244,0.03963
1444.63806,0.03986
1443.67369,0.04017
1442.70931,0.04049
1441.74493,0.04068
1440.78055,0.04092
1439.81618,0.04133
1438.85180,0.04161
1437.88742,0.04191
1436.92304,0.04226
1435.95866,0.04236
1434.99429,0.04242
1434.02991,0.04271
1433.06553,0.04291
1432.10115,0.04309
1431.13677,0.04342
1430.17240,0.04368
1429.20802,0.04384
1428.24364,0.04398
1427.27926,0.04418
1426.31488,0.04438
1425.35051,0.04455
1424.38613,0.04474
1423.42175,0.04483
1422.45737,0.04497
1421.49300,0.04517
1420.52862,0.04552
1419.56424,0.04587
1418.59986,0.04587
1417.63548,0.04589
1416.67111,0.04603
1415.70673,0.04614
1414.74235,0.04623
1413.77797,0.04635
1412.81359,0.04652
1411.84922,0.04661
1410.88484,0.04670
1409.92046,0.04678
1408.95608,0.04688
1407.99171,0.04702
1407.02733,0.04711
1406.06295,0.04726
1405.09857,0.04740
1404.13419,0.04744
1403.16982,0.04742
1402.20544,0.04746
1401.24106,0.04760
1400.27668,0.04771
1399.31230,0.04781
1398.34793,0.04785
1397.38355,0.04792
1396.41917,0.04807
1395.45479,0.04822
1394.49041,0.04826
1393.52604,0.04814
1392.56166,0.04812
1391.59728,0.04823
1390.63290,0.04826
1389.66853,0.04834
1388.70415,0.04848
1387.73977,0.04864
1386.77539,0.04869
1385.81101,0.04860
1384.84664,0.04853
1383.88226,0.04865
1382.91788,0.04877
1381.95350,0.04877
1380.98912,0.04880
1380.02475,0.04892
1379.06037,0.04902
1378.09599,0.04907
1377.13161,0.04908
1376.16724,0.04910
1375.20286,0.04922
1374.23848,0.04931
1373.27410,0.04928
1372.30972,0.04929
1371.34535,0.04928
1370.38097,0.04930
1369.41659,0.04940
1368.45221,0.04947
1367.48783,0.04948
1366.52346,0.04948
1365.55908,0.04945
1364.59470,0.04941
1363.63032,0.04944
1362.66594,0.04950
1361.70157,0.04955
1360.73719,0.04960
1359.77281,0.04959
1358.80843,0.04956
1357.84406,0.04956
1356.87968,0.04958
1355.91530,0.04961
1354.95092,0.04965
1353.98654,0.04969
1353.02217,0.04968
1352.05779,0.04968
1351.09341,0.04969
1350.12903,0.04967
1349.16465,0.04961
1348.20028,0.04956
1347.23590,0.04956
1346.27152,0.04956
1345.30714,0.04956
1344.34276,0.04959
1343.37839,0.04966
1342.41401,0.04970
1341.44963,0.04972
1340.48525,0.04978
1339.52088,0.04981
1338.55650,0.04981
1337.59212,0.04982
1336.62774,0.04983
1335.66336,0.04981
1334.69899,0.04983
1333.73461,0.04990
1332.77023,0.04989
1331.80585,0.04990
1330.84147,0.04998
1329.87710,0.05003
1328.91272,0.05009
1327.94834,0.05014
1326.98396,0.05017
1326.01959,0.05019
1325.05521,0.05025
1324.09083,0.05043
1323.12645,0.05056
1322.16207,0.05058
1321.19770,0.05058
1320.23332,0.05065
1319.26894,0.05074
1318.30456,0.05075
1317.34018,0.05079
1316.37581,0.05096
1315.41143,0.05117
1314.44705,0.05133
1313.48267,0.05137
1312.51829,0.05146
1311.55392,0.05155
1310.58954,0.05168
1309.62516,0.05189
1308.66078,0.05197
1307.69641,0.05208
1306.73203,0.05222
1305.76765,0.05234
1304.80327,0.05257
1303.83889,0.05276
1302.87452,0.05289
1301.91014,0.05300
1300.94576,0.05314
1299.98138,0.05326
1299.01700,0.05341
1298.05263,0.05366
1297.08825,0.05384
1296.12387,0.05398
1295.15949,0.05412
1294.19512,0.05431
1293.23074,0.05454
1292.26636,0.05472
1291.30198,0.05490
1290.33760,0.05507
1289.37323,0.05530
1288.40885,0.05551
1287.44447,0.05564
1286.48009,0.05580
1285.51571,0.05600
1284.55134,0.05623
1283.58696,0.05642
1282.62258,0.05655
1281.65820,0.05665
1280.69382,0.05683
1279.72945,0.05705
1278.76507,0.05728
1277.80069,0.05745
1276.83631,0.05760
1275.87194,0.05786
1274.90756,0.05798
1273.94318,0.05810
1272.97880,0.05835
1272.01442,0.05850
1271.05005,0.05864
1270.08567,0.05880
1269.12129,0.05901
1268.15691,0.05926
1267.19253,0.05941
1266.22816,0.05955
1265.26378,0.05964
1264.29940,0.05969
1263.33502,0.05989
1262.37065,0.06007
1261.40627,0.06013
1260.44189,0.06028
1259.47751,0.06048
1258.51313,0.06064
1257.54876,0.06073
1256.58438,0.06082
1255.62000,0.06097
1254.65562,0.06110
1253.69124,0.06122
1252.72687,0.06134
1251.76249,0.06140
1250.79811,0.06146
1249.83373,0.06157
1248.86935,0.06169
1247.90498,0.06174
1246.94060,0.06182
1245.97622,0.06186
1245.01184,0.06184
1244.04747,0.06190
1243.08309,0.06201
1242.11871,0.06199
1241.15433,0.06186
1240.18995,0.06186
1239.22558,0.06190
1238.26120,0.06187
1237.29682,0.06192
1236.33244,0.06195
1235.36806,0.06188
1234.40369,0.06180
1233.43931,0.06175
1232.47493,0.06174
1231.51055,0.06169
1230.54618,0.06160
1229.58180,0.06156
1228.61742,0.06155
1227.65304,0.06141
1226.68866,0.06122
1225.72429,0.06116
1224.75991,0.06109
1223.79553,0.06096
1222.83115,0.06079
1221.86677,0.06054
1220.90240,0.06039
1219.93802,0.06039
1218.97364,0.06033
1218.00926,0.06011
1217.04488,0.05984
1216.08051,0.05960
1215.11613,0.05939
1214.15175,0.05924
1213.18737,0.05907
1212.22300,0.05886
1211.25862,0.05871
1210.29424,0.05857
1209.32986,0.05841
1208.36548,0.05825
1207.40111,0.05809
1206.43673,0.05794
1205.47235,0.05773
1204.50797,0.05756
1203.54359,0.05747
1202.57922,0.05732
1201.61484,0.05712
1200.65046,0.05688
1199.68608,0.05668
1198.72171,0.05659
1197.75733,0.05649
1196.79295,0.05632
1195.82857,0.05618
1194.86419,0.05605
1193.89982,0.05591
1192.93544,0.05579
1191.97106,0.05567
1191.00668,0.05561
1190.04230,0.05561
1189.07793,0.05555
1188.11355,0.05539
1187.14917,0.05520
1186.18479,0.05509
1185.22041,0.05500
1184.25604,0.05493
1183.29166,0.05480
1182.32728,0.05472
1181.36290,0.05476
1180.39853,0.05476
1179.43415,0.05477
1178.46977,0.05474
1177.50539,0.05456
1176.54101,0.05442
1175.57664,0.05436
1174.61226,0.05429
1173.64788,0.05420
1172.68350,0.05419
1171.71912,0.05416
1170.75475,0.05404
1169.79037,0.05402
1168.82599,0.05402
1167.86161,0.05389
1166.89724,0.05380
1165.93286,0.05379
1164.96848,0.05372
1164.00410,0.05361
1163.03972,0.05357
1162.07535,0.05355
1161.11097,0.05350
1160.14659,0.05345
1159.18221,0.05342
1158.21783,0.05337
1157.25346,0.05326
1156.28908,0.05312
1155.32470,0.05297
1154.36032,0.05282
1153.39594,0.05280
1152.43157,0.05285
1151.46719,0.05278
1150.50281,0.05261
1149.53843,0.05249
1148.57406,0.05245
1147.60968,0.05238
1146.64530,0.05234
1145.68092,0.05231
1144.71654,0.05215
1143.75217,0.05214
1142.78779,0.05218
1141.82341,0.05203
1140.85903,0.05197
1139.89465,0.05198
1138.93028,0.05191
1137.96590,0.05182
1137.00152,0.05166
1136.03714,0.05160
1135.07276,0.05154
1134.10839,0.05146
1133.14401,0.05151
1132.17963,0.05153
1131.21525,0.05147
1130.25088,0.05150
1129.28650,0.05156
1128.32212,0.05154
1127.35774,0.05151
1126.39336,0.05152
1125.42899,0.05161
1124.46461,0.05161
1123.50023,0.05147
1122.53585,0.05147
1121.57147,0.05148
1120.60710,0.05149
1119.64272,0.05152
1118.67834,0.05155
1117.71396,0.05177
1116.74959,0.05187
1115.78521,0.05173
1114.82083,0.05168
1113.85645,0.05173
1112.89207,0.05180
1111.92770,0.05193
1110.96332,0.05208
1109.99894,0.05217
1109.03456,0.05223
1108.07018,0.05228
1107.10581,0.05222
1106.14143,0.05214
1105.17705,0.05226
1104.21267,0.05242
1103.24829,0.05249
1102.28392,0.05260
1101.31954,0.05271
1100.35516,0.05289
1099.39078,0.05310
1098.42641,0.05325
1097.46203,0.05330
1096.49765,0.05326
1095.53327,0.05337
1094.56889,0.05351
1093.60452,0.05363
1092.64014,0.05378
1091.67576,0.05387
1090.71138,0.05404
1089.74700,0.05431
1088.78263,0.05451
1087.81825,0.05452
1086.85387,0.05442
1085.88949,0.05446
1084.92512,0.05478
1083.96074,0.05517
1082.99636,0.05535
1082.03198,0.05541
1081.06760,0.05542
1080.10323,0.05540
1079.13885,0.05548
1078.17447,0.05561
1077.21009,0.05570
1076.24571,0.05574
1075.28134,0.05578
1074.31696,0.05589
1073.35258,0.05599
1072.38820,0.05610
1071.42382,0.05609
1070.45945,0.05606
1069.49507,0.05612
1068.53069,0.05614
1067.56631,0.05610
1066.60194,0.05617
1065.63756,0.05630
1064.67318,0.05621
1063.70880,0.05600
1062.74442,0.05591
1061.78005,0.05587
1060.81567,0.05594
1059.85129,0.05604
1058.88691,0.05597
1057.92253,0.05585
1056.95816,0.05580
1055.99378,0.05570
1055.02940,0.05562
1054.06502,0.05557
1053.10065,0.05526
1052.13627,0.05494
1051.17189,0.05484
1050.20751,0.05461
1049.24313,0.05431
1048.27876,0.05402
1047.31438,0.05372
1046.35000,0.05350
1045.38562,0.05328
1044.42124,0.05302
1043.45687,0.05263
1042.49249,0.05223
1041.52811,0.05200
1040.56373,0.05182
1039.59935,0.05151
1038.63498,0.05103
1037.67060,0.05062
1036.70622,0.05035
1035.74184,0.05011
1034.77747,0.04976
1033.81309,0.04932
1032.84871,0.04898
1031.88433,0.04866
1030.91995,0.04828
1029.95558,0.04797
1028.99120,0.04777
1028.02682,0.04746
1027.06244,0.04705
1026.09806,0.04678
1025.13369,0.04652
1024.16931,0.04617
1023.20493,0.04584
1022.24055,0.04557
1021.27618,0.04532
1020.31180,0.04507
1019.34742,0.04478
1018.38304,0.04448
1017.41866,0.04431
1016.45429,0.04414
1015.48991,0.04388
1014.52553,0.04363
1013.56115,0.04337
1012.59677,0.04326
1011.63240,0.04323
1010.66802,0.04307
1009.70364,0.04286
1008.73926,0.04273
1007.77488,0.04260
1006.81051,0.04244
1005.84613,0.04224
1004.88175,0.04196
1003.91737,0.04187
1002.95300,0.04200
1001.98862,0.04196
1001.02424,0.04178
1000.05986,0.04161
999.09548,0.04159
998.13111,0.04163
997.16673,0.04161
996.20235,0.04153
995.23797,0.04131
994.27359,0.04118
993.30922,0.04112
992.34484,0.04102
991.38046,0.04100
990.41608,0.04093
989.45171,0.04084
988.48733,0.04076
987.52295,0.04067
986.55857,0.04062
985.59419,0.04053
984.62982,0.04034
983.66544,0.04009
982.70106,0.03998
981.73668,0.03993
980.77230,0.03991
979.80793,0.03992
978.84355,0.03976
977.87917,0.03958
976.91479,0.03938
975.95041,0.03916
974.98604,0.03915
974.02166,0.03904
973.05728,0.03873
972.09290,0.03847
971.12853,0.03832
970.16415,0.03818
969.19977,0.03803
968.23539,0.03789
967.27101,0.03770
966.30664,0.03749
965.34226,0.03736
964.37788,0.03724
963.41350,0.03710
962.44912,0.03703
961.48475,0.03695
960.52037,0.03665
959.55599,0.03631
958.59161,0.03600
957.62724,0.03572
956.66286,0.03571
955.69848,0.03558
954.73410,0.03530
953.76972,0.03509
952.80535,0.03481
951.84097,0.03478
950.87659,0.03479
949.91221,0.03471
948.94783,0.03464
947.98346,0.03439
947.01908,0.03416
946.05470,0.03388
945.09032,0.03366
944.12594,0.03358
943.16157,0.03347
942.19719,0.03341
941.23281,0.03324
940.26843,0.03301
939.30406,0.03283
938.33968,0.03260
937.37530,0.03245
936.41092,0.03237
935.44654,0.03221
934.48217,0.03191
933.51779,0.03174
932.55341,0.03168
931.58903,0.03156
930.62465,0.03142
929.66028,0.03133
928.69590,0.03138
927.73152,0.03121
926.76714,0.03089
925.80276,0.03081
924.83839,0.03077
923.87401,0.03072
922.90963,0.03052
921.94525,0.03032
920.98088,0.03021
920.01650,0.03005
919.05212,0.02997
918.08774,0.02990
917.12336,0.02974
916.15899,0.02958
915.19461,0.02964
914.23023,0.02970
913.26585,0.02944
912.30147,0.02915
911.33710,0.02906
910.37272,0.02915
909.40834,0.02920
908.44396,0.02921
907.47959,0.02920
906.51521,0.02906
905.55083,0.02919
904.58645,0.02938
903.62207,0.02912
902.65770,0.02892
901.69332,0.02899
900.72894,0.02890
899.76456,0.02868
898.80018,0.02862
897.83581,0.02860
896.87143,0.02861
895.90705,0.02865
894.94267,0.02872
893.97829,0.02890
893.01392,0.02894
892.04954,0.02879
891.08516,0.02881
890.12078,0.02888
889.15641,0.02872
888.19203,0.02872
887.22765,0.02885
886.26327,0.02872
885.29889,0.02852
884.33452,0.02853
883.37014,0.02857
882.40576,0.02864
881.44138,0.02881
880.47700,0.02878
879.51263,0.02884
878.54825,0.02900
877.58387,0.02884
876.61949,0.02867
875.65512,0.02868
874.69074,0.02893
873.72636,0.02898
872.76198,0.02901
871.79760,0.02926
870.83323,0.02915
869.86885,0.02928
868.90447,0.02950
867.94009,0.02930
866.97571,0.02920
866.01134,0.02912
865.04696,0.02923
864.08258,0.02961
863.11820,0.02985
862.15382,0.02971
861.18945,0.02955
860.22507,0.02967
859.26069,0.02973
858.29631,0.02971
857.33194,0.02969
856.36756,0.02984
855.40318,0.03007
854.43880,0.03007
853.47442,0.03009
852.51005,0.03021
851.54567,0.03005
850.58129,0.02981
849.61691,0.02983
848.65253,0.02989
847.68816,0.02993
846.72378,0.02994
845.75940,0.02985
844.79502,0.02994
843.83065,0.03007
842.86627,0.03021
841.90189,0.03025
840.93751,0.03000
839.97313,0.02983
839.00876,0.02987
838.04438,0.03003
837.08000,0.03012
836.11562,0.03016
835.15124,0.03022
834.18687,0.03012
833.22249,0.02979
832.25811,0.02959
831.29373,0.02986
830.32935,0.03000
829.36498,0.02982
828.40060,0.02971
827.43622,0.02952
826.47184,0.02944
825.50747,0.02950
824.54309,0.02954
823.57871,0.02953
822.61433,0.02957
821.64995,0.02954
820.68558,0.02932
819.72120,0.02936
818.75682,0.02943
817.79244,0.02938
816.82806,0.02932
815.86369,0.02919
814.89931,0.02925
813.93493,0.02939
812.97055,0.02950
812.00618,0.02935
811.04180,0.02906
810.07742,0.02909
809.11304,0.02915
808.14866,0.02914
807.18429,0.02912
806.21991,0.02902
805.25553,0.02898
804.29115,0.02895
803.32677,0.02889
802.36240,0.02886
801.39802,0.02887
800.43364,0.02902
799.46926,0.02919
798.50488,0.02913
797.54051,0.02895
796.57613,0.02869
795.61175,0.02848
794.64737,0.02843
793.68300,0.02830
792.71862,0.02837
791.75424,0.02870
790.78986,0.02882
789.82548,0.02874
788.86111,0.02871
787.89673,0.02865
786.93235,0.02842
785.96797,0.02836
785.00359,0.02841
784.03922,0.02851
783.07484,0.02866
782.11046,0.02860
781.14608,0.02848
780.18171,0.02833
779.21733,0.02826
778.25295,0.02839
777.28857,0.02845
776.32419,0.02852
775.35982,0.02847
774.39544,0.02842
773.43106,0.02857
772.46668,0.02855
771.50230,0.02844
770.53793,0.02849
769.57355,0.02869
768.60917,0.02885
767.64479,0.02878
766.68041,0.02859
765.71604,0.02858
764.75166,0.02863
763.78728,0.02867
762.82290,0.02879
761.85853,0.02870
760.89415,0.02865
759.92977,0.02864
758.96539,0.02860
758.00101,0.02865
757.03664,0.02850
756.07226,0.02846
755.10788,0.02864
754.14350,0.02911
753.17912,0.02937
752.21475,0.02895
751.25037,0.02869
750.28599,0.02847
749.32161,0.02849
748.35724,0.02875
747.39286,0.02871
746.42848,0.02878
745.46410,0.02889
744.49972,0.02909
743.53535,0.02902
742.57097,0.02871
741.60659,0.02866
740.64221,0.02875
739.67783,0.02929
738.71346,0.02968
737.74908,0.02962
736.78470,0.02937
735.82032,0.02914
734.85594,0.02916
733.89157,0.02919
732.92719,0.02940
731.96281,0.02951
730.99843,0.02947
730.03406,0.02971
729.06968,0.02991
728.10530,0.02985
727.14092,0.02962
726.17654,0.02962
725.21217,0.02989
724.24779,0.03000
723.28341,0.03002
722.31903,0.03021
721.35465,0.03039
720.39028,0.03026
719.42590,0.03005
718.46152,0.02995
717.49714,0.03000
716.53276,0.03018
715.56839,0.03032
714.60401,0.03043
713.63963,0.03047
712.67525,0.03041
711.71088,0.03047
710.74650,0.03064
709.78212,0.03070
708.81774,0.03066
707.85336,0.03068
706.88899,0.03067
705.92461,0.03066
704.96023,0.03081
703.99585,0.03077
703.03147,0.03059
702.06710,0.03062
701.10272,0.03077
700.13834,0.03096
699.17396,0.03098
698.20959,0.03084
697.24521,0.03078
696.28083,0.03089
695.31645,0.03099
694.35207,0.03080
693.38770,0.03067
692.42332,0.03096
691.45894,0.03124
690.49456,0.03110
689.53018,0.03078
688.56581,0.03072
687.60143,0.03083
686.63705,0.03100
685.67267,0.03123
684.70829,0.03138
683.74392,0.03140
682.77954,0.03133
681.81516,0.03128
680.85078,0.03128
679.88641,0.03140
678.92203,0.03145
677.95765,0.03132
676.99327,0.03121
676.02889,0.03128
675.06452,0.03145
674.10014,0.03145
673.13576,0.03134
672.17138,0.03118
671.20700,0.03131
670.24263,0.03165
669.27825,0.03219
668.31387,0.03327
667.34949,0.03309
666.38512,0.03203
665.42074,0.03173
664.45636,0.03158
663.49198,0.03146
662.52760,0.03155
661.56323,0.03168
660.59885,0.03167
659.63447,0.03167
658.67009,0.03176
657.70571,0.03181
656.74134,0.03185
655.77696,0.03189
654.81258,0.03209
653.84820,0.03216
652.88382,0.03199
651.91945,0.03188
650.95507,0.03197
649.99069,0.03201
649.02631,0.03172
648.06194,0.03169
647.09756,0.03190
646.13318,0.03207
645.16880,0.03219
644.20442,0.03206
643.24005,0.03208
642.27567,0.03231
641.31129,0.03245
640.34691,0.03242
639.38253,0.03231
638.41816,0.03241
637.45378,0.03246
636.48940,0.03240
635.52502,0.03251
634.56065,0.03248
633.59627,0.03231
632.63189,0.03241
631.66751,0.03244
630.70313,0.03234
629.73876,0.03254
628.77438,0.03268
627.81000,0.03252
626.84562,0.03215
625.88124,0.03165
624.91687,0.03143
623.95249,0.03179
622.98811,0.03134
622.02373,0.02807
621.05935,0.02756
620.09498,0.03078
619.13060,0.03393
618.16622,0.03434
617.20184,0.03341
616.23747,0.03546
615.27309,0.03360
614.30871,0.02943
613.34433,0.03062
612.37995,0.03172
611.41558,0.03133
610.45120,0.03287
609.48682,0.03377
608.52244,0.03405
607.55806,0.03571
606.59369,0.03545
605.62931,0.03244
604.66493,0.03081
603.70055,0.03048
602.73618,0.03155
601.77180,0.03338
600.80742,0.03299
599.84304,0.03306
598.87866,0.03388
597.91429,0.03353
596.94991,0.03301
595.98553,0.03256
595.02115,0.03317
594.05677,0.03445
593.09240,0.03421
592.12802,0.03345
591.16364,0.03289
590.19926,0.03240
589.23488,0.03248
588.27051,0.03281
587.30613,0.03337
586.34175,0.03380
585.37737,0.03369
584.41300,0.03366
583.44862,0.03379
582.48424,0.03381
581.51986,0.03385
580.55548,0.03395
579.59111,0.03403
578.62673,0.03365
577.66235,0.03330
576.69797,0.03361
575.73359,0.03350
574.76922,0.03309
573.80484,0.03303
572.84046,0.03302
571.87608,0.03299
570.91171,0.03289
569.94733,0.03302
568.98295,0.03278
568.01857,0.03224
567.05419,0.03232
566.08982,0.03236
565.12544,0.03250
564.16106,0.03261
563.19668,0.03262
562.23230,0.03274
561.26793,0.03260
560.30355,0.03204
559.33917,0.03142
558.37479,0.03160
557.41041,0.03180
556.44604,0.03154
555.48166,0.03167
554.51728,0.03203
553.55290,0.03223
552.58853,0.03208
551.62415,0.03207
550.65977,0.03229
549.69539,0.03248
548.73101,0.03268
547.76664,0.03280
546.80226,0.03297
545.83788,0.03290
544.87350,0.03246
543.90912,0.03200
542.94475,0.03200
541.98037,0.03228
541.01599,0.03239
540.05161,0.03240
539.08724,0.03234
538.12286,0.03269
537.15848,0.03307
536.19410,0.03327
535.22972,0.03339
534.26535,0.03297
533.30097,0.03263
532.33659,0.03229
531.37221,0.03170
530.40783,0.03158
529.44346,0.03208
528.47908,0.03245
527.51470,0.03251
526.55032,0.03288
525.58594,0.03297
524.62157,0.03289
523.65719,0.03280
522.69281,0.03241
521.72843,0.03245
520.76406,0.03220
519.79968,0.03160
518.83530,0.03172
517.87092,0.03214
516.90654,0.03227
515.94217,0.03232
514.97779,0.03259
514.01341,0.03276
513.04903,0.03255
512.08465,0.03200
511.12028,0.03196
510.15590,0.03253
509.19152,0.03259
508.22714,0.03225
507.26276,0.03183
506.29839,0.03156
505.33401,0.03190
504.36963,0.03244
503.40525,0.03249
502.44088,0.03222
501.47650,0.03243
500.51212,0.03284
499.54774,0.03277
498.58336,0.03223
497.61899,0.03193
496.65461,0.03224
495.69023,0.03249
494.72585,0.03245
493.76147,0.03221
492.79710,0.03184
491.83272,0.03136
490.86834,0.03108
489.90396,0.03135
488.93959,0.03145
487.97521,0.03172
487.01083,0.03240
486.04645,0.03222
485.08207,0.03174
484.11770,0.03217
483.15332,0.03248
482.18894,0.03205
481.22456,0.03161
480.26018,0.03136
479.29581,0.03150
478.33143,0.03219
477.36705,0.03250
476.40267,0.03200
475.43829,0.03177
474.47392,0.03205
473.50954,0.03207
472.54516,0.03218
471.58078,0.03214
470.61641,0.03189
469.65203,0.03196
468.68765,0.03188
467.72327,0.03197
466.75889,0.03197
465.79452,0.03168
464.83014,0.03198
463.86576,0.03217
462.90138,0.03225
461.93700,0.03243
460.97263,0.03221
460.00825,0.03205
459.04387,0.03202
458.07949,0.03178
457.11512,0.03150
456.15074,0.03152
455.18636,0.03207
454.22198,0.03226
453.25760,0.03157
452.29323,0.03139
451.32885,0.03169
450.36447,0.03152
449.40009,0.03142
448.43571,0.03128
447.47134,0.03132
446.50696,0.03149
445.54258,0.03147
444.57820,0.03186
443.61382,0.03208
442.64945,0.03202
441.68507,0.03179
440.72069,0.03137
439.75631,0.03138
438.79194,0.03163
437.82756,0.03180
436.86318,0.03143
435.89880,0.03118
434.93442,0.03135
433.97005,0.03084
433.00567,0.03059
432.04129,0.03105
431.07691,0.03130
430.11253,0.03128
429.14816,0.03116
428.18378,0.03112
427.21940,0.03103
426.25502,0.03079
425.29065,0.03059
424.32627,0.03067
423.36189,0.03099
422.39751,0.03094
421.43313,0.03058
420.46876,0.03048
419.50438,0.03068
418.54000,0.03065
417.57562,0.03028
416.61124,0.03039
415.64687,0.03040
414.68249,0.02965
413.71811,0.02932
412.75373,0.02936
411.78935,0.02935
410.82498,0.02963
409.86060,0.02994
408.89622,0.02993
407.93184,0.02981
406.96747,0.02969
406.00309,0.02924
405.03871,0.02888
404.07433,0.02909
403.10995,0.02935
402.14558,0.02964
401.18120,0.02968
400.21682,0.02945
399.25244,0.02933
