3998.31069,0.00415
3997.34631,0.00412
3996.38194,0.00422
3995.41756,0.00456
3994.45318,0.00444
3993.48880,0.00428
3992.52442,0.00444
3991.56005,0.00432
3990.59567,0.00388
3989.63129,0.00393
3988.66691,0.00449
3987.70253,0.00459
3986.73816,0.00449
3985.77378,0.00439
3984.80940,0.00416
3983.84502,0.00417
3982.88065,0.00397
3981.91627,0.00374
3980.95189,0.00378
3979.98751,0.00395
3979.02313,0.00449
3978.05876,0.00476
3977.09438,0.00467
3976.13000,0.00462
3975.16562,0.00453
3974.20124,0.00439
3973.23687,0.00420
3972.27249,0.00412
3971.30811,0.00395
3970.34373,0.00393
3969.37935,0.00394
3968.41498,0.00392
3967.45060,0.00424
3966.48622,0.00408
3965.52184,0.00380
3964.55747,0.00391
3963.59309,0.00407
3962.62871,0.00427
3961.66433,0.00426
3960.69995,0.00402
3959.73558,0.00397
3958.77120,0.00434
3957.80682,0.00437
3956.84244,0.00440
3955.87806,0.00458
3954.91369,0.00419
3953.94931,0.00426
3952.98493,0.00426
3952.02055,0.00388
3951.05618,0.00382
3950.09180,0.00391
3949.12742,0.00437
3948.16304,0.00447
3947.19866,0.00431
3946.23429,0.00401
3945.26991,0.00374
3944.30553,0.00424
3943.34115,0.00473
3942.37677,0.00480
3941.41240,0.00441
3940.44802,0.00411
3939.48364,0.00410
3938.51926,0.00398
3937.55488,0.00414
3936.59051,0.00422
3935.62613,0.00439
3934.66175,0.00453
3933.69737,0.00427
3932.73300,0.00410
3931.76862,0.00404
3930.80424,0.00414
3929.83986,0.00422
3928.87548,0.00414
3927.91111,0.00382
3926.94673,0.00364
3925.98235,0.00409
3925.01797,0.00441
3924.05359,0.00458
3923.08922,0.00476
3922.12484,0.00454
3921.16046,0.00423
3920.19608,0.00436
3919.23171,0.00451
3918.26733,0.00437
3917.30295,0.00437
3916.33857,0.00441
3915.37419,0.00450
3914.40982,0.00425
3913.44544,0.00374
3912.48106,0.00389
3911.51668,0.00418
3910.55230,0.00418
3909.58793,0.00390
3908.62355,0.00367
3907.65917,0.00396
3906.69479,0.00393
3905.73041,0.00372
3904.76604,0.00390
3903.80166,0.00382
3902.83728,0.00373
3901.87290,0.00393
3900.90853,0.00412
3899.94415,0.00431
3898.97977,0.00420
3898.01539,0.00407
3897.05101,0.00426
3896.08664,0.00450
3895.12226,0.00460
3894.15788,0.00429
3893.19350,0.00422
3892.22912,0.00460
3891.26475,0.00476
3890.30037,0.00477
3889.33599,0.00461
3888.37161,0.00438
3887.40724,0.00434
3886.44286,0.00437
3885.47848,0.00410
3884.51410,0.00402
3883.54972,0.00423
3882.58535,0.00398
3881.62097,0.00384
3880.65659,0.00395
3879.69221,0.00414
3878.72783,0.00433
3877.76346,0.00419
3876.79908,0.00410
3875.83470,0.00407
3874.87032,0.00439
3873.90594,0.00472
3872.94157,0.00447
3871.97719,0.00426
3871.01281,0.00424
3870.04843,0.00440
3869.08406,0.00442
3868.11968,0.00454
3867.15530,0.00493
3866.19092,0.00505
3865.22654,0.00481
3864.26217,0.00437
3863.29779,0.00424
3862.33341,0.00407
3861.36903,0.00355
3860.40465,0.00336
3859.44028,0.00375
3858.47590,0.00418
3857.51152,0.00444
3856.54714,0.00457
3855.58276,0.00471
3854.61839,0.00542
3853.65401,0.00544
3852.68963,0.00489
3851.72525,0.00475
3850.76088,0.00430
3849.79650,0.00431
3848.83212,0.00466
3847.86774,0.00446
3846.90336,0.00410
3845.93899,0.00398
3844.97461,0.00420
3844.01023,0.00402
3843.04585,0.00381
3842.08147,0.00402
3841.11710,0.00405
3840.15272,0.00403
3839.18834,0.00420
3838.22396,0.00418
3837.25959,0.00385
3836.29521,0.00399
3835.33083,0.00416
3834.36645,0.00385
3833.40207,0.00378
3832.43770,0.00401
3831.47332,0.00404
3830.50894,0.00402
3829.54456,0.00409
3828.58018,0.00403
3827.61581,0.00410
3826.65143,0.00418
3825.68705,0.00437
3824.72267,0.00483
3823.75829,0.00495
3822.79392,0.00492
3821.82954,0.00455
3820.86516,0.00418
3819.90078,0.00434
3818.93641,0.00426
3817.97203,0.00409
3817.00765,0.00452
3816.04327,0.00488
3815.07889,0.00434
3814.11452,0.00382
3813.15014,0.00368
3812.18576,0.00366
3811.22138,0.00392
3810.25700,0.00414
3809.29263,0.00438
3808.32825,0.00437
3807.36387,0.00431
3806.39949,0.00452
3805.43512,0.00433
3804.47074,0.00411
3803.50636,0.00428
3802.54198,0.00450
3801.57760,0.00429
3800.61323,0.00420
3799.64885,0.00446
3798.68447,0.00439
3797.72009,0.00420
3796.75571,0.00417
3795.79134,0.00422
3794.82696,0.00406
3793.86258,0.00395
3792.89820,0.00404
3791.93382,0.00382
3790.96945,0.00365
3790.00507,0.00388
3789.04069,0.00409
3788.07631,0.00386
3787.11194,0.00360
3786.14756,0.00368
3785.18318,0.00382
3784.21880,0.00378
3783.25442,0.00369
3782.29005,0.00391
3781.32567,0.00403
3780.36129,0.00390
3779.39691,0.00372
3778.43253,0.00352
3777.46816,0.00356
3776.50378,0.00363
3775.53940,0.00429
3774.57502,0.00506
3773.61065,0.00445
3772.64627,0.00369
3771.68189,0.00383
3770.71751,0.00413
3769.75313,0.00401
3768.78876,0.00359
3767.82438,0.00352
3766.86000,0.00369
3765.89562,0.00368
3764.93124,0.00387
3763.96687,0.00414
3763.00249,0.00434
3762.03811,0.00454
3761.07373,0.00448
3760.10935,0.00461
3759.14498,0.00483
3758.18060,0.00454
3757.21622,0.00425
3756.25184,0.00413
3755.28747,0.00401
3754.32309,0.00395
3753.35871,0.00386
3752.39433,0.00385
3751.42995,0.00393
3750.46558,0.00411
3749.50120,0.00407
3748.53682,0.00394
3747.57244,0.00448
3746.60806,0.00478
3745.64369,0.00476
3744.67931,0.00480
3743.71493,0.00429
3742.75055,0.00421
3741.78618,0.00437
3740.82180,0.00409
3739.85742,0.00403
3738.89304,0.00420
3737.92866,0.00440
3736.96429,0.00461
3735.99991,0.00507
3735.03553,0.00518
3734.07115,0.00475
3733.10677,0.00470
3732.14240,0.00471
3731.17802,0.00423
3730.21364,0.00365
3729.24926,0.00362
3728.28488,0.00402
3727.32051,0.00439
3726.35613,0.00445
3725.39175,0.00405
3724.42737,0.00385
3723.46300,0.00393
3722.49862,0.00400
3721.53424,0.00399
3720.56986,0.00394
3719.60548,0.00408
3718.64111,0.00396
3717.67673,0.00380
3716.71235,0.00414
3715.74797,0.00449
3714.78359,0.00402
3713.81922,0.00360
3712.85484,0.00435
3711.89046,0.00502
3710.92608,0.00472
3709.96171,0.00383
3708.99733,0.00325
3708.03295,0.00355
3707.06857,0.00378
3706.10419,0.00376
3705.13982,0.00380
3704.17544,0.00403
3703.21106,0.00432
3702.24668,0.00442
3701.28230,0.00450
3700.31793,0.00433
3699.35355,0.00415
3698.38917,0.00408
3697.42479,0.00388
3696.46041,0.00387
3695.49604,0.00363
3694.53166,0.00366
3693.56728,0.00391
3692.60290,0.00364
3691.63853,0.00376
3690.67415,0.00392
3689.70977,0.00403
3688.74539,0.00457
3687.78101,0.00441
3686.81664,0.00415
3685.85226,0.00421
3684.88788,0.00394
3683.92350,0.00353
3682.95912,0.00349
3681.99475,0.00345
3681.03037,0.00303
3680.06599,0.00315
3679.10161,0.00371
3678.13724,0.00399
3677.17286,0.00423
3676.20848,0.00457
3675.24410,0.00482
3674.27972,0.00466
3673.31535,0.00449
3672.35097,0.00452
3671.38659,0.00466
3670.42221,0.00467
3669.45783,0.00426
3668.49346,0.00385
3667.52908,0.00396
3666.56470,0.00445
3665.60032,0.00448
3664.63594,0.00417
3663.67157,0.00386
3662.70719,0.00373
3661.74281,0.00403
3660.77843,0.00413
3659.81406,0.00412
3658.84968,0.00413
3657.88530,0.00399
3656.92092,0.00395
3655.95654,0.00394
3654.99217,0.00405
3654.02779,0.00401
3653.06341,0.00397
3652.09903,0.00426
3651.13465,0.00447
3650.17028,0.00461
3649.20590,0.00472
3648.24152,0.00467
3647.27714,0.00468
3646.31276,0.00460
3645.34839,0.00450
3644.38401,0.00473
3643.41963,0.00461
3642.45525,0.00434
3641.49088,0.00440
3640.52650,0.00432
3639.56212,0.00424
3638.59774,0.00407
3637.63336,0.00423
3636.66899,0.00451
3635.70461,0.00444
3634.74023,0.00442
3633.77585,0.00409
3632.81147,0.00424
3631.84710,0.00451
3630.88272,0.00440
3629.91834,0.00496
3628.95396,0.00513
3627.98959,0.00467
3627.02521,0.00431
3626.06083,0.00424
3625.09645,0.00470
3624.13207,0.00504
3623.16770,0.00488
3622.20332,0.00450
3621.23894,0.00420
3620.27456,0.00411
3619.31018,0.00427
3618.34581,0.00449
3617.38143,0.00443
3616.41705,0.00416
3615.45267,0.00401
3614.48829,0.00425
3613.52392,0.00463
3612.55954,0.00486
3611.59516,0.00488
3610.63078,0.00480
3609.66641,0.00460
3608.70203,0.00450
3607.73765,0.00505
3606.77327,0.00495
3605.80889,0.00430
3604.84452,0.00463
3603.88014,0.00510
3602.91576,0.00520
3601.95138,0.00498
3600.98700,0.00452
3600.02263,0.00453
3599.05825,0.00467
3598.09387,0.00445
3597.12949,0.00402
3596.16512,0.00401
3595.20074,0.00433
3594.23636,0.00444
3593.27198,0.00464
3592.30760,0.00465
3591.34323,0.00431
3590.37885,0.00435
3589.41447,0.00498
3588.45009,0.00540
3587.48571,0.00516
3586.52134,0.00499
3585.55696,0.00502
3584.59258,0.00487
3583.62820,0.00470
3582.66382,0.00468
3581.69945,0.00475
3580.73507,0.00470
3579.77069,0.00484
3578.80631,0.00505
3577.84194,0.00507
3576.87756,0.00516
3575.91318,0.00507
3574.94880,0.00509
3573.98442,0.00544
3573.02005,0.00546
3572.05567,0.00540
3571.09129,0.00555
3570.12691,0.00555
3569.16253,0.00550
3568.19816,0.00533
3567.23378,0.00491
3566.26940,0.00464
3565.30502,0.00437
3564.34065,0.00433
3563.37627,0.00460
3562.41189,0.00471
3561.44751,0.00498
3560.48313,0.00514
3559.51876,0.00519
3558.55438,0.00539
3557.59000,0.00537
3556.62562,0.00528
3555.66124,0.00517
3554.69687,0.00516
3553.73249,0.00520
3552.76811,0.00522
3551.80373,0.00517
3550.83935,0.00479
3549.87498,0.00470
3548.91060,0.00493
3547.94622,0.00517
3546.98184,0.00533
3546.01747,0.00512
3545.05309,0.00522
3544.08871,0.00545
3543.12433,0.00535
3542.15995,0.00552
3541.19558,0.00556
3540.23120,0.00524
3539.26682,0.00541
3538.30244,0.00565
3537.33806,0.00535
3536.37369,0.00540
3535.40931,0.00563
3534.44493,0.00553
3533.48055,0.00535
3532.51618,0.00509
3531.55180,0.00507
3530.58742,0.00514
3529.62304,0.00524
3528.65866,0.00550
3527.69429,0.00524
3526.72991,0.00502
3525.76553,0.00538
3524.80115,0.00581
3523.83677,0.00596
3522.87240,0.00579
3521.90802,0.00571
3520.94364,0.00588
3519.97926,0.00576
3519.01488,0.00522
3518.05051,0.00504
3517.08613,0.00541
3516.12175,0.00572
3515.15737,0.00592
3514.19300,0.00592
3513.22862,0.00565
3512.26424,0.00554
3511.29986,0.00573
3510.33548,0.00575
3509.37111,0.00544
3508.40673,0.00558
3507.44235,0.00586
3506.47797,0.00586
3505.51359,0.00600
3504.54922,0.00591
3503.58484,0.00577
3502.62046,0.00592
3501.65608,0.00602
3500.69171,0.00610
3499.72733,0.00605
3498.76295,0.00581
3497.79857,0.00575
3496.83419,0.00592
3495.86982,0.00602
3494.90544,0.00581
3493.94106,0.00561
3492.97668,0.00591
3492.01230,0.00616
3491.04793,0.00616
3490.08355,0.00620
3489.11917,0.00581
3488.15479,0.00561
3487.19041,0.00605
3486.22604,0.00616
3485.26166,0.00616
3484.29728,0.00612
3483.33290,0.00596
3482.36853,0.00619
3481.40415,0.00644
3480.43977,0.00629
3479.47539,0.00597
3478.51101,0.00586
3477.54664,0.00609
3476.58226,0.00642
3475.61788,0.00630
3474.65350,0.00602
3473.68912,0.00601
3472.72475,0.00588
3471.76037,0.00577
3470.79599,0.00580
3469.83161,0.00595
3468.86724,0.00634
3467.90286,0.00642
3466.93848,0.00624
3465.97410,0.00611
3465.00972,0.00604
3464.04535,0.00631
3463.08097,0.00663
3462.11659,0.00648
3461.15221,0.00613
3460.18783,0.00614
3459.22346,0.00667
3458.25908,0.00717
3457.29470,0.00706
3456.33032,0.00673
3455.36594,0.00662
3454.40157,0.00655
3453.43719,0.00652
3452.47281,0.00665
3451.50843,0.00689
3450.54406,0.00691
3449.57968,0.00674
3448.61530,0.00671
3447.65092,0.00668
3446.68654,0.00663
3445.72217,0.00683
3444.75779,0.00687
3443.79341,0.00638
3442.82903,0.00600
3441.86465,0.00608
3440.90028,0.00632
3439.93590,0.00667
3438.97152,0.00679
3438.00714,0.00649
3437.04276,0.00634
3436.07839,0.00656
3435.11401,0.00663
3434.14963,0.00661
3433.18525,0.00673
3432.22088,0.00671
3431.25650,0.00660
3430.29212,0.00650
3429.32774,0.00650
3428.36336,0.00653
3427.39899,0.00653
3426.43461,0.00665
3425.47023,0.00676
3424.50585,0.00686
3423.54147,0.00691
3422.57710,0.00686
3421.61272,0.00701
3420.64834,0.00695
3419.68396,0.00653
3418.71959,0.00671
3417.75521,0.00728
3416.79083,0.00733
3415.82645,0.00734
3414.86207,0.00735
3413.89770,0.00701
3412.93332,0.00698
3411.96894,0.00698
3411.00456,0.00677
3410.04018,0.00684
3409.07581,0.00680
3408.11143,0.00684
3407.14705,0.00717
3406.18267,0.00721
3405.21829,0.00718
3404.25392,0.00720
3403.28954,0.00715
3402.32516,0.00713
3401.36078,0.00711
3400.39641,0.00697
3399.43203,0.00682
3398.46765,0.00713
3397.50327,0.00734
3396.53889,0.00695
3395.57452,0.00686
3394.61014,0.00714
3393.64576,0.00712
3392.68138,0.00688
3391.71700,0.00677
3390.75263,0.00689
3389.78825,0.00702
3388.82387,0.00701
3387.85949,0.00703
3386.89512,0.00707
3385.93074,0.00693
3384.96636,0.00683
3384.00198,0.00677
3383.03760,0.00695
3382.07323,0.00725
3381.10885,0.00718
3380.14447,0.00719
3379.18009,0.00728
3378.21571,0.00724
3377.25134,0.00731
3376.28696,0.00726
3375.32258,0.00723
3374.35820,0.00738
3373.39382,0.00743
3372.42945,0.00725
3371.46507,0.00698
3370.50069,0.00687
3369.53631,0.00685
3368.57194,0.00689
3367.60756,0.00694
3366.64318,0.00704
3365.67880,0.00729
3364.71442,0.00722
3363.75005,0.00699
3362.78567,0.00706
3361.82129,0.00716
3360.85691,0.00719
3359.89253,0.00722
3358.92816,0.00724
3357.96378,0.00726
3356.99940,0.00715
3356.03502,0.00699
3355.07065,0.00691
3354.10627,0.00692
3353.14189,0.00698
3352.17751,0.00704
3351.21313,0.00715
3350.24876,0.00720
3349.28438,0.00701
3348.32000,0.00686
3347.35562,0.00729
3346.39124,0.00779
3345.42687,0.00757
3344.46249,0.00715
3343.49811,0.00716
3342.53373,0.00739
3341.56935,0.00744
3340.60498,0.00744
3339.64060,0.00733
3338.67622,0.00719
3337.71184,0.00728
3336.74747,0.00710
3335.78309,0.00663
3334.81871,0.00632
3333.85433,0.00653
3332.88995,0.00695
3331.92558,0.00685
3330.96120,0.00689
3329.99682,0.00724
3329.03244,0.00739
3328.06806,0.00746
3327.10369,0.00731
3326.13931,0.00701
3325.17493,0.00689
3324.21055,0.00712
3323.24618,0.00738
3322.28180,0.00744
3321.31742,0.00731
3320.35304,0.00711
3319.38866,0.00731
3318.42429,0.00741
3317.45991,0.00690
3316.49553,0.00670
3315.53115,0.00711
3314.56677,0.00739
3313.60240,0.00733
3312.63802,0.00705
3311.67364,0.00672
3310.70926,0.00699
3309.74488,0.00742
3308.78051,0.00723
3307.81613,0.00716
3306.85175,0.00743
3305.88737,0.00750
3304.92300,0.00743
3303.95862,0.00732
3302.99424,0.00740
3302.02986,0.00760
3301.06548,0.00749
3300.10111,0.00729
3299.13673,0.00730
3298.17235,0.00731
3297.20797,0.00735
3296.24359,0.00762
3295.27922,0.00754
3294.31484,0.00711
3293.35046,0.00713
3292.38608,0.00724
3291.42171,0.00727
3290.45733,0.00725
3289.49295,0.00688
3288.52857,0.00689
3287.56419,0.00718
3286.59982,0.00718
3285.63544,0.00719
3284.67106,0.00728
3283.70668,0.00714
3282.74230,0.00695
3281.77793,0.00702
3280.81355,0.00701
3279.84917,0.00701
3278.88479,0.00709
3277.92041,0.00710
3276.95604,0.00717
3275.99166,0.00717
3275.02728,0.00721
3274.06290,0.00732
3273.09853,0.00741
3272.13415,0.00721
3271.16977,0.00687
3270.20539,0.00695
3269.24101,0.00685
3268.27664,0.00672
3267.31226,0.00699
3266.34788,0.00709
3265.38350,0.00713
3264.41912,0.00721
3263.45475,0.00725
3262.49037,0.00740
3261.52599,0.00755
3260.56161,0.00718
3259.59724,0.00659
3258.63286,0.00684
3257.66848,0.00709
3256.70410,0.00693
3255.73972,0.00718
3254.77535,0.00722
3253.81097,0.00697
3252.84659,0.00678
3251.88221,0.00651
3250.91783,0.00640
3249.95346,0.00647
3248.98908,0.00675
3248.02470,0.00696
3247.06032,0.00707
3246.09594,0.00735
3245.13157,0.00711
3244.16719,0.00679
3243.20281,0.00700
3242.23843,0.00698
3241.27406,0.00683
3240.30968,0.00670
3239.34530,0.00654
3238.38092,0.00646
3237.41654,0.00618
3236.45217,0.00631
3235.48779,0.00677
3234.52341,0.00681
3233.55903,0.00682
3232.59465,0.00701
3231.63028,0.00705
3230.66590,0.00676
3229.70152,0.00657
3228.73714,0.00660
3227.77276,0.00662
3226.80839,0.00672
3225.84401,0.00679
3224.87963,0.00697
3223.91525,0.00678
3222.95088,0.00641
3221.98650,0.00669
3221.02212,0.00681
3220.05774,0.00672
3219.09336,0.00679
3218.12899,0.00674
3217.16461,0.00667
3216.20023,0.00664
3215.23585,0.00669
3214.27147,0.00668
3213.30710,0.00689
3212.34272,0.00718
3211.37834,0.00693
3210.41396,0.00668
3209.44959,0.00695
3208.48521,0.00713
3207.52083,0.00675
3206.55645,0.00636
3205.59207,0.00647
3204.62770,0.00677
3203.66332,0.00696
3202.69894,0.00701
3201.73456,0.00710
3200.77018,0.00694
3199.80581,0.00661
3198.84143,0.00652
3197.87705,0.00650
3196.91267,0.00644
3195.94829,0.00644
3194.98392,0.00661
3194.01954,0.00671
3193.05516,0.00675
3192.09078,0.00695
3191.12641,0.00702
3190.16203,0.00690
3189.19765,0.00678
3188.23327,0.00666
3187.26889,0.00670
3186.30452,0.00689
3185.34014,0.00669
3184.37576,0.00645
3183.41138,0.00653
3182.44700,0.00664
3181.48263,0.00698
3180.51825,0.00711
3179.55387,0.00688
3178.58949,0.00685
3177.62512,0.00675
3176.66074,0.00663
3175.69636,0.00661
3174.73198,0.00651
3173.76760,0.00639
3172.80323,0.00664
3171.83885,0.00690
3170.87447,0.00664
3169.91009,0.00655
3168.94571,0.00645
3167.98134,0.00617
3167.01696,0.00629
3166.05258,0.00650
3165.08820,0.00650
3164.12382,0.00627
3163.15945,0.00620
3162.19507,0.00631
3161.23069,0.00627
3160.26631,0.00626
3159.30194,0.00619
3158.33756,0.00609
3157.37318,0.00598
3156.40880,0.00611
3155.44442,0.00652
3154.48005,0.00644
3153.51567,0.00630
3152.55129,0.00646
3151.58691,0.00660
3150.62253,0.00654
3149.65816,0.00614
3148.69378,0.00589
3147.72940,0.00588
3146.76502,0.00612
3145.80065,0.00660
3144.83627,0.00667
3143.87189,0.00648
3142.90751,0.00627
3141.94313,0.00612
3140.97876,0.00622
3140.01438,0.00636
3139.05000,0.00641
3138.08562,0.00641
3137.12124,0.00628
3136.15687,0.00617
3135.19249,0.00609
3134.22811,0.00596
3133.26373,0.00611
3132.29935,0.00646
3131.33498,0.00647
3130.37060,0.00635
3129.40622,0.00638
3128.44184,0.00623
3127.47747,0.00598
3126.51309,0.00605
3125.54871,0.00611
3124.58433,0.00606
3123.61995,0.00615
3122.65558,0.00613
3121.69120,0.00598
3120.72682,0.00595
3119.76244,0.00617
3118.79806,0.00628
3117.83369,0.00612
3116.86931,0.00592
3115.90493,0.00578
3114.94055,0.00577
3113.97618,0.00580
3113.01180,0.00603
3112.04742,0.00619
3111.08304,0.00615
3110.11866,0.00614
3109.15429,0.00598
3108.18991,0.00611
3107.22553,0.00632
3106.26115,0.00621
3105.29677,0.00609
3104.33240,0.00602
3103.36802,0.00613
3102.40364,0.00607
3101.43926,0.00586
3100.47488,0.00585
3099.51051,0.00612
3098.54613,0.00628
3097.58175,0.00607
3096.61737,0.00627
3095.65300,0.00630
3094.68862,0.00613
3093.72424,0.00618
3092.75986,0.00595
3091.79548,0.00620
3090.83111,0.00640
3089.86673,0.00609
3088.90235,0.00607
3087.93797,0.00606
3086.97359,0.00604
3086.00922,0.00616
3085.04484,0.00631
3084.08046,0.00614
3083.11608,0.00590
3082.15171,0.00607
3081.18733,0.00623
3080.22295,0.00624
3079.25857,0.00614
3078.29419,0.00601
3077.32982,0.00593
3076.36544,0.00595
3075.40106,0.00616
3074.43668,0.00626
3073.47230,0.00634
3072.50793,0.00633
3071.54355,0.00604
3070.57917,0.00588
3069.61479,0.00590
3068.65041,0.00597
3067.68604,0.00597
3066.72166,0.00587
3065.75728,0.00591
3064.79290,0.00602
3063.82853,0.00595
3062.86415,0.00587
3061.89977,0.00595
3060.93539,0.00608
3059.97101,0.00631
3059.00664,0.00629
3058.04226,0.00592
3057.07788,0.00583
3056.11350,0.00590
3055.14912,0.00580
3054.18475,0.00585
3053.22037,0.00608
3052.25599,0.00625
3051.29161,0.00619
3050.32724,0.00586
3049.36286,0.00567
3048.39848,0.00580
3047.43410,0.00591
3046.46972,0.00590
3045.50535,0.00581
3044.54097,0.00572
3043.57659,0.00564
3042.61221,0.00574
3041.64783,0.00601
3040.68346,0.00606
3039.71908,0.00609
3038.75470,0.00614
3037.79032,0.00587
3036.82594,0.00559
3035.86157,0.00563
3034.89719,0.00581
3033.93281,0.00587
3032.96843,0.00593
3032.00406,0.00596
3031.03968,0.00572
3030.07530,0.00554
3029.11092,0.00567
3028.14654,0.00573
3027.18217,0.00563
3026.21779,0.00570
3025.25341,0.00568
3024.28903,0.00545
3023.32465,0.00548
3022.36028,0.00573
3021.39590,0.00592
3020.43152,0.00585
3019.46714,0.00562
3018.50276,0.00546
3017.53839,0.00544
3016.57401,0.00566
3015.60963,0.00574
3014.64525,0.00553
3013.68088,0.00548
3012.71650,0.00560
3011.75212,0.00557
3010.78774,0.00544
3009.82336,0.00558
3008.85899,0.00584
3007.89461,0.00586
3006.93023,0.00565
3005.96585,0.00555
3005.00147,0.00569
3004.03710,0.00571
3003.07272,0.00550
3002.10834,0.00534
3001.14396,0.00538
3000.17959,0.00555
2999.21521,0.00580
2998.25083,0.00581
2997.28645,0.00554
2996.32207,0.00552
2995.35770,0.00550
2994.39332,0.00532
2993.42894,0.00544
2992.46456,0.00556
2991.50018,0.00552
2990.53581,0.00552
2989.57143,0.00558
2988.60705,0.00570
2987.64267,0.00564
2986.67829,0.00558
2985.71392,0.00564
2984.74954,0.00561
2983.78516,0.00577
2982.82078,0.00574
2981.85641,0.00548
2980.89203,0.00565
2979.92765,0.00572
2978.96327,0.00569
2977.99889,0.00583
2977.03452,0.00587
2976.07014,0.00573
2975.10576,0.00548
2974.14138,0.00553
2973.17700,0.00556
2972.21263,0.00548
2971.24825,0.00553
2970.28387,0.00563
2969.31949,0.00585
2968.35512,0.00592
2967.39074,0.00581
2966.42636,0.00567
2965.46198,0.00568
2964.49760,0.00582
2963.53323,0.00574
2962.56885,0.00574
2961.60447,0.00581
2960.64009,0.00573
2959.67571,0.00565
2958.71134,0.00563
2957.74696,0.00563
2956.78258,0.00556
2955.81820,0.00551
2954.85382,0.00554
2953.88945,0.00548
2952.92507,0.00531
2951.96069,0.00530
2950.99631,0.00547
2950.03194,0.00563
2949.06756,0.00578
2948.10318,0.00573
2947.13880,0.00551
2946.17442,0.00542
2945.21005,0.00561
2944.24567,0.00574
2943.28129,0.00569
2942.31691,0.00570
2941.35253,0.00556
2940.38816,0.00557
2939.42378,0.00581
2938.45940,0.00606
2937.49502,0.00624
2936.53065,0.00618
2935.56627,0.00620
2934.60189,0.00619
2933.63751,0.00597
2932.67313,0.00588
2931.70876,0.00602
2930.74438,0.00617
2929.78000,0.00603
2928.81562,0.00577
2927.85124,0.00578
2926.88687,0.00609
2925.92249,0.00624
2924.95811,0.00608
2923.99373,0.00599
2923.02935,0.00610
2922.06498,0.00620
2921.10060,0.00615
2920.13622,0.00610
2919.17184,0.00607
2918.20747,0.00593
2917.24309,0.00590
2916.27871,0.00592
2915.31433,0.00579
2914.34995,0.00568
2913.38558,0.00570
2912.42120,0.00576
2911.45682,0.00578
2910.49244,0.00566
2909.52806,0.00544
2908.56369,0.00535
2907.59931,0.00536
2906.63493,0.00539
2905.67055,0.00545
2904.70618,0.00547
2903.74180,0.00552
2902.77742,0.00553
2901.81304,0.00545
2900.84866,0.00536
2899.88429,0.00525
2898.91991,0.00519
2897.95553,0.00531
2896.99115,0.00551
2896.02677,0.00562
2895.06240,0.00555
2894.09802,0.00544
2893.13364,0.00536
2892.16926,0.00533
2891.20488,0.00543
2890.24051,0.00538
2889.27613,0.00525
2888.31175,0.00522
2887.34737,0.00521
2886.38300,0.00529
2885.41862,0.00533
2884.45424,0.00527
2883.48986,0.00527
2882.52548,0.00531
2881.56111,0.00528
2880.59673,0.00511
2879.63235,0.00516
2878.66797,0.00535
2877.70359,0.00538
2876.73922,0.00532
2875.77484,0.00521
2874.81046,0.00523
2873.84608,0.00539
2872.88171,0.00546
2871.91733,0.00531
2870.95295,0.00512
2869.98857,0.00515
2869.02419,0.00526
2868.05982,0.00538
2867.09544,0.00553
2866.13106,0.00560
2865.16668,0.00558
2864.20230,0.00551
2863.23793,0.00543
2862.27355,0.00528
2861.30917,0.00519
2860.34479,0.00529
2859.38041,0.00539
2858.41604,0.00542
2857.45166,0.00546
2856.48728,0.00551
2855.52290,0.00557
2854.55853,0.00565
2853.59415,0.00570
2852.62977,0.00574
2851.66539,0.00569
2850.70101,0.00554
2849.73664,0.00553
2848.77226,0.00576
2847.80788,0.00567
2846.84350,0.00519
2845.87912,0.00500
2844.91475,0.00517
2843.95037,0.00533
2842.98599,0.00528
2842.02161,0.00514
2841.05724,0.00514
2840.09286,0.00516
2839.12848,0.00513
2838.16410,0.00514
2837.19972,0.00511
2836.23535,0.00500
2835.27097,0.00502
2834.30659,0.00511
2833.34221,0.00500
2832.37783,0.00495
2831.41346,0.00499
2830.44908,0.00496
2829.48470,0.00510
2828.52032,0.00525
2827.55594,0.00523
2826.59157,0.00514
2825.62719,0.00500
2824.66281,0.00480
2823.69843,0.00466
2822.73406,0.00469
2821.76968,0.00481
2820.80530,0.00493
2819.84092,0.00493
2818.87654,0.00484
2817.91217,0.00474
2816.94779,0.00467
2815.98341,0.00471
2815.01903,0.00477
2814.05465,0.00479
2813.09028,0.00479
2812.12590,0.00477
2811.16152,0.00474
2810.19714,0.00462
2809.23276,0.00464
2808.26839,0.00486
2807.30401,0.00492
2806.33963,0.00485
2805.37525,0.00482
2804.41088,0.00477
2803.44650,0.00471
2802.48212,0.00465
2801.51774,0.00467
2800.55336,0.00475
2799.58899,0.00481
2798.62461,0.00480
2797.66023,0.00477
2796.69585,0.00476
2795.73147,0.00482
2794.76710,0.00492
2793.80272,0.00491
2792.83834,0.00479
2791.87396,0.00474
2790.90959,0.00484
2789.94521,0.00492
2788.98083,0.00482
2788.01645,0.00477
2787.05207,0.00488
2786.08770,0.00487
2785.12332,0.00470
2784.15894,0.00461
2783.19456,0.00463
2782.23018,0.00475
2781.26581,0.00479
2780.30143,0.00472
2779.33705,0.00470
2778.37267,0.00471
2777.40829,0.00475
2776.44392,0.00469
2775.47954,0.00449
2774.51516,0.00435
2773.55078,0.00439
2772.58641,0.00445
2771.62203,0.00440
2770.65765,0.00450
2769.69327,0.00467
2768.72889,0.00465
2767.76452,0.00457
2766.80014,0.00450
2765.83576,0.00448
2764.87138,0.00455
2763.90700,0.00465
2762.94263,0.00468
2761.97825,0.00453
2761.01387,0.00443
2760.04949,0.00445
2759.08512,0.00451
2758.12074,0.00456
2757.15636,0.00459
2756.19198,0.00453
2755.22760,0.00454
2754.26323,0.00461
2753.29885,0.00461
2752.33447,0.00467
2751.37009,0.00452
2750.40571,0.00429
2749.44134,0.00444
2748.47696,0.00458
2747.51258,0.00450
2746.54820,0.00443
2745.58382,0.00451
2744.61945,0.00456
2743.65507,0.00451
2742.69069,0.00451
2741.72631,0.00445
2740.76194,0.00438
2739.79756,0.00440
2738.83318,0.00444
2737.86880,0.00437
2736.90442,0.00426
2735.94005,0.00423
2734.97567,0.00422
2734.01129,0.00418
2733.04691,0.00421
2732.08253,0.00439
2731.11816,0.00454
2730.15378,0.00453
2729.18940,0.00439
2728.22502,0.00423
2727.26065,0.00424
2726.29627,0.00429
2725.33189,0.00426
2724.36751,0.00412
2723.40313,0.00399
2722.43876,0.00409
2721.47438,0.00425
2720.51000,0.00430
2719.54562,0.00426
2718.58124,0.00427
2717.61687,0.00434
2716.65249,0.00437
2715.68811,0.00441
2714.72373,0.00446
2713.75935,0.00453
2712.79498,0.00444
2711.83060,0.00422
2710.86622,0.00413
2709.90184,0.00415
2708.93747,0.00411
2707.97309,0.00400
2707.00871,0.00409
2706.04433,0.00420
2705.07995,0.00420
2704.11558,0.00412
2703.15120,0.00403
2702.18682,0.00406
2701.22244,0.00414
2700.25806,0.00434
2699.29369,0.00430
2698.32931,0.00411
2697.36493,0.00433
2696.40055,0.00450
2695.43618,0.00434
2694.47180,0.00429
2693.50742,0.00439
2692.54304,0.00439
2691.57866,0.00430
2690.61429,0.00430
2689.64991,0.00434
2688.68553,0.00434
2687.72115,0.00426
2686.75677,0.00418
2685.79240,0.00413
2684.82802,0.00416
2683.86364,0.00433
2682.89926,0.00432
2681.93488,0.00419
2680.97051,0.00406
2680.00613,0.00413
2679.04175,0.00429
2678.07737,0.00420
2677.11300,0.00408
2676.14862,0.00413
2675.18424,0.00425
2674.21986,0.00434
2673.25548,0.00434
2672.29111,0.00433
2671.32673,0.00428
2670.36235,0.00423
2669.39797,0.00419
2668.43359,0.00415
2667.46922,0.00403
2666.50484,0.00391
2665.54046,0.00398
2664.57608,0.00408
2663.61171,0.00418
2662.64733,0.00420
2661.68295,0.00411
2660.71857,0.00412
2659.75419,0.00411
2658.78982,0.00393
2657.82544,0.00388
2656.86106,0.00405
2655.89668,0.00413
2654.93230,0.00408
2653.96793,0.00411
2653.00355,0.00416
2652.03917,0.00411
2651.07479,0.00398
2650.11041,0.00395
2649.14604,0.00404
2648.18166,0.00401
2647.21728,0.00394
2646.25290,0.00391
2645.28853,0.00394
2644.32415,0.00399
2643.35977,0.00393
2642.39539,0.00386
2641.43101,0.00376
2640.46664,0.00372
2639.50226,0.00397
2638.53788,0.00417
2637.57350,0.00409
2636.60912,0.00408
2635.64475,0.00406
2634.68037,0.00393
2633.71599,0.00390
2632.75161,0.00392
2631.78724,0.00378
2630.82286,0.00367
2629.85848,0.00372
2628.89410,0.00367
2627.92972,0.00368
2626.96535,0.00383
2626.00097,0.00396
2625.03659,0.00405
2624.07221,0.00392
2623.10783,0.00379
2622.14346,0.00393
2621.17908,0.00400
2620.21470,0.00380
2619.25032,0.00374
2618.28594,0.00379
2617.32157,0.00380
2616.35719,0.00387
2615.39281,0.00385
2614.42843,0.00385
2613.46406,0.00387
2612.49968,0.00386
2611.53530,0.00391
2610.57092,0.00374
2609.60654,0.00357
2608.64217,0.00363
2607.67779,0.00375
2606.71341,0.00389
2605.74903,0.00380
2604.78465,0.00358
2603.82028,0.00359
2602.85590,0.00384
2601.89152,0.00393
2600.92714,0.00390
2599.96276,0.00413
2598.99839,0.00417
2598.03401,0.00412
2597.06963,0.00395
2596.10525,0.00362
2595.14088,0.00375
2594.17650,0.00380
2593.21212,0.00362
2592.24774,0.00346
2591.28336,0.00324
2590.31899,0.00336
2589.35461,0.00348
2588.39023,0.00352
2587.42585,0.00374
2586.46147,0.00362
2585.49710,0.00338
2584.53272,0.00356
2583.56834,0.00382
2582.60396,0.00376
2581.63959,0.00365
2580.67521,0.00366
2579.71083,0.00371
2578.74645,0.00373
2577.78207,0.00357
2576.81770,0.00355
2575.85332,0.00391
2574.88894,0.00398
2573.92456,0.00353
2572.96018,0.00336
2571.99581,0.00359
2571.03143,0.00363
2570.06705,0.00353
2569.10267,0.00365
2568.13829,0.00384
2567.17392,0.00381
2566.20954,0.00387
2565.24516,0.00410
2564.28078,0.00404
2563.31641,0.00368
2562.35203,0.00329
2561.38765,0.00309
2560.42327,0.00333
2559.45889,0.00369
2558.49452,0.00361
2557.53014,0.00350
2556.56576,0.00364
2555.60138,0.00375
2554.63700,0.00373
2553.67263,0.00375
2552.70825,0.00360
2551.74387,0.00322
2550.77949,0.00324
2549.81512,0.00346
2548.85074,0.00354
2547.88636,0.00368
2546.92198,0.00350
2545.95760,0.00329
2544.99323,0.00315
2544.02885,0.00317
2543.06447,0.00363
2542.10009,0.00375
2541.13571,0.00351
2540.17134,0.00349
2539.20696,0.00371
2538.24258,0.00376
2537.27820,0.00350
2536.31382,0.00339
2535.34945,0.00354
2534.38507,0.00372
2533.42069,0.00361
2532.45631,0.00329
2531.49194,0.00305
2530.52756,0.00313
2529.56318,0.00349
2528.59880,0.00374
2527.63442,0.00372
2526.67005,0.00364
2525.70567,0.00385
2524.74129,0.00365
2523.77691,0.00306
2522.81253,0.00321
2521.84816,0.00332
2520.88378,0.00310
2519.91940,0.00312
2518.95502,0.00312
2517.99065,0.00309
2517.02627,0.00315
2516.06189,0.00352
2515.09751,0.00394
2514.13313,0.00385
2513.16876,0.00375
2512.20438,0.00398
2511.24000,0.00385
2510.27562,0.00353
2509.31124,0.00341
2508.34687,0.00330
2507.38249,0.00356
2506.41811,0.00375
2505.45373,0.00371
2504.48935,0.00375
2503.52498,0.00331
2502.56060,0.00288
2501.59622,0.00284
2500.63184,0.00289
2499.66747,0.00303
2498.70309,0.00319
2497.73871,0.00351
2496.77433,0.00376
2495.80995,0.00376
2494.84558,0.00380
2493.88120,0.00396
2492.91682,0.00413
2491.95244,0.00386
2490.98806,0.00347
2490.02369,0.00364
2489.05931,0.00392
2488.09493,0.00381
2487.13055,0.00334
2486.16618,0.00302
2485.20180,0.00308
2484.23742,0.00315
2483.27304,0.00319
2482.30866,0.00327
2481.34429,0.00341
2480.37991,0.00330
2479.41553,0.00308
2478.45115,0.00340
2477.48677,0.00359
2476.52240,0.00343
2475.55802,0.00337
2474.59364,0.00323
2473.62926,0.00318
2472.66488,0.00315
2471.70051,0.00321
2470.73613,0.00349
2469.77175,0.00355
2468.80737,0.00329
2467.84300,0.00317
2466.87862,0.00343
2465.91424,0.00361
2464.94986,0.00362
2463.98548,0.00363
2463.02111,0.00383
2462.05673,0.00389
2461.09235,0.00325
2460.12797,0.00281
2459.16359,0.00316
2458.19922,0.00348
2457.23484,0.00343
2456.27046,0.00322
2455.30608,0.00292
2454.34171,0.00292
2453.37733,0.00321
2452.41295,0.00338
2451.44857,0.00339
2450.48419,0.00325
2449.51982,0.00330
2448.55544,0.00343
2447.59106,0.00351
2446.62668,0.00361
2445.66230,0.00341
2444.69793,0.00327
2443.73355,0.00353
2442.76917,0.00384
2441.80479,0.00370
2440.84041,0.00334
2439.87604,0.00330
2438.91166,0.00338
2437.94728,0.00335
2436.98290,0.00327
2436.01853,0.00345
2435.05415,0.00358
2434.08977,0.00341
2433.12539,0.00328
2432.16101,0.00309
2431.19664,0.00310
2430.23226,0.00335
2429.26788,0.00344
2428.30350,0.00345
2427.33912,0.00328
2426.37475,0.00308
2425.41037,0.00321
2424.44599,0.00338
2423.48161,0.00322
2422.51724,0.00324
2421.55286,0.00335
2420.58848,0.00328
2419.62410,0.00321
2418.65972,0.00300
2417.69535,0.00304
2416.73097,0.00330
2415.76659,0.00332
2414.80221,0.00320
2413.83783,0.00305
2412.87346,0.00316
2411.90908,0.00330
2410.94470,0.00327
2409.98032,0.00317
2409.01594,0.00321
2408.05157,0.00345
2407.08719,0.00357
2406.12281,0.00370
2405.15843,0.00372
2404.19406,0.00345
2403.22968,0.00319
2402.26530,0.00305
2401.30092,0.00297
2400.33654,0.00298
2399.37217,0.00310
2398.40779,0.00325
2397.44341,0.00344
2396.47903,0.00353
2395.51465,0.00329
2394.55028,0.00296
2393.58590,0.00283
2392.62152,0.00292
2391.65714,0.00320
2390.69276,0.00342
2389.72839,0.00340
2388.76401,0.00341
2387.79963,0.00343
2386.83525,0.00326
2385.87088,0.00316
2384.90650,0.00309
2383.94212,0.00300
2382.97774,0.00312
2382.01336,0.00340
2381.04899,0.00363
2380.08461,0.00378
2379.12023,0.00399
2378.15585,0.00426
2377.19147,0.00439
2376.22710,0.00440
2375.26272,0.00474
2374.29834,0.00528
2373.33396,0.00556
2372.36959,0.00577
2371.40521,0.00596
2370.44083,0.00604
2369.47645,0.00643
2368.51207,0.00688
2367.54770,0.00695
2366.58332,0.00696
2365.61894,0.00706
2364.65456,0.00722
2363.69018,0.00741
2362.72581,0.00735
2361.76143,0.00729
2360.79705,0.00724
2359.83267,0.00717
2358.86829,0.00725
2357.90392,0.00713
2356.93954,0.00683
2355.97516,0.00665
2355.01078,0.00657
2354.04641,0.00637
2353.08203,0.00605
2352.11765,0.00565
2351.15327,0.00501
2350.18889,0.00432
2349.22452,0.00398
2348.26014,0.00420
2347.29576,0.00478
2346.33138,0.00533
2345.36700,0.00574
2344.40263,0.00609
2343.43825,0.00636
2342.47387,0.00638
2341.50949,0.00621
2340.54512,0.00619
2339.58074,0.00638
2338.61636,0.00641
2337.65198,0.00634
2336.68760,0.00639
2335.72323,0.00627
2334.75885,0.00595
2333.79447,0.00578
2332.83009,0.00590
2331.86571,0.00595
2330.90134,0.00590
2329.93696,0.00592
2328.97258,0.00584
2328.00820,0.00588
2327.04382,0.00583
2326.07945,0.00562
2325.11507,0.00568
2324.15069,0.00564
2323.18631,0.00545
2322.22194,0.00536
2321.25756,0.00505
2320.29318,0.00479
2319.32880,0.00464
2318.36442,0.00443
2317.40005,0.00440
2316.43567,0.00431
2315.47129,0.00411
2314.50691,0.00418
2313.54253,0.00429
2312.57816,0.00403
2311.61378,0.00362
2310.64940,0.00358
2309.68502,0.00364
2308.72065,0.00357
2307.75627,0.00378
2306.79189,0.00366
2305.82751,0.00315
2304.86313,0.00318
2303.89876,0.00325
2302.93438,0.00290
2301.97000,0.00286
2301.00562,0.00304
2300.04124,0.00298
2299.07687,0.00280
2298.11249,0.00259
2297.14811,0.00263
2296.18373,0.00292
2295.21935,0.00322
2294.25498,0.00326
2293.29060,0.00283
2292.32622,0.00253
2291.36184,0.00266
2290.39747,0.00306
2289.43309,0.00360
2288.46871,0.00391
2287.50433,0.00359
2286.53995,0.00293
2285.57558,0.00295
2284.61120,0.00333
2283.64682,0.00333
2282.68244,0.00326
2281.71806,0.00313
2280.75369,0.00294
2279.78931,0.00262
2278.82493,0.00233
2277.86055,0.00235
2276.89618,0.00234
2275.93180,0.00206
2274.96742,0.00197
2274.00304,0.00212
2273.03866,0.00248
2272.07429,0.00295
2271.10991,0.00306
2270.14553,0.00325
2269.18115,0.00301
2268.21677,0.00263
2267.25240,0.00293
2266.28802,0.00277
2265.32364,0.00294
2264.35926,0.00348
2263.39488,0.00279
2262.43051,0.00203
2261.46613,0.00216
2260.50175,0.00255
2259.53737,0.00314
2258.57300,0.00361
2257.60862,0.00292
2256.64424,0.00204
2255.67986,0.00223
2254.71548,0.00256
2253.75111,0.00233
2252.78673,0.00240
2251.82235,0.00289
2250.85797,0.00291
2249.89359,0.00291
2248.92922,0.00226
2247.96484,0.00159
2247.00046,0.00281
2246.03608,0.00359
2245.07171,0.00303
2244.10733,0.00249
2243.14295,0.00203
2242.17857,0.00189
2241.21419,0.00226
2240.24982,0.00282
2239.28544,0.00307
2238.32106,0.00309
2237.35668,0.00291
2236.39230,0.00319
2235.42793,0.00359
2234.46355,0.00237
2233.49917,0.00084
2232.53479,0.00101
2231.57041,0.00224
2230.60604,0.00254
2229.64166,0.00184
2228.67728,0.00211
2227.71290,0.00269
2226.74853,0.00205
2225.78415,0.00212
2224.81977,0.00276
2223.85539,0.00237
2222.89101,0.00298
2221.92664,0.00364
2220.96226,0.00322
2219.99788,0.00297
2219.03350,0.00275
2218.06912,0.00324
2217.10475,0.00246
2216.14037,0.00100
2215.17599,0.00172
2214.21161,0.00296
2213.24724,0.00303
2212.28286,0.00220
2211.31848,0.00228
2210.35410,0.00229
2209.38972,0.00202
2208.42535,0.00225
2207.46097,0.00151
2206.49659,0.00109
2205.53221,0.00034
2204.56783,0.00007
2203.60346,0.00178
2202.63908,0.00209
2201.67470,0.00040
2200.71032,-0.00072
2199.74594,0.00001
2198.78157,0.00060
2197.81719,0.00146
2196.85281,0.00323
2195.88843,0.00375
2194.92406,0.00484
2193.95968,0.00555
2192.99530,0.00441
2192.03092,0.00404
2191.06654,0.00351
2190.10217,0.00210
2189.13779,0.00211
2188.17341,0.00311
2187.20903,0.00448
2186.24465,0.00706
2185.28028,0.00600
2184.31590,0.00068
2183.35152,-0.00034
2182.38714,0.00197
2181.42276,0.00196
2180.45839,0.00102
2179.49401,-0.00018
2178.52963,0.00003
2177.56525,0.00252
2176.60088,0.00286
2175.63650,0.00156
2174.67212,0.00123
2173.70774,0.00154
2172.74336,0.00344
2171.77899,0.00347
2170.81461,0.00179
2169.85023,0.00361
2168.88585,0.00493
2167.92147,0.00237
2166.95710,0.00113
2165.99272,0.00202
2165.02834,0.00119
2164.06396,0.00173
2163.09959,0.00365
2162.13521,0.00174
2161.17083,0.00151
2160.20645,0.00428
2159.24207,0.00303
2158.27770,0.00159
2157.31332,0.00316
2156.34894,0.00380
2155.38456,0.00263
2154.42018,0.00200
2153.45581,0.00372
2152.49143,0.00566
2151.52705,0.00471
2150.56267,0.00297
2149.59829,0.00178
2148.63392,0.00056
2147.66954,0.00093
2146.70516,0.00013
2145.74078,-0.00214
2144.77641,-0.00240
2143.81203,-0.00171
2142.84765,-0.00011
2141.88327,0.00148
2140.91889,0.00197
2139.95452,0.00246
2138.99014,0.00284
2138.02576,0.00269
2137.06138,0.00114
2136.09700,0.00037
2135.13263,0.00145
2134.16825,0.00178
2133.20387,0.00182
2132.23949,0.00197
2131.27512,0.00214
2130.31074,0.00215
2129.34636,0.00172
2128.38198,0.00126
2127.41760,0.00066
2126.45323,0.00116
2125.48885,0.00218
2124.52447,0.00205
2123.56009,0.00194
2122.59571,0.00197
2121.63134,0.00211
2120.66696,0.00258
2119.70258,0.00192
2118.73820,0.00109
2117.77382,0.00151
2116.80945,0.00174
2115.84507,0.00215
2114.88069,0.00263
2113.91631,0.00206
2112.95194,0.00223
2111.98756,0.00223
2111.02318,0.00152
2110.05880,0.00185
2109.09442,0.00176
2108.13005,0.00170
2107.16567,0.00152
2106.20129,0.00031
2105.23691,0.00037
2104.27253,0.00120
2103.30816,0.00149
2102.34378,0.00164
2101.37940,0.00147
2100.41502,0.00109
2099.45065,0.00095
2098.48627,0.00116
2097.52189,0.00177
2096.55751,0.00258
2095.59313,0.00317
2094.62876,0.00366
2093.66438,0.00310
2092.70000,0.00178
2091.73562,0.00154
2090.77124,0.00153
2089.80687,0.00133
2088.84249,0.00141
2087.87811,0.00202
2086.91373,0.00283
2085.94935,0.00246
2084.98498,0.00212
2084.02060,0.00262
2083.05622,0.00228
2082.09184,0.00149
2081.12747,0.00176
2080.16309,0.00283
2079.19871,0.00357
2078.23433,0.00363
2077.26995,0.00326
2076.30558,0.00298
2075.34120,0.00243
2074.37682,0.00185
2073.41244,0.00203
2072.44806,0.00214
2071.48369,0.00287
2070.51931,0.00367
2069.55493,0.00276
2068.59055,0.00208
2067.62618,0.00301
2066.66180,0.00424
2065.69742,0.00360
2064.73304,0.00142
2063.76866,0.00056
2062.80429,0.00121
2061.83991,0.00181
2060.87553,0.00144
2059.91115,0.00136
2058.94677,0.00278
2057.98240,0.00313
2057.01802,0.00202
2056.05364,0.00152
2055.08926,0.00105
2054.12488,0.00141
2053.16051,0.00246
2052.19613,0.00198
2051.23175,0.00161
2050.26737,0.00160
2049.30300,0.00191
2048.33862,0.00369
2047.37424,0.00415
2046.40986,0.00377
2045.44548,0.00311
2044.48111,0.00210
2043.51673,0.00253
2042.55235,0.00247
2041.58797,0.00304
2040.62359,0.00392
2039.65922,0.00212
2038.69484,0.00169
2037.73046,0.00420
2036.76608,0.00599
2035.80171,0.00471
2034.83733,0.00263
2033.87295,0.00300
2032.90857,0.00285
2031.94419,0.00215
2030.97982,0.00182
2030.01544,-0.00017
2029.05106,-0.00001
2028.08668,0.00276
2027.12230,0.00439
2026.15793,0.00359
2025.19355,0.00120
2024.22917,0.00150
2023.26479,0.00378
2022.30041,0.00403
2021.33604,0.00199
2020.37166,0.00067
2019.40728,0.00244
2018.44290,0.00449
2017.47853,0.00476
2016.51415,0.00359
2015.54977,0.00341
2014.58539,0.00345
2013.62101,0.00127
2012.65664,0.00122
2011.69226,0.00272
2010.72788,0.00342
2009.76350,0.00283
2008.79912,0.00155
2007.83475,0.00318
2006.87037,0.00329
2005.90599,0.00160
2004.94161,0.00128
2003.97724,0.00012
2003.01286,-0.00055
2002.04848,-0.00086
2001.08410,-0.00003
2000.11972,0.00109
1999.15535,0.00027
1998.19097,0.00044
1997.22659,0.00096
1996.26221,0.00096
1995.29783,0.00155
1994.33346,0.00173
1993.36908,0.00081
1992.40470,-0.00117
1991.44032,-0.00109
1990.47594,-0.00022
1989.51157,-0.00075
1988.54719,0.00154
1987.58281,0.00425
1986.61843,0.00480
1985.65406,0.00443
1984.68968,0.00275
1983.72530,0.00217
1982.76092,0.00059
1981.79654,-0.00097
1980.83217,0.00098
1979.86779,0.00128
1978.90341,0.00007
1977.93903,0.00064
1976.97465,0.00111
1976.01028,0.00094
1975.04590,0.00317
1974.08152,0.00653
1973.11714,0.00612
1972.15276,0.00397
1971.18839,0.00093
1970.22401,-0.00041
1969.25963,0.00165
1968.29525,0.00128
1967.33088,0.00011
1966.36650,0.00078
1965.40212,0.00171
1964.43774,0.00260
1963.47336,0.00201
1962.50899,0.00019
1961.54461,-0.00109
1960.58023,0.00013
1959.61585,0.00278
1958.65147,0.00300
1957.68710,0.00215
1956.72272,0.00225
1955.75834,0.00192
1954.79396,0.00135
1953.82959,0.00061
1952.86521,0.00005
1951.90083,0.00102
1950.93645,0.00233
1949.97207,0.00270
1949.00770,0.00212
1948.04332,0.00187
1947.07894,0.00258
1946.11456,0.00300
1945.15018,0.00300
1944.18581,0.00289
1943.22143,0.00253
1942.25705,0.00183
1941.29267,0.00197
1940.32829,0.00287
1939.36392,0.00281
1938.39954,0.00277
1937.43516,0.00289
1936.47078,0.00251
1935.50641,0.00202
1934.54203,0.00159
1933.57765,0.00172
1932.61327,0.00210
1931.64889,0.00294
1930.68452,0.00367
1929.72014,0.00324
1928.75576,0.00259
1927.79138,0.00210
1926.82700,0.00166
1925.86263,0.00141
1924.89825,0.00146
1923.93387,0.00178
1922.96949,0.00214
1922.00512,0.00210
1921.04074,0.00162
1920.07636,0.00166
1919.11198,0.00196
1918.14760,0.00185
1917.18323,0.00198
1916.21885,0.00228
1915.25447,0.00206
1914.29009,0.00194
1913.32571,0.00241
1912.36134,0.00246
1911.39696,0.00198
1910.43258,0.00131
1909.46820,0.00092
1908.50382,0.00137
1907.53945,0.00153
1906.57507,0.00143
1905.61069,0.00169
1904.64631,0.00191
1903.68194,0.00201
1902.71756,0.00176
1901.75318,0.00158
1900.78880,0.00190
1899.82442,0.00197
1898.86005,0.00192
1897.89567,0.00214
1896.93129,0.00199
1895.96691,0.00140
1895.00253,0.00127
1894.03816,0.00169
1893.07378,0.00179
1892.10940,0.00151
1891.14502,0.00149
1890.18065,0.00171
1889.21627,0.00193
1888.25189,0.00203
1887.28751,0.00179
1886.32313,0.00173
1885.35876,0.00201
1884.39438,0.00196
1883.43000,0.00203
1882.46562,0.00239
1881.50124,0.00216
1880.53687,0.00157
1879.57249,0.00171
1878.60811,0.00222
1877.64373,0.00231
1876.67935,0.00232
1875.71498,0.00239
1874.75060,0.00242
1873.78622,0.00239
1872.82184,0.00224
1871.85747,0.00216
1870.89309,0.00204
1869.92871,0.00212
1868.96433,0.00216
1867.99995,0.00174
1867.03558,0.00178
1866.07120,0.00202
1865.10682,0.00182
1864.14244,0.00196
1863.17806,0.00212
1862.21369,0.00185
1861.24931,0.00197
1860.28493,0.00237
1859.32055,0.00219
1858.35618,0.00201
1857.39180,0.00231
1856.42742,0.00239
1855.46304,0.00206
1854.49866,0.00162
1853.53429,0.00154
1852.56991,0.00180
1851.60553,0.00189
1850.64115,0.00199
1849.67677,0.00201
1848.71240,0.00192
1847.74802,0.00214
1846.78364,0.00238
1845.81926,0.00236
1844.85488,0.00243
1843.89051,0.00248
1842.92613,0.00225
1841.96175,0.00213
1840.99737,0.00225
1840.03300,0.00238
1839.06862,0.00238
1838.10424,0.00223
1837.13986,0.00220
1836.17548,0.00227
1835.21111,0.00209
1834.24673,0.00185
1833.28235,0.00172
1832.31797,0.00176
1831.35359,0.00208
1830.38922,0.00234
1829.42484,0.00230
1828.46046,0.00212
1827.49608,0.00206
1826.53171,0.00240
1825.56733,0.00266
1824.60295,0.00240
1823.63857,0.00229
1822.67419,0.00231
1821.70982,0.00215
1820.74544,0.00227
1819.78106,0.00246
1818.81668,0.00257
1817.85230,0.00260
1816.88793,0.00241
1815.92355,0.00231
1814.95917,0.00229
1813.99479,0.00229
1813.03041,0.00245
1812.06604,0.00261
1811.10166,0.00257
1810.13728,0.00244
1809.17290,0.00245
1808.20853,0.00246
1807.24415,0.00241
1806.27977,0.00239
1805.31539,0.00244
1804.35101,0.00255
1803.38664,0.00254
1802.42226,0.00245
1801.45788,0.00247
1800.49350,0.00261
1799.52912,0.00271
1798.56475,0.00261
1797.60037,0.00246
1796.63599,0.00253
1795.67161,0.00269
1794.70724,0.00269
1793.74286,0.00267
1792.77848,0.00274
1791.81410,0.00268
1790.84972,0.00257
1789.88535,0.00255
1788.92097,0.00250
1787.95659,0.00248
1786.99221,0.00254
1786.02783,0.00258
1785.06346,0.00251
1784.09908,0.00247
1783.13470,0.00261
1782.17032,0.00270
1781.20594,0.00269
1780.24157,0.00268
1779.27719,0.00259
1778.31281,0.00261
1777.34843,0.00265
1776.38406,0.00265
1775.41968,0.00273
1774.45530,0.00286
1773.49092,0.00312
1772.52654,0.00325
1771.56217,0.00314
1770.59779,0.00285
1769.63341,0.00270
1768.66903,0.00291
1767.70465,0.00296
1766.74028,0.00295
1765.77590,0.00302
1764.81152,0.00301
1763.84714,0.00306
1762.88276,0.00313
1761.91839,0.00326
1760.95401,0.00324
1759.98963,0.00318
1759.02525,0.00328
1758.06088,0.00333
1757.09650,0.00337
1756.13212,0.00329
1755.16774,0.00328
1754.20336,0.00343
1753.23899,0.00337
1752.27461,0.00346
1751.31023,0.00363
1750.34585,0.00352
1749.38147,0.00346
1748.41710,0.00350
1747.45272,0.00358
1746.48834,0.00367
1745.52396,0.00367
1744.55959,0.00369
1743.59521,0.00375
1742.63083,0.00380
1741.66645,0.00384
1740.70207,0.00391
1739.73770,0.00394
1738.77332,0.00383
1737.80894,0.00385
1736.84456,0.00387
1735.88018,0.00390
1734.91581,0.00411
1733.95143,0.00413
1732.98705,0.00392
1732.02267,0.00370
1731.05829,0.00367
1730.09392,0.00375
1729.12954,0.00368
1728.16516,0.00366
1727.20078,0.00372
1726.23641,0.00379
1725.27203,0.00381
1724.30765,0.00379
1723.34327,0.00381
1722.37889,0.00373
1721.41452,0.00369
1720.45014,0.00376
1719.48576,0.00393
1718.52138,0.00419
1717.55700,0.00423
1716.59263,0.00399
1715.62825,0.00388
1714.66387,0.00401
1713.69949,0.00399
1712.73512,0.00391
1711.77074,0.00390
1710.80636,0.00385
1709.84198,0.00384
1708.87760,0.00372
1707.91323,0.00364
1706.94885,0.00381
1705.98447,0.00395
1705.02009,0.00382
1704.05571,0.00372
1703.09134,0.00377
1702.12696,0.00383
1701.16258,0.00414
1700.19820,0.00428
1699.23382,0.00395
1698.26945,0.00366
1697.30507,0.00369
1696.34069,0.00403
1695.37631,0.00395
1694.41194,0.00356
1693.44756,0.00347
1692.48318,0.00344
1691.51880,0.00339
1690.55442,0.00334
1689.59005,0.00335
1688.62567,0.00342
1687.66129,0.00343
1686.69691,0.00341
1685.73253,0.00369
1684.76816,0.00400
1683.80378,0.00380
1682.83940,0.00347
1681.87502,0.00330
1680.91065,0.00334
1679.94627,0.00338
1678.98189,0.00335
1678.01751,0.00330
1677.05313,0.00317
1676.08876,0.00331
1675.12438,0.00340
1674.16000,0.00323
1673.19562,0.00325
1672.23124,0.00330
1671.26687,0.00324
1670.30249,0.00324
1669.33811,0.00335
1668.37373,0.00331
1667.40935,0.00317
1666.44498,0.00318
1665.48060,0.00318
1664.51622,0.00316
1663.55184,0.00325
1662.58747,0.00332
1661.62309,0.00316
1660.65871,0.00311
1659.69433,0.00322
1658.72995,0.00321
1657.76558,0.00318
1656.80120,0.00312
1655.83682,0.00318
1654.87244,0.00333
1653.90806,0.00366
1652.94369,0.00397
1651.97931,0.00364
1651.01493,0.00326
1650.05055,0.00313
1649.08618,0.00311
1648.12180,0.00316
1647.15742,0.00330
1646.19304,0.00346
1645.22866,0.00328
1644.26429,0.00310
1643.29991,0.00313
1642.33553,0.00312
1641.37115,0.00306
1640.40677,0.00302
1639.44240,0.00306
1638.47802,0.00310
1637.51364,0.00313
1636.54926,0.00327
1635.58488,0.00347
1634.62051,0.00328
1633.65613,0.00300
1632.69175,0.00303
1631.72737,0.00308
1630.76300,0.00319
1629.79862,0.00324
1628.83424,0.00322
1627.86986,0.00323
1626.90548,0.00319
1625.94111,0.00318
1624.97673,0.00320
1624.01235,0.00333
1623.04797,0.00327
1622.08359,0.00310
1621.11922,0.00310
1620.15484,0.00315
1619.19046,0.00314
1618.22608,0.00323
1617.26171,0.00361
1616.29733,0.00360
1615.33295,0.00323
1614.36857,0.00319
1613.40419,0.00326
1612.43982,0.00323
1611.47544,0.00322
1610.51106,0.00330
1609.54668,0.00334
1608.58230,0.00333
1607.61793,0.00341
1606.65355,0.00341
1605.68917,0.00342
1604.72479,0.00340
1603.76041,0.00330
1602.79604,0.00330
1601.83166,0.00335
1600.86728,0.00337
1599.90290,0.00340
1598.93853,0.00345
1597.97415,0.00350
1597.00977,0.00355
1596.04539,0.00354
1595.08101,0.00353
1594.11664,0.00350
1593.15226,0.00346
1592.18788,0.00350
1591.22350,0.00355
1590.25912,0.00358
1589.29475,0.00358
1588.33037,0.00356
1587.36599,0.00358
1586.40161,0.00360
1585.43724,0.00358
1584.47286,0.00351
1583.50848,0.00346
1582.54410,0.00346
1581.57972,0.00351
1580.61535,0.00356
1579.65097,0.00358
1578.68659,0.00354
1577.72221,0.00356
1576.75783,0.00384
1575.79346,0.00379
1574.82908,0.00343
1573.86470,0.00334
1572.90032,0.00342
1571.93594,0.00346
1570.97157,0.00345
1570.00719,0.00356
1569.04281,0.00360
1568.07843,0.00347
1567.11406,0.00337
1566.14968,0.00329
1565.18530,0.00331
1564.22092,0.00332
1563.25654,0.00325
1562.29217,0.00322
1561.32779,0.00338
1560.36341,0.00367
1559.39903,0.00382
1558.43465,0.00385
1557.47028,0.00352
1556.50590,0.00314
1555.54152,0.00320
1554.57714,0.00340
1553.61276,0.00333
1552.64839,0.00312
1551.68401,0.00306
1550.71963,0.00309
1549.75525,0.00312
1548.79088,0.00304
1547.82650,0.00292
1546.86212,0.00294
1545.89774,0.00308
1544.93336,0.00320
1543.96899,0.00314
1543.00461,0.00319
1542.04023,0.00331
1541.07585,0.00325
1540.11147,0.00342
1539.14710,0.00351
1538.18272,0.00317
1537.21834,0.00294
1536.25396,0.00294
1535.28959,0.00299
1534.32521,0.00303
1533.36083,0.00303
1532.39645,0.00293
1531.43207,0.00289
1530.46770,0.00290
1529.50332,0.00291
1528.53894,0.00295
1527.57456,0.00290
1526.61018,0.00291
1525.64581,0.00295
1524.68143,0.00282
1523.71705,0.00278
1522.75267,0.00292
1521.78829,0.00307
1520.82392,0.00300
1519.85954,0.00273
1518.89516,0.00263
1517.93078,0.00271
1516.96641,0.00275
1516.00203,0.00268
1515.03765,0.00261
1514.07327,0.00260
1513.10889,0.00267
1512.14452,0.00265
1511.18014,0.00260
1510.21576,0.00261
1509.25138,0.00262
1508.28700,0.00274
1507.32263,0.00296
1506.35825,0.00310
1505.39387,0.00299
1504.42949,0.00266
1503.46512,0.00243
1502.50074,0.00239
1501.53636,0.00246
1500.57198,0.00254
1499.60760,0.00255
1498.64323,0.00252
1497.67885,0.00256
1496.71447,0.00272
1495.75009,0.00269
1494.78571,0.00248
1493.82134,0.00242
1492.85696,0.00245
1491.89258,0.00250
1490.92820,0.00261
1489.96382,0.00260
1488.99945,0.00252
1488.03507,0.00254
1487.07069,0.00257
1486.10631,0.00249
1485.14194,0.00246
1484.17756,0.00246
1483.21318,0.00240
1482.24880,0.00244
1481.28442,0.00248
1480.32005,0.00244
1479.35567,0.00242
1478.39129,0.00246
1477.42691,0.00260
1476.46253,0.00266
1475.49816,0.00256
1474.53378,0.00257
1473.56940,0.00272
1472.60502,0.00283
1471.64065,0.00277
1470.67627,0.00263
1469.71189,0.00262
1468.74751,0.00268
1467.78313,0.00281
1466.81876,0.00290
1465.85438,0.00296
1464.89000,0.00301
1463.92562,0.00291
1462.96124,0.00283
1461.99687,0.00291
1461.03249,0.00300
1460.06811,0.00311
1459.10373,0.00314
1458.13935,0.00322
1457.17498,0.00353
1456.21060,0.00352
1455.24622,0.00324
1454.28184,0.00319
1453.31747,0.00316
1452.35309,0.00310
1451.38871,0.00310
1450.42433,0.00309
1449.45995,0.00312
1448.49558,0.00319
1447.53120,0.00329
1446.56682,0.00328
1445.60244,0.00315
1444.63806,0.00314
1443.67369,0.00319
1442.70931,0.00321
1441.74493,0.00319
1440.78055,0.00325
1439.81618,0.00328
1438.85180,0.00324
1437.88742,0.00343
1436.92304,0.00363
1435.95866,0.00348
1434.99429,0.00335
1434.02991,0.00345
1433.06553,0.00345
1432.10115,0.00339
1431.13677,0.00345
1430.17240,0.00350
1429.20802,0.00353
1428.24364,0.00347
1427.27926,0.00339
1426.31488,0.00340
1425.35051,0.00349
1424.38613,0.00354
1423.42175,0.00348
1422.45737,0.00347
1421.49300,0.00348
1420.52862,0.00360
1419.56424,0.00377
1418.59986,0.00365
1417.63548,0.00356
1416.67111,0.00353
1415.70673,0.00343
1414.74235,0.00341
1413.77797,0.00353
1412.81359,0.00365
1411.84922,0.00361
1410.88484,0.00361
1409.92046,0.00361
1408.95608,0.00351
1407.99171,0.00344
1407.02733,0.00350
1406.06295,0.00363
1405.09857,0.00369
1404.13419,0.00364
1403.16982,0.00356
1402.20544,0.00351
1401.24106,0.00350
1400.27668,0.00355
1399.31230,0.00365
1398.34793,0.00365
1397.38355,0.00361
1396.41917,0.00362
1395.45479,0.00373
1394.49041,0.00375
1393.52604,0.00357
1392.56166,0.00351
1391.59728,0.00359
1390.63290,0.00360
1389.66853,0.00356
1388.70415,0.00360
1387.73977,0.00374
1386.77539,0.00379
1385.81101,0.00371
1384.84664,0.00360
1383.88226,0.00364
1382.91788,0.00373
1381.95350,0.00371
1380.98912,0.00375
1380.02475,0.00386
1379.06037,0.00394
1378.09599,0.00392
1377.13161,0.00380
1376.16724,0.00380
1375.20286,0.00389
1374.23848,0.00395
1373.27410,0.00392
1372.30972,0.00389
1371.34535,0.00390
1370.38097,0.00395
1369.41659,0.00398
1368.45221,0.00396
1367.48783,0.00395
1366.52346,0.00395
1365.55908,0.00393
1364.59470,0.00396
1363.63032,0.00406
1362.66594,0.00415
1361.70157,0.00418
1360.73719,0.00414
1359.77281,0.00413
1358.80843,0.00413
1357.84406,0.00413
1356.87968,0.00414
1355.91530,0.00417
1354.95092,0.00424
1353.98654,0.00430
1353.02217,0.00433
1352.05779,0.00436
1351.09341,0.00436
1350.12903,0.00438
1349.16465,0.00436
1348.20028,0.00436
1347.23590,0.00438
1346.27152,0.00434
1345.30714,0.00434
1344.34276,0.00438
1343.37839,0.00447
1342.41401,0.00452
1341.44963,0.00457
1340.48525,0.00470
1339.52088,0.00472
1338.55650,0.00466
1337.59212,0.00469
1336.62774,0.00471
1335.66336,0.00470
1334.69899,0.00476
1333.73461,0.00482
1332.77023,0.00480
1331.80585,0.00486
1330.84147,0.00493
1329.87710,0.00495
1328.91272,0.00499
1327.94834,0.00501
1326.98396,0.00502
1326.01959,0.00506
1325.05521,0.00508
1324.09083,0.00510
1323.12645,0.00514
1322.16207,0.00520
1321.19770,0.00521
1320.23332,0.00523
1319.26894,0.00522
1318.30456,0.00518
1317.34018,0.00525
1316.37581,0.00536
1315.41143,0.00548
1314.44705,0.00550
1313.48267,0.00542
1312.51829,0.00543
1311.55392,0.00545
1310.58954,0.00544
1309.62516,0.00554
1308.66078,0.00564
1307.69641,0.00567
1306.73203,0.00559
1305.76765,0.00560
1304.80327,0.00570
1303.83889,0.00574
1302.87452,0.00576
1301.91014,0.00577
1300.94576,0.00584
1299.98138,0.00590
1299.01700,0.00586
1298.05263,0.00586
1297.08825,0.00586
1296.12387,0.00589
1295.15949,0.00600
1294.19512,0.00614
1293.23074,0.00623
1292.26636,0.00621
1291.30198,0.00613
1290.33760,0.00611
1289.37323,0.00619
1288.40885,0.00624
1287.44447,0.00623
1286.48009,0.00625
1285.51571,0.00622
1284.55134,0.00621
1283.58696,0.00627
1282.62258,0.00633
1281.65820,0.00640
1280.69382,0.00643
1279.72945,0.00638
1278.76507,0.00640
1277.80069,0.00642
1276.83631,0.00637
1275.87194,0.00638
1274.90756,0.00643
1273.94318,0.00648
1272.97880,0.00656
1272.01442,0.00659
1271.05005,0.00658
1270.08567,0.00660
1269.12129,0.00665
1268.15691,0.00669
1267.19253,0.00668
1266.22816,0.00675
1265.26378,0.00679
1264.29940,0.00678
1263.33502,0.00680
1262.37065,0.00680
1261.40627,0.00681
1260.44189,0.00686
1259.47751,0.00692
1258.51313,0.00694
1257.54876,0.00693
1256.58438,0.00698
1255.62000,0.00705
1254.65562,0.00710
1253.69124,0.00715
1252.72687,0.00714
1251.76249,0.00711
1250.79811,0.00716
1249.83373,0.00727
1248.86935,0.00733
1247.90498,0.00734
1246.94060,0.00740
1245.97622,0.00744
1245.01184,0.00749
1244.04747,0.00756
1243.08309,0.00757
1242.11871,0.00755
1241.15433,0.00755
1240.18995,0.00755
1239.22558,0.00756
1238.26120,0.00761
1237.29682,0.00768
1236.33244,0.00776
1235.36806,0.00780
1234.40369,0.00774
1233.43931,0.00768
1232.47493,0.00775
1231.51055,0.00784
1230.54618,0.00790
1229.58180,0.00791
1228.61742,0.00790
1227.65304,0.00794
1226.68866,0.00797
1225.72429,0.00800
1224.75991,0.00798
1223.79553,0.00798
1222.83115,0.00805
1221.86677,0.00804
1220.90240,0.00806
1219.93802,0.00811
1218.97364,0.00806
1218.00926,0.00801
1217.04488,0.00800
1216.08051,0.00800
1215.11613,0.00795
1214.15175,0.00794
1213.18737,0.00797
1212.22300,0.00804
1211.25862,0.00808
1210.29424,0.00803
1209.32986,0.00805
1208.36548,0.00809
1207.40111,0.00808
1206.43673,0.00809
1205.47235,0.00809
1204.50797,0.00809
1203.54359,0.00810
1202.57922,0.00814
1201.61484,0.00809
1200.65046,0.00804
1199.68608,0.00805
1198.72171,0.00806
1197.75733,0.00819
1196.79295,0.00823
1195.82857,0.00814
1194.86419,0.00813
1193.89982,0.00810
1192.93544,0.00810
1191.97106,0.00817
1191.00668,0.00821
1190.04230,0.00816
1189.07793,0.00813
1188.11355,0.00817
1187.14917,0.00819
1186.18479,0.00816
1185.22041,0.00817
1184.25604,0.00825
1183.29166,0.00823
1182.32728,0.00815
1181.36290,0.00810
1180.39853,0.00816
1179.43415,0.00830
1178.46977,0.00826
1177.50539,0.00820
1176.54101,0.00819
1175.57664,0.00819
1174.61226,0.00825
1173.64788,0.00818
1172.68350,0.00808
1171.71912,0.00808
1170.75475,0.00809
1169.79037,0.00813
1168.82599,0.00821
1167.86161,0.00824
1166.89724,0.00819
1165.93286,0.00814
1164.96848,0.00810
1164.00410,0.00804
1163.03972,0.00799
1162.07535,0.00797
1161.11097,0.00795
1160.14659,0.00793
1159.18221,0.00795
1158.21783,0.00786
1157.25346,0.00773
1156.28908,0.00772
1155.32470,0.00766
1154.36032,0.00751
1153.39594,0.00747
1152.43157,0.00754
1151.46719,0.00757
1150.50281,0.00751
1149.53843,0.00745
1148.57406,0.00737
1147.60968,0.00727
1146.64530,0.00728
1145.68092,0.00720
1144.71654,0.00707
1143.75217,0.00708
1142.78779,0.00706
1141.82341,0.00698
1140.85903,0.00689
1139.89465,0.00684
1138.93028,0.00682
1137.96590,0.00666
1137.00152,0.00651
1136.03714,0.00651
1135.07276,0.00641
1134.10839,0.00624
1133.14401,0.00622
1132.17963,0.00633
1131.21525,0.00634
1130.25088,0.00624
1129.28650,0.00618
1128.32212,0.00612
1127.35774,0.00599
1126.39336,0.00596
1125.42899,0.00604
1124.46461,0.00608
1123.50023,0.00605
1122.53585,0.00600
1121.57147,0.00599
1120.60710,0.00593
1119.64272,0.00586
1118.67834,0.00587
1117.71396,0.00595
1116.74959,0.00594
1115.78521,0.00575
1114.82083,0.00568
1113.85645,0.00568
1112.89207,0.00557
1111.92770,0.00557
1110.96332,0.00564
1109.99894,0.00571
1109.03456,0.00574
1108.07018,0.00568
1107.10581,0.00553
1106.14143,0.00547
1105.17705,0.00553
1104.21267,0.00551
1103.24829,0.00549
1102.28392,0.00546
1101.31954,0.00547
1100.35516,0.00550
1099.39078,0.00550
1098.42641,0.00562
1097.46203,0.00563
1096.49765,0.00552
1095.53327,0.00543
1094.56889,0.00540
1093.60452,0.00551
1092.64014,0.00554
1091.67576,0.00549
1090.71138,0.00546
1089.74700,0.00559
1088.78263,0.00573
1087.81825,0.00559
1086.85387,0.00549
1085.88949,0.00563
1084.92512,0.00577
1083.96074,0.00583
1082.99636,0.00590
1082.03198,0.00592
1081.06760,0.00584
1080.10323,0.00583
1079.13885,0.00589
1078.17447,0.00591
1077.21009,0.00592
1076.24571,0.00603
1075.28134,0.00618
1074.31696,0.00624
1073.35258,0.00628
1072.38820,0.00640
1071.42382,0.00652
1070.45945,0.00656
1069.49507,0.00668
1068.53069,0.00669
1067.56631,0.00664
1066.60194,0.00679
1065.63756,0.00684
1064.67318,0.00686
1063.70880,0.00695
1062.74442,0.00702
1061.78005,0.00709
1060.81567,0.00721
1059.85129,0.00740
1058.88691,0.00747
1057.92253,0.00753
1056.95816,0.00757
1055.99378,0.00751
1055.02940,0.00758
1054.06502,0.00765
1053.10065,0.00753
1052.13627,0.00748
1051.17189,0.00754
1050.20751,0.00753
1049.24313,0.00747
1048.27876,0.00739
1047.31438,0.00740
1046.35000,0.00755
1045.38562,0.00760
1044.42124,0.00750
1043.45687,0.00735
1042.49249,0.00726
1041.52811,0.00730
1040.56373,0.00739
1039.59935,0.00733
1038.63498,0.00720
1037.67060,0.00719
1036.70622,0.00709
1035.74184,0.00702
1034.77747,0.00701
1033.81309,0.00690
1032.84871,0.00696
1031.88433,0.00688
1030.91995,0.00666
1029.95558,0.00665
1028.99120,0.00661
1028.02682,0.00646
1027.06244,0.00631
1026.09806,0.00625
1025.13369,0.00613
1024.16931,0.00596
1023.20493,0.00602
1022.24055,0.00613
1021.27618,0.00615
1020.31180,0.00606
1019.34742,0.00588
1018.38304,0.00571
1017.41866,0.00570
1016.45429,0.00572
1015.48991,0.00559
1014.52553,0.00547
1013.56115,0.00540
1012.59677,0.00540
1011.63240,0.00549
1010.66802,0.00543
1009.70364,0.00524
1008.73926,0.00510
1007.77488,0.00504
1006.81051,0.00495
1005.84613,0.00480
1004.88175,0.00464
1003.91737,0.00457
1002.95300,0.00457
1001.98862,0.00463
1001.02424,0.00464
1000.05986,0.00455
999.09548,0.00458
998.13111,0.00453
997.16673,0.00447
996.20235,0.00448
995.23797,0.00440
994.27359,0.00438
993.30922,0.00439
992.34484,0.00435
991.38046,0.00426
990.41608,0.00414
989.45171,0.00415
988.48733,0.00413
987.52295,0.00406
986.55857,0.00410
985.59419,0.00411
984.62982,0.00405
983.66544,0.00398
982.70106,0.00395
981.73668,0.00410
980.77230,0.00430
979.80793,0.00427
978.84355,0.00408
977.87917,0.00395
976.91479,0.00393
975.95041,0.00385
974.98604,0.00383
974.02166,0.00393
973.05728,0.00392
972.09290,0.00384
971.12853,0.00379
970.16415,0.00377
969.19977,0.00375
968.23539,0.00372
967.27101,0.00364
966.30664,0.00352
965.34226,0.00352
964.37788,0.00363
963.41350,0.00368
962.44912,0.00372
961.48475,0.00374
960.52037,0.00356
959.55599,0.00339
958.59161,0.00340
957.62724,0.00346
956.66286,0.00355
955.69848,0.00346
954.73410,0.00340
953.76972,0.00342
952.80535,0.00331
951.84097,0.00336
950.87659,0.00345
949.91221,0.00353
948.94783,0.00351
947.98346,0.00343
947.01908,0.00346
946.05470,0.00338
945.09032,0.00341
944.12594,0.00348
943.16157,0.00341
942.19719,0.00336
941.23281,0.00341
940.26843,0.00359
939.30406,0.00354
938.33968,0.00335
937.37530,0.00329
936.41092,0.00325
935.44654,0.00313
934.48217,0.00304
933.51779,0.00319
932.55341,0.00326
931.58903,0.00319
930.62465,0.00324
929.66028,0.00330
928.69590,0.00336
927.73152,0.00326
926.76714,0.00298
925.80276,0.00298
924.83839,0.00319
923.87401,0.00332
922.90963,0.00349
921.94525,0.00356
920.98088,0.00334
920.01650,0.00316
919.05212,0.00322
918.08774,0.00328
917.12336,0.00316
916.15899,0.00310
915.19461,0.00331
914.23023,0.00355
913.26585,0.00355
912.30147,0.00346
911.33710,0.00339
910.37272,0.00339
909.40834,0.00352
908.44396,0.00363
907.47959,0.00367
906.51521,0.00371
905.55083,0.00393
904.58645,0.00404
903.62207,0.00374
902.65770,0.00372
901.69332,0.00382
900.72894,0.00373
899.76456,0.00377
898.80018,0.00379
897.83581,0.00402
896.87143,0.00417
895.90705,0.00407
894.94267,0.00403
893.97829,0.00407
893.01392,0.00422
892.04954,0.00420
891.08516,0.00415
890.12078,0.00418
889.15641,0.00405
888.19203,0.00404
887.22765,0.00414
886.26327,0.00418
885.29889,0.00419
884.33452,0.00431
883.37014,0.00436
882.40576,0.00429
881.44138,0.00435
880.47700,0.00433
879.51263,0.00431
878.54825,0.00428
877.58387,0.00413
876.61949,0.00406
875.65512,0.00414
874.69074,0.00441
873.72636,0.00443
872.76198,0.00432
871.79760,0.00438
870.83323,0.00432
869.86885,0.00437
868.90447,0.00439
867.94009,0.00433
866.97571,0.00435
866.01134,0.00422
865.04696,0.00418
864.08258,0.00439
863.11820,0.00452
862.15382,0.00442
861.18945,0.00423
860.22507,0.00409
859.26069,0.00394
858.29631,0.00382
857.33194,0.00368
856.36756,0.00362
855.40318,0.00376
854.43880,0.00378
853.47442,0.00381
852.51005,0.00391
851.54567,0.00376
850.58129,0.00366
849.61691,0.00378
848.65253,0.00388
847.68816,0.00389
846.72378,0.00375
845.75940,0.00364
844.79502,0.00369
843.83065,0.00360
842.86627,0.00343
841.90189,0.00346
840.93751,0.00340
839.97313,0.00319
839.00876,0.00321
838.04438,0.00332
837.08000,0.00340
836.11562,0.00342
835.15124,0.00338
834.18687,0.00340
833.22249,0.00329
832.25811,0.00323
831.29373,0.00345
830.32935,0.00343
829.36498,0.00321
828.40060,0.00319
827.43622,0.00320
826.47184,0.00314
825.50747,0.00304
824.54309,0.00295
823.57871,0.00304
822.61433,0.00307
821.64995,0.00290
820.68558,0.00283
819.72120,0.00289
818.75682,0.00304
817.79244,0.00314
816.82806,0.00305
815.86369,0.00291
814.89931,0.00279
813.93493,0.00282
812.97055,0.00293
812.00618,0.00295
811.04180,0.00283
810.07742,0.00280
809.11304,0.00289
808.14866,0.00286
807.18429,0.00287
806.21991,0.00288
805.25553,0.00276
804.29115,0.00275
803.32677,0.00287
802.36240,0.00294
801.39802,0.00291
800.43364,0.00300
799.46926,0.00299
798.50488,0.00275
797.54051,0.00257
796.57613,0.00252
795.61175,0.00259
794.64737,0.00262
793.68300,0.00263
792.71862,0.00276
791.75424,0.00269
790.78986,0.00247
789.82548,0.00251
788.86111,0.00267
787.89673,0.00257
786.93235,0.00239
785.96797,0.00236
785.00359,0.00236
784.03922,0.00234
783.07484,0.00246
782.11046,0.00258
781.14608,0.00258
780.18171,0.00259
779.21733,0.00255
778.25295,0.00247
777.28857,0.00229
776.32419,0.00229
775.35982,0.00260
774.39544,0.00257
773.43106,0.00249
772.46668,0.00256
771.50230,0.00253
770.53793,0.00258
769.57355,0.00265
768.60917,0.00269
767.64479,0.00263
766.68041,0.00254
765.71604,0.00253
764.75166,0.00261
763.78728,0.00278
762.82290,0.00283
761.85853,0.00260
760.89415,0.00254
759.92977,0.00267
758.96539,0.00239
758.00101,0.00217
757.03664,0.00215
756.07226,0.00200
755.10788,0.00225
754.14350,0.00297
753.17912,0.00323
752.21475,0.00284
751.25037,0.00250
750.28599,0.00227
749.32161,0.00222
748.35724,0.00242
747.39286,0.00246
746.42848,0.00250
745.46410,0.00258
744.49972,0.00261
743.53535,0.00250
742.57097,0.00237
741.60659,0.00227
740.64221,0.00226
739.67783,0.00268
738.71346,0.00299
737.74908,0.00289
736.78470,0.00260
735.82032,0.00250
734.85594,0.00256
733.89157,0.00238
732.92719,0.00265
731.96281,0.00285
730.99843,0.00261
730.03406,0.00260
729.06968,0.00267
728.10530,0.00258
727.14092,0.00224
726.17654,0.00209
725.21217,0.00232
724.24779,0.00263
723.28341,0.00275
722.31903,0.00271
721.35465,0.00292
720.39028,0.00296
719.42590,0.00278
718.46152,0.00275
717.49714,0.00266
716.53276,0.00261
715.56839,0.00264
714.60401,0.00271
713.63963,0.00283
712.67525,0.00281
711.71088,0.00277
710.74650,0.00289
709.78212,0.00286
708.81774,0.00272
707.85336,0.00274
706.88899,0.00276
705.92461,0.00294
704.96023,0.00317
703.99585,0.00295
703.03147,0.00272
702.06710,0.00276
701.10272,0.00289
700.13834,0.00299
699.17396,0.00287
698.20959,0.00282
697.24521,0.00281
696.28083,0.00267
695.31645,0.00266
694.35207,0.00264
693.38770,0.00257
692.42332,0.00269
691.45894,0.00289
690.49456,0.00285
689.53018,0.00264
688.56581,0.00271
687.60143,0.00278
686.63705,0.00276
685.67267,0.00289
684.70829,0.00306
683.74392,0.00309
682.77954,0.00300
681.81516,0.00300
680.85078,0.00301
679.88641,0.00296
678.92203,0.00296
677.95765,0.00291
676.99327,0.00268
676.02889,0.00261
675.06452,0.00286
674.10014,0.00293
673.13576,0.00282
672.17138,0.00268
671.20700,0.00283
670.24263,0.00312
669.27825,0.00420
668.31387,0.00656
667.34949,0.00606
666.38512,0.00362
665.42074,0.00298
664.45636,0.00287
663.49198,0.00270
662.52760,0.00272
661.56323,0.00276
660.59885,0.00285
659.63447,0.00286
658.67009,0.00282
657.70571,0.00280
656.74134,0.00296
655.77696,0.00311
654.81258,0.00329
653.84820,0.00335
652.88382,0.00313
651.91945,0.00296
650.95507,0.00297
649.99069,0.00310
649.02631,0.00302
648.06194,0.00285
647.09756,0.00285
646.13318,0.00297
645.16880,0.00311
644.20442,0.00297
643.24005,0.00298
642.27567,0.00330
641.31129,0.00338
640.34691,0.00325
639.38253,0.00322
638.41816,0.00319
637.45378,0.00315
636.48940,0.00320
635.52502,0.00318
634.56065,0.00320
633.59627,0.00312
632.63189,0.00303
631.66751,0.00302
630.70313,0.00298
629.73876,0.00319
628.77438,0.00339
627.81000,0.00330
626.84562,0.00249
625.88124,0.00122
624.91687,0.00105
623.95249,0.00066
622.98811,0.00090
622.02373,0.00119
621.05935,0.00047
620.09498,0.00269
619.13060,0.00387
618.16622,0.00310
617.20184,0.00485
616.23747,0.00648
615.27309,0.00242
614.30871,-0.00136
613.34433,0.00080
612.37995,0.00335
611.41558,0.00373
610.45120,0.00540
609.48682,0.00618
608.52244,0.00454
607.55806,0.00477
606.59369,0.00473
605.62931,0.00308
604.66493,0.00223
603.70055,0.00224
602.73618,0.00313
601.77180,0.00408
600.80742,0.00491
599.84304,0.00586
598.87866,0.00545
597.91429,0.00403
596.94991,0.00356
595.98553,0.00348
595.02115,0.00409
594.05677,0.00565
593.09240,0.00557
592.12802,0.00471
591.16364,0.00458
590.19926,0.00430
589.23488,0.00427
588.27051,0.00447
587.30613,0.00464
586.34175,0.00482
585.37737,0.00488
584.41300,0.00516
583.44862,0.00540
582.48424,0.00552
581.51986,0.00559
580.55548,0.00544
579.59111,0.00509
578.62673,0.00475
577.66235,0.00496
576.69797,0.00515
575.73359,0.00480
574.76922,0.00485
573.80484,0.00494
572.84046,0.00464
571.87608,0.00462
570.91171,0.00452
569.94733,0.00419
568.98295,0.00410
568.01857,0.00440
567.05419,0.00444
566.08982,0.00391
565.12544,0.00369
564.16106,0.00387
563.19668,0.00383
562.23230,0.00362
561.26793,0.00354
560.30355,0.00312
559.33917,0.00235
558.37479,0.00227
557.41041,0.00230
556.44604,0.00233
555.48166,0.00288
554.51728,0.00312
553.55290,0.00310
552.58853,0.00307
551.62415,0.00296
550.65977,0.00304
549.69539,0.00317
548.73101,0.00309
547.76664,0.00293
546.80226,0.00328
545.83788,0.00342
544.87350,0.00257
543.90912,0.00206
542.94475,0.00232
541.98037,0.00279
541.01599,0.00308
540.05161,0.00295
539.08724,0.00283
538.12286,0.00299
537.15848,0.00363
536.19410,0.00402
535.22972,0.00334
534.26535,0.00258
533.30097,0.00238
532.33659,0.00244
531.37221,0.00267
530.40783,0.00305
529.44346,0.00327
528.47908,0.00342
527.51470,0.00370
526.55032,0.00356
525.58594,0.00318
524.62157,0.00281
523.65719,0.00245
522.69281,0.00252
521.72843,0.00238
520.76406,0.00238
519.79968,0.00309
518.83530,0.00340
517.87092,0.00322
516.90654,0.00327
515.94217,0.00319
514.97779,0.00295
514.01341,0.00352
513.04903,0.00394
512.08465,0.00324
511.12028,0.00292
510.15590,0.00325
509.19152,0.00343
508.22714,0.00320
507.26276,0.00277
506.29839,0.00264
505.33401,0.00241
504.36963,0.00246
503.40525,0.00316
502.44088,0.00343
501.47650,0.00329
500.51212,0.00322
499.54774,0.00286
498.58336,0.00259
497.61899,0.00283
496.65461,0.00306
495.69023,0.00302
494.72585,0.00312
493.76147,0.00302
492.79710,0.00244
491.83272,0.00227
490.86834,0.00264
489.90396,0.00260
488.93959,0.00215
487.97521,0.00232
487.01083,0.00288
486.04645,0.00284
485.08207,0.00263
484.11770,0.00262
483.15332,0.00262
482.18894,0.00260
481.22456,0.00255
480.26018,0.00269
479.29581,0.00256
478.33143,0.00227
477.36705,0.00244
476.40267,0.00262
475.43829,0.00280
474.47392,0.00286
473.50954,0.00262
472.54516,0.00289
471.58078,0.00319
470.61641,0.00330
469.65203,0.00344
468.68765,0.00310
467.72327,0.00283
466.75889,0.00273
465.79452,0.00284
464.83014,0.00312
463.86576,0.00276
462.90138,0.00259
461.93700,0.00276
460.97263,0.00267
460.00825,0.00287
459.04387,0.00318
458.07949,0.00315
457.11512,0.00309
456.15074,0.00347
455.18636,0.00369
454.22198,0.00327
453.25760,0.00290
452.29323,0.00311
451.32885,0.00341
450.36447,0.00305
449.40009,0.00279
448.43571,0.00281
447.47134,0.00259
446.50696,0.00268
445.54258,0.00313
444.57820,0.00353
443.61382,0.00339
442.64945,0.00312
441.68507,0.00297
440.72069,0.00265
439.75631,0.00280
438.79194,0.00298
437.82756,0.00278
436.86318,0.00264
435.89880,0.00257
434.93442,0.00274
433.97005,0.00279
433.00567,0.00300
432.04129,0.00343
431.07691,0.00319
430.11253,0.00279
429.14816,0.00276
428.18378,0.00267
427.21940,0.00237
426.25502,0.00216
425.29065,0.00223
424.32627,0.00252
423.36189,0.00292
422.39751,0.00301
421.43313,0.00288
420.46876,0.00290
419.50438,0.00300
418.54000,0.00295
417.57562,0.00274
416.61124,0.00283
415.64687,0.00275
414.68249,0.00231
413.71811,0.00198
412.75373,0.00182
411.78935,0.00204
410.82498,0.00218
409.86060,0.00223
408.89622,0.00256
407.93184,0.00265
406.96747,0.00248
406.00309,0.00209
405.03871,0.00170
404.07433,0.00196
403.10995,0.00258
402.14558,0.00280
401.18120,0.00276
400.21682,0.00280
399.25244,0.00266
