3998.31069,0.08878
3997.34631,0.08884
3996.38194,0.08882
3995.41756,0.08894
3994.45318,0.08917
3993.48880,0.08902
3992.52442,0.08883
3991.56005,0.08868
3990.59567,0.08849
3989.63129,0.08830
3988.66691,0.08818
3987.70253,0.08844
3986.73816,0.08844
3985.77378,0.08823
3984.80940,0.08830
3983.84502,0.08874
3982.88065,0.08904
3981.91627,0.08832
3980.95189,0.08760
3979.98751,0.08812
3979.02313,0.08901
3978.05876,0.08888
3977.09438,0.08839
3976.13000,0.08865
3975.16562,0.08892
3974.20124,0.08841
3973.23687,0.08762
3972.27249,0.08752
3971.30811,0.08773
3970.34373,0.08796
3969.37935,0.08847
3968.41498,0.08855
3967.45060,0.08844
3966.48622,0.08824
3965.52184,0.08793
3964.55747,0.08791
3963.59309,0.08774
3962.62871,0.08759
3961.66433,0.08747
3960.69995,0.08727
3959.73558,0.08765
3958.77120,0.08811
3957.80682,0.08793
3956.84244,0.08790
3955.87806,0.08817
3954.91369,0.08818
3953.94931,0.08793
3952.98493,0.08750
3952.02055,0.08743
3951.05618,0.08763
3950.09180,0.08761
3949.12742,0.08764
3948.16304,0.08779
3947.19866,0.08796
3946.23429,0.08793
3945.26991,0.08789
3944.30553,0.08809
3943.34115,0.08815
3942.37677,0.08795
3941.41240,0.08754
3940.44802,0.08721
3939.48364,0.08733
3938.51926,0.08761
3937.55488,0.08747
3936.59051,0.08698
3935.62613,0.08680
3934.66175,0.08718
3933.69737,0.08753
3932.73300,0.08743
3931.76862,0.08727
3930.80424,0.08736
3929.83986,0.08752
3928.87548,0.08750
3927.91111,0.08734
3926.94673,0.08716
3925.98235,0.08721
3925.01797,0.08756
3924.05359,0.08757
3923.08922,0.08744
3922.12484,0.08767
3921.16046,0.08786
3920.19608,0.08759
3919.23171,0.08713
3918.26733,0.08707
3917.30295,0.08710
3916.33857,0.08730
3915.37419,0.08735
3914.40982,0.08705
3913.44544,0.08706
3912.48106,0.08677
3911.51668,0.08659
3910.55230,0.08671
3909.58793,0.08637
3908.62355,0.08652
3907.65917,0.08690
3906.69479,0.08682
3905.73041,0.08692
3904.76604,0.08715
3903.80166,0.08705
3902.83728,0.08683
3901.87290,0.08646
3900.90853,0.08604
3899.94415,0.08649
3898.97977,0.08709
3898.01539,0.08687
3897.05101,0.08648
3896.08664,0.08660
3895.12226,0.08701
3894.15788,0.08674
3893.19350,0.08658
3892.22912,0.08711
3891.26475,0.08729
3890.30037,0.08724
3889.33599,0.08705
3888.37161,0.08649
3887.40724,0.08626
3886.44286,0.08655
3885.47848,0.08654
3884.51410,0.08641
3883.54972,0.08655
3882.58535,0.08665
3881.62097,0.08676
3880.65659,0.08661
3879.69221,0.08649
3878.72783,0.08696
3877.76346,0.08724
3876.79908,0.08685
3875.83470,0.08632
3874.87032,0.08615
3873.90594,0.08602
3872.94157,0.08575
3871.97719,0.08595
3871.01281,0.08657
3870.04843,0.08671
3869.08406,0.08621
3868.11968,0.08598
3867.15530,0.08635
3866.19092,0.08670
3865.22654,0.08653
3864.26217,0.08628
3863.29779,0.08632
3862.33341,0.08610
3861.36903,0.08572
3860.40465,0.08577
3859.44028,0.08614
3858.47590,0.08638
3857.51152,0.08630
3856.54714,0.08605
3855.58276,0.08619
3854.61839,0.08676
3853.65401,0.08675
3852.68963,0.08641
3851.72525,0.08593
3850.76088,0.08548
3849.79650,0.08595
3848.83212,0.08654
3847.86774,0.08628
3846.90336,0.08562
3845.93899,0.08543
3844.97461,0.08552
3844.01023,0.08515
3843.04585,0.08483
3842.08147,0.08512
3841.11710,0.08571
3840.15272,0.08593
3839.18834,0.08592
3838.22396,0.08588
3837.25959,0.08553
3836.29521,0.08540
3835.33083,0.08545
3834.36645,0.08518
3833.40207,0.08496
3832.43770,0.08496
3831.47332,0.08486
3830.50894,0.08484
3829.54456,0.08509
3828.58018,0.08507
3827.61581,0.08493
3826.65143,0.08481
3825.68705,0.08471
3824.72267,0.08505
3823.75829,0.08554
3822.79392,0.08538
3821.82954,0.08465
3820.86516,0.08443
3819.90078,0.08469
3818.93641,0.08483
3817.97203,0.08519
3817.00765,0.08549
3816.04327,0.08523
3815.07889,0.08454
3814.11452,0.08399
3813.15014,0.08425
3812.18576,0.08456
3811.22138,0.08446
3810.25700,0.08438
3809.29263,0.08432
3808.32825,0.08460
3807.36387,0.08498
3806.39949,0.08480
3805.43512,0.08451
3804.47074,0.08456
3803.50636,0.08484
3802.54198,0.08490
3801.57760,0.08461
3800.61323,0.08439
3799.64885,0.08425
3798.68447,0.08407
3797.72009,0.08405
3796.75571,0.08406
3795.79134,0.08390
3794.82696,0.08382
3793.86258,0.08408
3792.89820,0.08416
3791.93382,0.08375
3790.96945,0.08323
3790.00507,0.08312
3789.04069,0.08329
3788.07631,0.08350
3787.11194,0.08372
3786.14756,0.08372
3785.18318,0.08377
3784.21880,0.08394
3783.25442,0.08374
3782.29005,0.08337
3781.32567,0.08330
3780.36129,0.08311
3779.39691,0.08282
3778.43253,0.08321
3777.46816,0.08345
3776.50378,0.08303
3775.53940,0.08339
3774.57502,0.08431
3773.61065,0.08414
3772.64627,0.08345
3771.68189,0.08328
3770.71751,0.08297
3769.75313,0.08255
3768.78876,0.08237
3767.82438,0.08252
3766.86000,0.08286
3765.89562,0.08292
3764.93124,0.08310
3763.96687,0.08328
3763.00249,0.08338
3762.03811,0.08351
3761.07373,0.08334
3760.10935,0.08335
3759.14498,0.08344
3758.18060,0.08322
3757.21622,0.08294
3756.25184,0.08295
3755.28747,0.08290
3754.32309,0.08266
3753.35871,0.08290
3752.39433,0.08297
3751.42995,0.08263
3750.46558,0.08266
3749.50120,0.08264
3748.53682,0.08239
3747.57244,0.08248
3746.60806,0.08278
3745.64369,0.08308
3744.67931,0.08325
3743.71493,0.08269
3742.75055,0.08253
3741.78618,0.08290
3740.82180,0.08243
3739.85742,0.08213
3738.89304,0.08232
3737.92866,0.08236
3736.96429,0.08264
3735.99991,0.08294
3735.03553,0.08290
3734.07115,0.08253
3733.10677,0.08215
3732.14240,0.08215
3731.17802,0.08198
3730.21364,0.08135
3729.24926,0.08129
3728.28488,0.08170
3727.32051,0.08186
3726.35613,0.08228
3725.39175,0.08243
3724.42737,0.08210
3723.46300,0.08206
3722.49862,0.08213
3721.53424,0.08212
3720.56986,0.08248
3719.60548,0.08280
3718.64111,0.08210
3717.67673,0.08140
3716.71235,0.08154
3715.74797,0.08178
3714.78359,0.08146
3713.81922,0.08110
3712.85484,0.08187
3711.89046,0.08244
3710.92608,0.08224
3709.96171,0.08190
3708.99733,0.08113
3708.03295,0.08117
3707.06857,0.08169
3706.10419,0.08197
3705.13982,0.08218
3704.17544,0.08198
3703.21106,0.08211
3702.24668,0.08208
3701.28230,0.08161
3700.31793,0.08147
3699.35355,0.08153
3698.38917,0.08145
3697.42479,0.08120
3696.46041,0.08129
3695.49604,0.08125
3694.53166,0.08112
3693.56728,0.08123
3692.60290,0.08118
3691.63853,0.08165
3690.67415,0.08216
3689.70977,0.08240
3688.74539,0.08267
3687.78101,0.08255
3686.81664,0.08270
3685.85226,0.08297
3684.88788,0.08299
3683.92350,0.08299
3682.95912,0.08267
3681.99475,0.08242
3681.03037,0.08264
3680.06599,0.08313
3679.10161,0.08371
3678.13724,0.08431
3677.17286,0.08463
3676.20848,0.08469
3675.24410,0.08477
3674.27972,0.08470
3673.31535,0.08467
3672.35097,0.08509
3671.38659,0.08572
3670.42221,0.08562
3669.45783,0.08518
3668.49346,0.08578
3667.52908,0.08669
3666.56470,0.08696
3665.60032,0.08719
3664.63594,0.08763
3663.67157,0.08753
3662.70719,0.08735
3661.74281,0.08790
3660.77843,0.08815
3659.81406,0.08827
3658.84968,0.08862
3657.88530,0.08894
3656.92092,0.08970
3655.95654,0.09015
3654.99217,0.09029
3654.02779,0.09072
3653.06341,0.09142
3652.09903,0.09228
3651.13465,0.09285
3650.17028,0.09357
3649.20590,0.09427
3648.24152,0.09429
3647.27714,0.09403
3646.31276,0.09427
3645.34839,0.09495
3644.38401,0.09510
3643.41963,0.09476
3642.45525,0.09473
3641.49088,0.09507
3640.52650,0.09536
3639.56212,0.09583
3638.59774,0.09612
3637.63336,0.09629
3636.66899,0.09745
3635.70461,0.09827
3634.74023,0.09796
3633.77585,0.09792
3632.81147,0.09845
3631.84710,0.09878
3630.88272,0.09885
3629.91834,0.09968
3628.95396,0.10040
3627.98959,0.10009
3627.02521,0.09978
3626.06083,0.10019
3625.09645,0.10054
3624.13207,0.10015
3623.16770,0.10038
3622.20332,0.10083
3621.23894,0.10097
3620.27456,0.10151
3619.31018,0.10173
3618.34581,0.10154
3617.38143,0.10115
3616.41705,0.10105
3615.45267,0.10110
3614.48829,0.10092
3613.52392,0.10143
3612.55954,0.10197
3611.59516,0.10221
3610.63078,0.10231
3609.66641,0.10170
3608.70203,0.10135
3607.73765,0.10170
3606.77327,0.10175
3605.80889,0.10185
3604.84452,0.10227
3603.88014,0.10231
3602.91576,0.10269
3601.95138,0.10281
3600.98700,0.10201
3600.02263,0.10197
3599.05825,0.10177
3598.09387,0.10096
3597.12949,0.10117
3596.16512,0.10175
3595.20074,0.10152
3594.23636,0.10129
3593.27198,0.10167
3592.30760,0.10176
3591.34323,0.10157
3590.37885,0.10185
3589.41447,0.10244
3588.45009,0.10261
3587.48571,0.10218
3586.52134,0.10192
3585.55696,0.10205
3584.59258,0.10232
3583.62820,0.10231
3582.66382,0.10199
3581.69945,0.10213
3580.73507,0.10224
3579.77069,0.10231
3578.80631,0.10281
3577.84194,0.10313
3576.87756,0.10317
3575.91318,0.10325
3574.94880,0.10347
3573.98442,0.10377
3573.02005,0.10379
3572.05567,0.10357
3571.09129,0.10348
3570.12691,0.10361
3569.16253,0.10394
3568.19816,0.10418
3567.23378,0.10430
3566.26940,0.10458
3565.30502,0.10480
3564.34065,0.10466
3563.37627,0.10441
3562.41189,0.10457
3561.44751,0.10488
3560.48313,0.10502
3559.51876,0.10559
3558.55438,0.10641
3557.59000,0.10669
3556.62562,0.10648
3555.66124,0.10649
3554.69687,0.10706
3553.73249,0.10738
3552.76811,0.10724
3551.80373,0.10726
3550.83935,0.10755
3549.87498,0.10771
3548.91060,0.10768
3547.94622,0.10817
3546.98184,0.10905
3546.01747,0.10925
3545.05309,0.10909
3544.08871,0.10934
3543.12433,0.10973
3542.15995,0.11033
3541.19558,0.11075
3540.23120,0.11069
3539.26682,0.11124
3538.30244,0.11174
3537.33806,0.11137
3536.37369,0.11137
3535.40931,0.11172
3534.44493,0.11218
3533.48055,0.11276
3532.51618,0.11285
3531.55180,0.11280
3530.58742,0.11308
3529.62304,0.11342
3528.65866,0.11367
3527.69429,0.11410
3526.72991,0.11456
3525.76553,0.11495
3524.80115,0.11545
3523.83677,0.11579
3522.87240,0.11587
3521.90802,0.11580
3520.94364,0.11587
3519.97926,0.11605
3519.01488,0.11619
3518.05051,0.11649
3517.08613,0.11677
3516.12175,0.11734
3515.15737,0.11754
3514.19300,0.11727
3513.22862,0.11788
3512.26424,0.11849
3511.29986,0.11881
3510.33548,0.11897
3509.37111,0.11860
3508.40673,0.11885
3507.44235,0.11942
3506.47797,0.11972
3505.51359,0.11995
3504.54922,0.11995
3503.58484,0.12007
3502.62046,0.12020
3501.65608,0.12031
3500.69171,0.12062
3499.72733,0.12099
3498.76295,0.12124
3497.79857,0.12128
3496.83419,0.12145
3495.86982,0.12178
3494.90544,0.12185
3493.94106,0.12177
3492.97668,0.12190
3492.01230,0.12214
3491.04793,0.12219
3490.08355,0.12229
3489.11917,0.12245
3488.15479,0.12250
3487.19041,0.12277
3486.22604,0.12337
3485.26166,0.12356
3484.29728,0.12310
3483.33290,0.12302
3482.36853,0.12374
3481.40415,0.12421
3480.43977,0.12397
3479.47539,0.12380
3478.51101,0.12413
3477.54664,0.12454
3476.58226,0.12477
3475.61788,0.12470
3474.65350,0.12447
3473.68912,0.12449
3472.72475,0.12485
3471.76037,0.12524
3470.79599,0.12526
3469.83161,0.12526
3468.86724,0.12547
3467.90286,0.12548
3466.93848,0.12537
3465.97410,0.12517
3465.00972,0.12514
3464.04535,0.12559
3463.08097,0.12591
3462.11659,0.12598
3461.15221,0.12594
3460.18783,0.12602
3459.22346,0.12658
3458.25908,0.12704
3457.29470,0.12672
3456.33032,0.12632
3455.36594,0.12635
3454.40157,0.12624
3453.43719,0.12647
3452.47281,0.12696
3451.50843,0.12681
3450.54406,0.12663
3449.57968,0.12675
3448.61530,0.12700
3447.65092,0.12711
3446.68654,0.12678
3445.72217,0.12670
3444.75779,0.12682
3443.79341,0.12667
3442.82903,0.12642
3441.86465,0.12641
3440.90028,0.12659
3439.93590,0.12678
3438.97152,0.12686
3438.00714,0.12659
3437.04276,0.12637
3436.07839,0.12665
3435.11401,0.12688
3434.14963,0.12675
3433.18525,0.12685
3432.22088,0.12724
3431.25650,0.12739
3430.29212,0.12761
3429.32774,0.12777
3428.36336,0.12757
3427.39899,0.12754
3426.43461,0.12745
3425.47023,0.12732
3424.50585,0.12734
3423.54147,0.12719
3422.57710,0.12721
3421.61272,0.12768
3420.64834,0.12804
3419.68396,0.12790
3418.71959,0.12777
3417.75521,0.12798
3416.79083,0.12807
3415.82645,0.12794
3414.86207,0.12764
3413.89770,0.12740
3412.93332,0.12756
3411.96894,0.12763
3411.00456,0.12748
3410.04018,0.12728
3409.07581,0.12729
3408.11143,0.12767
3407.14705,0.12780
3406.18267,0.12779
3405.21829,0.12764
3404.25392,0.12738
3403.28954,0.12746
3402.32516,0.12735
3401.36078,0.12721
3400.39641,0.12725
3399.43203,0.12712
3398.46765,0.12705
3397.50327,0.12708
3396.53889,0.12707
3395.57452,0.12690
3394.61014,0.12682
3393.64576,0.12697
3392.68138,0.12682
3391.71700,0.12658
3390.75263,0.12682
3389.78825,0.12699
3388.82387,0.12672
3387.85949,0.12647
3386.89512,0.12634
3385.93074,0.12663
3384.96636,0.12688
3384.00198,0.12644
3383.03760,0.12621
3382.07323,0.12631
3381.10885,0.12661
3380.14447,0.12700
3379.18009,0.12690
3378.21571,0.12666
3377.25134,0.12644
3376.28696,0.12634
3375.32258,0.12622
3374.35820,0.12598
3373.39382,0.12619
3372.42945,0.12631
3371.46507,0.12582
3370.50069,0.12538
3369.53631,0.12538
3368.57194,0.12563
3367.60756,0.12576
3366.64318,0.12571
3365.67880,0.12571
3364.71442,0.12563
3363.75005,0.12558
3362.78567,0.12572
3361.82129,0.12558
3360.85691,0.12554
3359.89253,0.12562
3358.92816,0.12516
3357.96378,0.12496
3356.99940,0.12503
3356.03502,0.12474
3355.07065,0.12449
3354.10627,0.12441
3353.14189,0.12438
3352.17751,0.12422
3351.21313,0.12404
3350.24876,0.12440
3349.28438,0.12461
3348.32000,0.12427
3347.35562,0.12443
3346.39124,0.12466
3345.42687,0.12445
3344.46249,0.12427
3343.49811,0.12389
3342.53373,0.12385
3341.56935,0.12426
3340.60498,0.12428
3339.64060,0.12402
3338.67622,0.12369
3337.71184,0.12356
3336.74747,0.12348
3335.78309,0.12306
3334.81871,0.12282
3333.85433,0.12301
3332.88995,0.12307
3331.92558,0.12292
3330.96120,0.12310
3329.99682,0.12321
3329.03244,0.12301
3328.06806,0.12285
3327.10369,0.12265
3326.13931,0.12236
3325.17493,0.12216
3324.21055,0.12225
3323.24618,0.12245
3322.28180,0.12229
3321.31742,0.12182
3320.35304,0.12165
3319.38866,0.12208
3318.42429,0.12206
3317.45991,0.12144
3316.49553,0.12136
3315.53115,0.12149
3314.56677,0.12122
3313.60240,0.12088
3312.63802,0.12073
3311.67364,0.12056
3310.70926,0.12048
3309.74488,0.12082
3308.78051,0.12102
3307.81613,0.12083
3306.85175,0.12063
3305.88737,0.12063
3304.92300,0.12078
3303.95862,0.12077
3302.99424,0.12073
3302.02986,0.12059
3301.06548,0.12018
3300.10111,0.11992
3299.13673,0.11998
3298.17235,0.11998
3297.20797,0.12007
3296.24359,0.12047
3295.27922,0.12045
3294.31484,0.11998
3293.35046,0.11964
3292.38608,0.11937
3291.42171,0.11934
3290.45733,0.11921
3289.49295,0.11891
3288.52857,0.11906
3287.56419,0.11943
3286.59982,0.11931
3285.63544,0.11880
3284.67106,0.11860
3283.70668,0.11862
3282.74230,0.11862
3281.77793,0.11865
3280.81355,0.11864
3279.84917,0.11846
3278.88479,0.11835
3277.92041,0.11859
3276.95604,0.11834
3275.99166,0.11791
3275.02728,0.11805
3274.06290,0.11794
3273.09853,0.11783
3272.13415,0.11764
3271.16977,0.11711
3270.20539,0.11720
3269.24101,0.11751
3268.27664,0.11749
3267.31226,0.11733
3266.34788,0.11717
3265.38350,0.11707
3264.41912,0.11703
3263.45475,0.11705
3262.49037,0.11703
3261.52599,0.11708
3260.56161,0.11685
3259.59724,0.11647
3258.63286,0.11670
3257.66848,0.11688
3256.70410,0.11644
3255.73972,0.11605
3254.77535,0.11593
3253.81097,0.11584
3252.84659,0.11576
3251.88221,0.11567
3250.91783,0.11548
3249.95346,0.11557
3248.98908,0.11595
3248.02470,0.11591
3247.06032,0.11565
3246.09594,0.11560
3245.13157,0.11533
3244.16719,0.11517
3243.20281,0.11526
3242.23843,0.11504
3241.27406,0.11486
3240.30968,0.11459
3239.34530,0.11423
3238.38092,0.11418
3237.41654,0.11409
3236.45217,0.11414
3235.48779,0.11410
3234.52341,0.11389
3233.55903,0.11411
3232.59465,0.11439
3231.63028,0.11431
3230.66590,0.11379
3229.70152,0.11347
3228.73714,0.11371
3227.77276,0.11379
3226.80839,0.11371
3225.84401,0.11347
3224.87963,0.11320
3223.91525,0.11308
3222.95088,0.11304
3221.98650,0.11317
3221.02212,0.11307
3220.05774,0.11294
3219.09336,0.11298
3218.12899,0.11284
3217.16461,0.11279
3216.20023,0.11285
3215.23585,0.11284
3214.27147,0.11275
3213.30710,0.11271
3212.34272,0.11271
3211.37834,0.11228
3210.41396,0.11188
3209.44959,0.11202
3208.48521,0.11209
3207.52083,0.11185
3206.55645,0.11147
3205.59207,0.11111
3204.62770,0.11106
3203.66332,0.11129
3202.69894,0.11131
3201.73456,0.11100
3200.77018,0.11088
3199.80581,0.11083
3198.84143,0.11069
3197.87705,0.11066
3196.91267,0.11038
3195.94829,0.11026
3194.98392,0.11042
3194.01954,0.11021
3193.05516,0.11002
3192.09078,0.11003
3191.12641,0.10997
3190.16203,0.10997
3189.19765,0.10999
3188.23327,0.10984
3187.26889,0.10955
3186.30452,0.10929
3185.34014,0.10909
3184.37576,0.10907
3183.41138,0.10918
3182.44700,0.10918
3181.48263,0.10911
3180.51825,0.10893
3179.55387,0.10867
3178.58949,0.10848
3177.62512,0.10821
3176.66074,0.10803
3175.69636,0.10799
3174.73198,0.10784
3173.76760,0.10765
3172.80323,0.10759
3171.83885,0.10784
3170.87447,0.10784
3169.91009,0.10737
3168.94571,0.10707
3167.98134,0.10680
3167.01696,0.10657
3166.05258,0.10669
3165.08820,0.10667
3164.12382,0.10615
3163.15945,0.10584
3162.19507,0.10603
3161.23069,0.10613
3160.26631,0.10620
3159.30194,0.10616
3158.33756,0.10601
3157.37318,0.10591
3156.40880,0.10590
3155.44442,0.10598
3154.48005,0.10562
3153.51567,0.10516
3152.55129,0.10490
3151.58691,0.10483
3150.62253,0.10492
3149.65816,0.10450
3148.69378,0.10420
3147.72940,0.10428
3146.76502,0.10450
3145.80065,0.10471
3144.83627,0.10440
3143.87189,0.10430
3142.90751,0.10432
3141.94313,0.10405
3140.97876,0.10410
3140.01438,0.10410
3139.05000,0.10381
3138.08562,0.10358
3137.12124,0.10339
3136.15687,0.10322
3135.19249,0.10310
3134.22811,0.10303
3133.26373,0.10318
3132.29935,0.10317
3131.33498,0.10266
3130.37060,0.10235
3129.40622,0.10254
3128.44184,0.10265
3127.47747,0.10229
3126.51309,0.10206
3125.54871,0.10213
3124.58433,0.10191
3123.61995,0.10175
3122.65558,0.10186
3121.69120,0.10177
3120.72682,0.10157
3119.76244,0.10165
3118.79806,0.10156
3117.83369,0.10110
3116.86931,0.10059
3115.90493,0.10045
3114.94055,0.10063
3113.97618,0.10050
3113.01180,0.10040
3112.04742,0.10053
3111.08304,0.10054
3110.11866,0.10051
3109.15429,0.10025
3108.18991,0.09991
3107.22553,0.09972
3106.26115,0.09960
3105.29677,0.09945
3104.33240,0.09948
3103.36802,0.09964
3102.40364,0.09938
3101.43926,0.09908
3100.47488,0.09908
3099.51051,0.09918
3098.54613,0.09909
3097.58175,0.09902
3096.61737,0.09925
3095.65300,0.09864
3094.68862,0.09791
3093.72424,0.09812
3092.75986,0.09820
3091.79548,0.09811
3090.83111,0.09803
3089.86673,0.09793
3088.90235,0.09787
3087.93797,0.09764
3086.97359,0.09745
3086.00922,0.09733
3085.04484,0.09731
3084.08046,0.09717
3083.11608,0.09685
3082.15171,0.09678
3081.18733,0.09689
3080.22295,0.09689
3079.25857,0.09662
3078.29419,0.09644
3077.32982,0.09631
3076.36544,0.09611
3075.40106,0.09614
3074.43668,0.09609
3073.47230,0.09610
3072.50793,0.09611
3071.54355,0.09585
3070.57917,0.09548
3069.61479,0.09520
3068.65041,0.09539
3067.68604,0.09543
3066.72166,0.09507
3065.75728,0.09492
3064.79290,0.09476
3063.82853,0.09448
3062.86415,0.09428
3061.89977,0.09414
3060.93539,0.09407
3059.97101,0.09428
3059.00664,0.09450
3058.04226,0.09432
3057.07788,0.09410
3056.11350,0.09379
3055.14912,0.09335
3054.18475,0.09324
3053.22037,0.09327
3052.25599,0.09321
3051.29161,0.09314
3050.32724,0.09300
3049.36286,0.09282
3048.39848,0.09276
3047.43410,0.09270
3046.46972,0.09251
3045.50535,0.09233
3044.54097,0.09229
3043.57659,0.09223
3042.61221,0.09216
3041.64783,0.09207
3040.68346,0.09172
3039.71908,0.09152
3038.75470,0.09148
3037.79032,0.09130
3036.82594,0.09104
3035.86157,0.09080
3034.89719,0.09089
3033.93281,0.09101
3032.96843,0.09094
3032.00406,0.09090
3031.03968,0.09069
3030.07530,0.09047
3029.11092,0.09048
3028.14654,0.09041
3027.18217,0.09017
3026.21779,0.09015
3025.25341,0.09008
3024.28903,0.08973
3023.32465,0.08961
3022.36028,0.08971
3021.39590,0.08963
3020.43152,0.08921
3019.46714,0.08894
3018.50276,0.08890
3017.53839,0.08873
3016.57401,0.08878
3015.60963,0.08882
3014.64525,0.08859
3013.68088,0.08836
3012.71650,0.08822
3011.75212,0.08807
3010.78774,0.08787
3009.82336,0.08777
3008.85899,0.08786
3007.89461,0.08786
3006.93023,0.08763
3005.96585,0.08737
3005.00147,0.08711
3004.03710,0.08703
3003.07272,0.08696
3002.10834,0.08684
3001.14396,0.08695
3000.17959,0.08696
2999.21521,0.08693
2998.25083,0.08673
2997.28645,0.08641
2996.32207,0.08651
2995.35770,0.08644
2994.39332,0.08619
2993.42894,0.08616
2992.46456,0.08611
2991.50018,0.08612
2990.53581,0.08607
2989.57143,0.08587
2988.60705,0.08577
2987.64267,0.08566
2986.67829,0.08548
2985.71392,0.08541
2984.74954,0.08535
2983.78516,0.08519
2982.82078,0.08484
2981.85641,0.08450
2980.89203,0.08460
2979.92765,0.08478
2978.96327,0.08489
2977.99889,0.08481
2977.03452,0.08456
2976.07014,0.08437
2975.10576,0.08427
2974.14138,0.08417
2973.17700,0.08383
2972.21263,0.08359
2971.24825,0.08367
2970.28387,0.08385
2969.31949,0.08396
2968.35512,0.08372
2967.39074,0.08351
2966.42636,0.08349
2965.46198,0.08350
2964.49760,0.08349
2963.53323,0.08325
2962.56885,0.08299
2961.60447,0.08297
2960.64009,0.08304
2959.67571,0.08295
2958.71134,0.08286
2957.74696,0.08287
2956.78258,0.08279
2955.81820,0.08276
2954.85382,0.08262
2953.88945,0.08240
2952.92507,0.08228
2951.96069,0.08218
2950.99631,0.08212
2950.03194,0.08223
2949.06756,0.08232
2948.10318,0.08209
2947.13880,0.08179
2946.17442,0.08156
2945.21005,0.08151
2944.24567,0.08155
2943.28129,0.08144
2942.31691,0.08141
2941.35253,0.08132
2940.38816,0.08131
2939.42378,0.08155
2938.45940,0.08163
2937.49502,0.08164
2936.53065,0.08152
2935.56627,0.08125
2934.60189,0.08120
2933.63751,0.08123
2932.67313,0.08110
2931.70876,0.08104
2930.74438,0.08115
2929.78000,0.08112
2928.81562,0.08088
2927.85124,0.08083
2926.88687,0.08088
2925.92249,0.08067
2924.95811,0.08062
2923.99373,0.08076
2923.02935,0.08074
2922.06498,0.08063
2921.10060,0.08056
2920.13622,0.08071
2919.17184,0.08079
2918.20747,0.08066
2917.24309,0.08056
2916.27871,0.08040
2915.31433,0.08026
2914.34995,0.08019
2913.38558,0.08019
2912.42120,0.08002
2911.45682,0.07976
2910.49244,0.07980
2909.52806,0.07976
2908.56369,0.07961
2907.59931,0.07951
2906.63493,0.07936
2905.67055,0.07936
2904.70618,0.07937
2903.74180,0.07944
2902.77742,0.07952
2901.81304,0.07930
2900.84866,0.07919
2899.88429,0.07913
2898.91991,0.07898
2897.95553,0.07906
2896.99115,0.07916
2896.02677,0.07920
2895.06240,0.07914
2894.09802,0.07900
2893.13364,0.07879
2892.16926,0.07859
2891.20488,0.07877
2890.24051,0.07893
2889.27613,0.07870
2888.31175,0.07845
2887.34737,0.07840
2886.38300,0.07847
2885.41862,0.07853
2884.45424,0.07856
2883.48986,0.07847
2882.52548,0.07837
2881.56111,0.07827
2880.59673,0.07816
2879.63235,0.07829
2878.66797,0.07836
2877.70359,0.07837
2876.73922,0.07835
2875.77484,0.07814
2874.81046,0.07798
2873.84608,0.07801
2872.88171,0.07819
2871.91733,0.07824
2870.95295,0.07815
2869.98857,0.07810
2869.02419,0.07809
2868.05982,0.07820
2867.09544,0.07818
2866.13106,0.07810
2865.16668,0.07818
2864.20230,0.07832
2863.23793,0.07813
2862.27355,0.07774
2861.30917,0.07778
2860.34479,0.07788
2859.38041,0.07771
2858.41604,0.07768
2857.45166,0.07775
2856.48728,0.07780
2855.52290,0.07773
2854.55853,0.07772
2853.59415,0.07785
2852.62977,0.07789
2851.66539,0.07789
2850.70101,0.07776
2849.73664,0.07755
2848.77226,0.07768
2847.80788,0.07775
2846.84350,0.07741
2845.87912,0.07724
2844.91475,0.07740
2843.95037,0.07748
2842.98599,0.07729
2842.02161,0.07705
2841.05724,0.07699
2840.09286,0.07692
2839.12848,0.07689
2838.16410,0.07702
2837.19972,0.07712
2836.23535,0.07701
2835.27097,0.07689
2834.30659,0.07699
2833.34221,0.07695
2832.37783,0.07677
2831.41346,0.07673
2830.44908,0.07676
2829.48470,0.07675
2828.52032,0.07672
2827.55594,0.07678
2826.59157,0.07674
2825.62719,0.07654
2824.66281,0.07642
2823.69843,0.07631
2822.73406,0.07627
2821.76968,0.07630
2820.80530,0.07622
2819.84092,0.07617
2818.87654,0.07613
2817.91217,0.07596
2816.94779,0.07587
2815.98341,0.07591
2815.01903,0.07586
2814.05465,0.07580
2813.09028,0.07576
2812.12590,0.07570
2811.16152,0.07569
2810.19714,0.07559
2809.23276,0.07550
2808.26839,0.07570
2807.30401,0.07577
2806.33963,0.07558
2805.37525,0.07543
2804.41088,0.07547
2803.44650,0.07561
2802.48212,0.07554
2801.51774,0.07536
2800.55336,0.07531
2799.58899,0.07521
2798.62461,0.07517
2797.66023,0.07524
2796.69585,0.07515
2795.73147,0.07508
2794.76710,0.07504
2793.80272,0.07481
2792.83834,0.07468
2791.87396,0.07473
2790.90959,0.07473
2789.94521,0.07477
2788.98083,0.07483
2788.01645,0.07475
2787.05207,0.07462
2786.08770,0.07450
2785.12332,0.07448
2784.15894,0.07444
2783.19456,0.07436
2782.23018,0.07430
2781.26581,0.07416
2780.30143,0.07415
2779.33705,0.07424
2778.37267,0.07413
2777.40829,0.07410
2776.44392,0.07411
2775.47954,0.07382
2774.51516,0.07354
2773.55078,0.07358
2772.58641,0.07369
2771.62203,0.07365
2770.65765,0.07362
2769.69327,0.07368
2768.72889,0.07363
2767.76452,0.07342
2766.80014,0.07326
2765.83576,0.07333
2764.87138,0.07333
2763.90700,0.07325
2762.94263,0.07317
2761.97825,0.07305
2761.01387,0.07295
2760.04949,0.07284
2759.08512,0.07289
2758.12074,0.07293
2757.15636,0.07288
2756.19198,0.07288
2755.22760,0.07282
2754.26323,0.07281
2753.29885,0.07271
2752.33447,0.07260
2751.37009,0.07254
2750.40571,0.07240
2749.44134,0.07232
2748.47696,0.07207
2747.51258,0.07184
2746.54820,0.07181
2745.58382,0.07183
2744.61945,0.07185
2743.65507,0.07173
2742.69069,0.07168
2741.72631,0.07165
2740.76194,0.07163
2739.79756,0.07161
2738.83318,0.07143
2737.86880,0.07147
2736.90442,0.07149
2735.94005,0.07124
2734.97567,0.07118
2734.01129,0.07126
2733.04691,0.07121
2732.08253,0.07113
2731.11816,0.07115
2730.15378,0.07111
2729.18940,0.07088
2728.22502,0.07071
2727.26065,0.07065
2726.29627,0.07056
2725.33189,0.07058
2724.36751,0.07057
2723.40313,0.07036
2722.43876,0.07031
2721.47438,0.07027
2720.51000,0.07012
2719.54562,0.07009
2718.58124,0.07012
2717.61687,0.07011
2716.65249,0.07002
2715.68811,0.06992
2714.72373,0.06992
2713.75935,0.06998
2712.79498,0.06991
2711.83060,0.06968
2710.86622,0.06958
2709.90184,0.06958
2708.93747,0.06951
2707.97309,0.06942
2707.00871,0.06941
2706.04433,0.06938
2705.07995,0.06922
2704.11558,0.06918
2703.15120,0.06915
2702.18682,0.06906
2701.22244,0.06905
2700.25806,0.06903
2699.29369,0.06890
2698.32931,0.06883
2697.36493,0.06904
2696.40055,0.06907
2695.43618,0.06879
2694.47180,0.06881
2693.50742,0.06891
2692.54304,0.06877
2691.57866,0.06850
2690.61429,0.06835
2689.64991,0.06835
2688.68553,0.06821
2687.72115,0.06808
2686.75677,0.06803
2685.79240,0.06795
2684.82802,0.06798
2683.86364,0.06805
2682.89926,0.06800
2681.93488,0.06779
2680.97051,0.06760
2680.00613,0.06764
2679.04175,0.06768
2678.07737,0.06760
2677.11300,0.06750
2676.14862,0.06749
2675.18424,0.06759
2674.21986,0.06758
2673.25548,0.06742
2672.29111,0.06735
2671.32673,0.06734
2670.36235,0.06727
2669.39797,0.06722
2668.43359,0.06713
2667.46922,0.06702
2666.50484,0.06704
2665.54046,0.06702
2664.57608,0.06686
2663.61171,0.06681
2662.64733,0.06682
2661.68295,0.06673
2660.71857,0.06664
2659.75419,0.06648
2658.78982,0.06632
2657.82544,0.06625
2656.86106,0.06628
2655.89668,0.06642
2654.93230,0.06634
2653.96793,0.06609
2653.00355,0.06595
2652.03917,0.06575
2651.07479,0.06561
2650.11041,0.06560
2649.14604,0.06545
2648.18166,0.06520
2647.21728,0.06513
2646.25290,0.06521
2645.28853,0.06523
2644.32415,0.06519
2643.35977,0.06504
2642.39539,0.06478
2641.43101,0.06458
2640.46664,0.06461
2639.50226,0.06489
2638.53788,0.06490
2637.57350,0.06459
2636.60912,0.06440
2635.64475,0.06431
2634.68037,0.06419
2633.71599,0.06412
2632.75161,0.06399
2631.78724,0.06370
2630.82286,0.06361
2629.85848,0.06381
2628.89410,0.06380
2627.92972,0.06362
2626.96535,0.06358
2626.00097,0.06354
2625.03659,0.06340
2624.07221,0.06344
2623.10783,0.06349
2622.14346,0.06336
2621.17908,0.06327
2620.21470,0.06318
2619.25032,0.06307
2618.28594,0.06299
2617.32157,0.06293
2616.35719,0.06287
2615.39281,0.06278
2614.42843,0.06271
2613.46406,0.06276
2612.49968,0.06277
2611.53530,0.06244
2610.57092,0.06211
2609.60654,0.06211
2608.64217,0.06228
2607.67779,0.06224
2606.71341,0.06193
2605.74903,0.06182
2604.78465,0.06177
2603.82028,0.06184
2602.85590,0.06211
2601.89152,0.06194
2600.92714,0.06163
2599.96276,0.06178
2598.99839,0.06201
2598.03401,0.06193
2597.06963,0.06167
2596.10525,0.06130
2595.14088,0.06111
2594.17650,0.06127
2593.21212,0.06129
2592.24774,0.06095
2591.28336,0.06064
2590.31899,0.06067
2589.35461,0.06065
2588.39023,0.06047
2587.42585,0.06056
2586.46147,0.06053
2585.49710,0.06040
2584.53272,0.06055
2583.56834,0.06059
2582.60396,0.06056
2581.63959,0.06070
2580.67521,0.06061
2579.71083,0.06023
2578.74645,0.06013
2577.78207,0.06032
2576.81770,0.06058
2575.85332,0.06052
2574.88894,0.06010
2573.92456,0.05978
2572.96018,0.05964
2571.99581,0.05968
2571.03143,0.05959
2570.06705,0.05950
2569.10267,0.05957
2568.13829,0.05963
2567.17392,0.05974
2566.20954,0.05961
2565.24516,0.05956
2564.28078,0.05954
2563.31641,0.05911
2562.35203,0.05863
2561.38765,0.05862
2560.42327,0.05903
2559.45889,0.05893
2558.49452,0.05863
2557.53014,0.05891
2556.56576,0.05916
2555.60138,0.05907
2554.63700,0.05897
2553.67263,0.05901
2552.70825,0.05899
2551.74387,0.05875
2550.77949,0.05847
2549.81512,0.05831
2548.85074,0.05837
2547.88636,0.05864
2546.92198,0.05859
2545.95760,0.05806
2544.99323,0.05790
2544.02885,0.05793
2543.06447,0.05784
2542.10009,0.05790
2541.13571,0.05796
2540.17134,0.05809
2539.20696,0.05811
2538.24258,0.05793
2537.27820,0.05773
2536.31382,0.05756
2535.34945,0.05753
2534.38507,0.05743
2533.42069,0.05746
2532.45631,0.05742
2531.49194,0.05724
2530.52756,0.05740
2529.56318,0.05747
2528.59880,0.05759
2527.63442,0.05782
2526.67005,0.05759
2525.70567,0.05736
2524.74129,0.05728
2523.77691,0.05671
2522.81253,0.05625
2521.84816,0.05651
2520.88378,0.05675
2519.91940,0.05662
2518.95502,0.05631
2517.99065,0.05630
2517.02627,0.05669
2516.06189,0.05685
2515.09751,0.05682
2514.13313,0.05668
2513.16876,0.05657
2512.20438,0.05668
2511.24000,0.05675
2510.27562,0.05675
2509.31124,0.05645
2508.34687,0.05602
2507.38249,0.05595
2506.41811,0.05595
2505.45373,0.05611
2504.48935,0.05635
2503.52498,0.05603
2502.56060,0.05564
2501.59622,0.05554
2500.63184,0.05539
2499.66747,0.05562
2498.70309,0.05590
2497.73871,0.05585
2496.77433,0.05593
2495.80995,0.05598
2494.84558,0.05589
2493.88120,0.05590
2492.91682,0.05597
2491.95244,0.05581
2490.98806,0.05554
2490.02369,0.05556
2489.05931,0.05553
2488.09493,0.05549
2487.13055,0.05536
2486.16618,0.05495
2485.20180,0.05485
2484.23742,0.05512
2483.27304,0.05536
2482.30866,0.05523
2481.34429,0.05515
2480.37991,0.05510
2479.41553,0.05477
2478.45115,0.05477
2477.48677,0.05468
2476.52240,0.05442
2475.55802,0.05455
2474.59364,0.05452
2473.62926,0.05425
2472.66488,0.05418
2471.70051,0.05435
2470.73613,0.05458
2469.77175,0.05470
2468.80737,0.05429
2467.84300,0.05381
2466.87862,0.05401
2465.91424,0.05416
2464.94986,0.05421
2463.98548,0.05436
2463.02111,0.05457
2462.05673,0.05458
2461.09235,0.05367
2460.12797,0.05322
2459.16359,0.05368
2458.19922,0.05394
2457.23484,0.05400
2456.27046,0.05376
2455.30608,0.05342
2454.34171,0.05330
2453.37733,0.05325
2452.41295,0.05322
2451.44857,0.05332
2450.48419,0.05340
2449.51982,0.05329
2448.55544,0.05331
2447.59106,0.05332
2446.62668,0.05326
2445.66230,0.05313
2444.69793,0.05298
2443.73355,0.05328
2442.76917,0.05340
2441.80479,0.05304
2440.84041,0.05319
2439.87604,0.05364
2438.91166,0.05345
2437.94728,0.05308
2436.98290,0.05314
2436.01853,0.05316
2435.05415,0.05290
2434.08977,0.05272
2433.12539,0.05272
2432.16101,0.05252
2431.19664,0.05236
2430.23226,0.05248
2429.26788,0.05247
2428.30350,0.05244
2427.33912,0.05234
2426.37475,0.05212
2425.41037,0.05222
2424.44599,0.05243
2423.48161,0.05228
2422.51724,0.05218
2421.55286,0.05235
2420.58848,0.05233
2419.62410,0.05220
2418.65972,0.05199
2417.69535,0.05183
2416.73097,0.05186
2415.76659,0.05198
2414.80221,0.05223
2413.83783,0.05228
2412.87346,0.05225
2411.90908,0.05196
2410.94470,0.05156
2409.98032,0.05172
2409.01594,0.05184
2408.05157,0.05180
2407.08719,0.05192
2406.12281,0.05197
2405.15843,0.05182
2404.19406,0.05166
2403.22968,0.05161
2402.26530,0.05135
2401.30092,0.05127
2400.33654,0.05153
2399.37217,0.05158
2398.40779,0.05162
2397.44341,0.05179
2396.47903,0.05179
2395.51465,0.05140
2394.55028,0.05105
2393.58590,0.05114
2392.62152,0.05138
2391.65714,0.05146
2390.69276,0.05137
2389.72839,0.05137
2388.76401,0.05148
2387.79963,0.05149
2386.83525,0.05119
2385.87088,0.05087
2384.90650,0.05085
2383.94212,0.05078
2382.97774,0.05067
2382.01336,0.05084
2381.04899,0.05095
2380.08461,0.05101
2379.12023,0.05124
2378.15585,0.05144
2377.19147,0.05146
2376.22710,0.05146
2375.26272,0.05181
2374.29834,0.05230
2373.33396,0.05230
2372.36959,0.05231
2371.40521,0.05261
2370.44083,0.05269
2369.47645,0.05286
2368.51207,0.05335
2367.54770,0.05366
2366.58332,0.05347
2365.61894,0.05312
2364.65456,0.05315
2363.69018,0.05357
2362.72581,0.05373
2361.76143,0.05352
2360.79705,0.05338
2359.83267,0.05319
2358.86829,0.05301
2357.90392,0.05293
2356.93954,0.05289
2355.97516,0.05296
2355.01078,0.05287
2354.04641,0.05252
2353.08203,0.05211
2352.11765,0.05185
2351.15327,0.05144
2350.18889,0.05095
2349.22452,0.05073
2348.26014,0.05063
2347.29576,0.05086
2346.33138,0.05135
2345.36700,0.05163
2344.40263,0.05187
2343.43825,0.05215
2342.47387,0.05224
2341.50949,0.05198
2340.54512,0.05195
2339.58074,0.05216
2338.61636,0.05196
2337.65198,0.05195
2336.68760,0.05212
2335.72323,0.05183
2334.75885,0.05157
2333.79447,0.05156
2332.83009,0.05149
2331.86571,0.05146
2330.90134,0.05160
2329.93696,0.05156
2328.97258,0.05134
2328.00820,0.05124
2327.04382,0.05117
2326.07945,0.05109
2325.11507,0.05107
2324.15069,0.05093
2323.18631,0.05063
2322.22194,0.05027
2321.25756,0.04989
2320.29318,0.04976
2319.32880,0.04992
2318.36442,0.04990
2317.40005,0.04967
2316.43567,0.04942
2315.47129,0.04909
2314.50691,0.04905
2313.54253,0.04918
2312.57816,0.04875
2311.61378,0.04828
2310.64940,0.04838
2309.68502,0.04855
2308.72065,0.04851
2307.75627,0.04833
2306.79189,0.04812
2305.82751,0.04795
2304.86313,0.04807
2303.89876,0.04791
2302.93438,0.04755
2301.97000,0.04779
2301.00562,0.04768
2300.04124,0.04722
2299.07687,0.04702
2298.11249,0.04682
2297.14811,0.04692
2296.18373,0.04692
2295.21935,0.04714
2294.25498,0.04757
2293.29060,0.04729
2292.32622,0.04687
2291.36184,0.04660
2290.39747,0.04689
2289.43309,0.04744
2288.46871,0.04742
2287.50433,0.04715
2286.53995,0.04661
2285.57558,0.04635
2284.61120,0.04622
2283.64682,0.04599
2282.68244,0.04657
2281.71806,0.04693
2280.75369,0.04637
2279.78931,0.04567
2278.82493,0.04517
2277.86055,0.04500
2276.89618,0.04511
2275.93180,0.04534
2274.96742,0.04506
2274.00304,0.04458
2273.03866,0.04500
2272.07429,0.04562
2271.10991,0.04591
2270.14553,0.04588
2269.18115,0.04584
2268.21677,0.04581
2267.25240,0.04577
2266.28802,0.04574
2265.32364,0.04570
2264.35926,0.04566
2263.39488,0.04563
2262.43051,0.04559
2261.46613,0.04556
2260.50175,0.04552
2259.53737,0.04549
2258.57300,0.04545
2257.60862,0.04542
2256.64424,0.04538
2255.67986,0.04535
2254.71548,0.04531
2253.75111,0.04528
2252.78673,0.04524
2251.82235,0.04521
2250.85797,0.04517
2249.89359,0.04514
2248.92922,0.04510
2247.96484,0.04507
2247.00046,0.04503
2246.03608,0.04500
2245.07171,0.04496
2244.10733,0.04493
2243.14295,0.04489
2242.17857,0.04486
2241.21419,0.04482
2240.24982,0.04479
2239.28544,0.04475
2238.32106,0.04472
2237.35668,0.04468
2236.39230,0.04465
2235.42793,0.04461
2234.46355,0.04458
2233.49917,0.04454
2232.53479,0.04451
2231.57041,0.04447
2230.60604,0.04444
2229.64166,0.04440
2228.67728,0.04437
2227.71290,0.04433
2226.74853,0.04430
2225.78415,0.04426
2224.81977,0.04423
2223.85539,0.04419
2222.89101,0.04416
2221.92664,0.04412
2220.96226,0.04409
2219.99788,0.04405
2219.03350,0.04402
2218.06912,0.04398
2217.10475,0.04395
2216.14037,0.04391
2215.17599,0.04388
2214.21161,0.04384
2213.24724,0.04381
2212.28286,0.04377
2211.31848,0.04374
2210.35410,0.04370
2209.38972,0.04367
2208.42535,0.04363
2207.46097,0.04360
2206.49659,0.04356
2205.53221,0.04352
2204.56783,0.04349
2203.60346,0.04345
2202.63908,0.04342
2201.67470,0.04338
2200.71032,0.04335
2199.74594,0.04331
2198.78157,0.04328
2197.81719,0.04324
2196.85281,0.04321
2195.88843,0.04317
2194.92406,0.04314
2193.95968,0.04310
2192.99530,0.04307
2192.03092,0.04303
2191.06654,0.04300
2190.10217,0.04296
2189.13779,0.04293
2188.17341,0.04289
2187.20903,0.04286
2186.24465,0.04282
2185.28028,0.04279
2184.31590,0.04275
2183.35152,0.04272
2182.38714,0.04268
2181.42276,0.04265
2180.45839,0.04261
2179.49401,0.04258
2178.52963,0.04254
2177.56525,0.04251
2176.60088,0.04247
2175.63650,0.04244
2174.67212,0.04240
2173.70774,0.04237
2172.74336,0.04233
2171.77899,0.04230
2170.81461,0.04226
2169.85023,0.04223
2168.88585,0.04219
2167.92147,0.04216
2166.95710,0.04212
2165.99272,0.04209
2165.02834,0.04205
2164.06396,0.04202
2163.09959,0.04198
2162.13521,0.04195
2161.17083,0.04191
2160.20645,0.04188
2159.24207,0.04184
2158.27770,0.04181
2157.31332,0.04177
2156.34894,0.04174
2155.38456,0.04170
2154.42018,0.04167
2153.45581,0.04163
2152.49143,0.04160
2151.52705,0.04156
2150.56267,0.04153
2149.59829,0.04149
2148.63392,0.04146
2147.66954,0.04142
2146.70516,0.04139
2145.74078,0.04135
2144.77641,0.04131
2143.81203,0.04128
2142.84765,0.04124
2141.88327,0.04121
2140.91889,0.04117
2139.95452,0.04114
2138.99014,0.04110
2138.02576,0.04107
2137.06138,0.04103
2136.09700,0.04100
2135.13263,0.04096
2134.16825,0.04093
2133.20387,0.04089
2132.23949,0.04086
2131.27512,0.04082
2130.31074,0.04079
2129.34636,0.04075
2128.38198,0.04072
2127.41760,0.04068
2126.45323,0.04065
2125.48885,0.04061
2124.52447,0.04058
2123.56009,0.04054
2122.59571,0.04051
2121.63134,0.04047
2120.66696,0.04044
2119.70258,0.04040
2118.73820,0.04037
2117.77382,0.04033
2116.80945,0.04030
2115.84507,0.04026
2114.88069,0.04023
2113.91631,0.04019
2112.95194,0.04016
2111.98756,0.04012
2111.02318,0.04009
2110.05880,0.04005
2109.09442,0.04002
2108.13005,0.03998
2107.16567,0.03995
2106.20129,0.03991
2105.23691,0.03988
2104.27253,0.03984
2103.30816,0.03981
2102.34378,0.03977
2101.37940,0.03974
2100.41502,0.03970
2099.45065,0.03967
2098.48627,0.03963
2097.52189,0.03960
2096.55751,0.03956
2095.59313,0.03953
2094.62876,0.03949
2093.66438,0.03946
2092.70000,0.03942
2091.73562,0.03939
2090.77124,0.03935
2089.80687,0.03932
2088.84249,0.03928
2087.87811,0.03925
2086.91373,0.03921
2085.94935,0.03917
2084.98498,0.03914
2084.02060,0.03910
2083.05622,0.03907
2082.09184,0.03903
2081.12747,0.03900
2080.16309,0.03896
2079.19871,0.03893
2078.23433,0.03889
2077.26995,0.03886
2076.30558,0.03882
2075.34120,0.03879
2074.37682,0.03875
2073.41244,0.03872
2072.44806,0.03868
2071.48369,0.03865
2070.51931,0.03861
2069.55493,0.03858
2068.59055,0.03854
2067.62618,0.03851
2066.66180,0.03847
2065.69742,0.03844
2064.73304,0.03840
2063.76866,0.03837
2062.80429,0.03833
2061.83991,0.03830
2060.87553,0.03826
2059.91115,0.03823
2058.94677,0.03819
2057.98240,0.03816
2057.01802,0.03812
2056.05364,0.03809
2055.08926,0.03805
2054.12488,0.03802
2053.16051,0.03798
2052.19613,0.03795
2051.23175,0.03791
2050.26737,0.03788
2049.30300,0.03784
2048.33862,0.03781
2047.37424,0.03777
2046.40986,0.03774
2045.44548,0.03770
2044.48111,0.03767
2043.51673,0.03763
2042.55235,0.03760
2041.58797,0.03756
2040.62359,0.03753
2039.65922,0.03749
2038.69484,0.03746
2037.73046,0.03742
2036.76608,0.03739
2035.80171,0.03735
2034.83733,0.03732
2033.87295,0.03728
2032.90857,0.03725
2031.94419,0.03721
2030.97982,0.03718
2030.01544,0.03714
2029.05106,0.03711
2028.08668,0.03707
2027.12230,0.03703
2026.15793,0.03700
2025.19355,0.03696
2024.22917,0.03693
2023.26479,0.03689
2022.30041,0.03686
2021.33604,0.03682
2020.37166,0.03679
2019.40728,0.03675
2018.44290,0.03672
2017.47853,0.03668
2016.51415,0.03665
2015.54977,0.03661
2014.58539,0.03658
2013.62101,0.03654
2012.65664,0.03651
2011.69226,0.03647
2010.72788,0.03644
2009.76350,0.03640
2008.79912,0.03637
2007.83475,0.03633
2006.87037,0.03630
2005.90599,0.03626
2004.94161,0.03623
2003.97724,0.03619
2003.01286,0.03616
2002.04848,0.03612
2001.08410,0.03609
2000.11972,0.03605
1999.15535,0.03602
1998.19097,0.03598
1997.22659,0.03595
1996.26221,0.03591
1995.29783,0.03588
1994.33346,0.03584
1993.36908,0.03581
1992.40470,0.03577
1991.44032,0.03574
1990.47594,0.03570
1989.51157,0.03567
1988.54719,0.03563
1987.58281,0.03560
1986.61843,0.03556
1985.65406,0.03553
1984.68968,0.03549
1983.72530,0.03546
1982.76092,0.03542
1981.79654,0.03539
1980.83217,0.03535
1979.86779,0.03532
1978.90341,0.03528
1977.93903,0.03525
1976.97465,0.03521
1976.01028,0.03518
1975.04590,0.03514
1974.08152,0.03511
1973.11714,0.03507
1972.15276,0.03504
1971.18839,0.03500
1970.22401,0.03497
1969.25963,0.03493
1968.29525,0.03490
1967.33088,0.03486
1966.36650,0.03482
1965.40212,0.03479
1964.43774,0.03475
1963.47336,0.03472
1962.50899,0.03468
1961.54461,0.03465
1960.58023,0.03461
1959.61585,0.03458
1958.65147,0.03454
1957.68710,0.03451
1956.72272,0.03447
1955.75834,0.03444
1954.79396,0.03440
1953.82959,0.03437
1952.86521,0.03433
1951.90083,0.03430
1950.93645,0.03426
1949.97207,0.03423
1949.00770,0.03419
1948.04332,0.03416
1947.07894,0.03412
1946.11456,0.03409
1945.15018,0.03405
1944.18581,0.03402
1943.22143,0.03398
1942.25705,0.03395
1941.29267,0.03391
1940.32829,0.03388
1939.36392,0.03384
1938.39954,0.03381
1937.43516,0.03377
1936.47078,0.03374
1935.50641,0.03370
1934.54203,0.03367
1933.57765,0.03363
1932.61327,0.03360
1931.64889,0.03356
1930.68452,0.03353
1929.72014,0.03349
1928.75576,0.03346
1927.79138,0.03342
1926.82700,0.03339
1925.86263,0.03357
1924.89825,0.03334
1923.93387,0.03294
1922.96949,0.03349
1922.00512,0.03422
1921.04074,0.03447
1920.07636,0.03443
1919.11198,0.03427
1918.14760,0.03386
1917.18323,0.03361
1916.21885,0.03391
1915.25447,0.03368
1914.29009,0.03335
1913.32571,0.03385
1912.36134,0.03410
1911.39696,0.03381
1910.43258,0.03360
1909.46820,0.03368
1908.50382,0.03379
1907.53945,0.03334
1906.57507,0.03305
1905.61069,0.03339
1904.64631,0.03347
1903.68194,0.03336
1902.71756,0.03310
1901.75318,0.03277
1900.78880,0.03308
1899.82442,0.03345
1898.86005,0.03337
1897.89567,0.03314
1896.93129,0.03318
1895.96691,0.03301
1895.00253,0.03249
1894.03816,0.03287
1893.07378,0.03346
1892.10940,0.03347
1891.14502,0.03364
1890.18065,0.03383
1889.21627,0.03376
1888.25189,0.03361
1887.28751,0.03346
1886.32313,0.03328
1885.35876,0.03305
1884.39438,0.03272
1883.43000,0.03266
1882.46562,0.03302
1881.50124,0.03288
1880.53687,0.03271
1879.57249,0.03316
1878.60811,0.03349
1877.64373,0.03354
1876.67935,0.03351
1875.71498,0.03347
1874.75060,0.03341
1873.78622,0.03322
1872.82184,0.03306
1871.85747,0.03290
1870.89309,0.03309
1869.92871,0.03367
1868.96433,0.03352
1867.99995,0.03290
1867.03558,0.03286
1866.07120,0.03296
1865.10682,0.03290
1864.14244,0.03300
1863.17806,0.03333
1862.21369,0.03352
1861.24931,0.03353
1860.28493,0.03368
1859.32055,0.03350
1858.35618,0.03322
1857.39180,0.03342
1856.42742,0.03365
1855.46304,0.03356
1854.49866,0.03338
1853.53429,0.03345
1852.56991,0.03352
1851.60553,0.03357
1850.64115,0.03390
1849.67677,0.03395
1848.71240,0.03375
1847.74802,0.03399
1846.78364,0.03418
1845.81926,0.03418
1844.85488,0.03456
1843.89051,0.03476
1842.92613,0.03438
1841.96175,0.03425
1840.99737,0.03463
1840.03300,0.03500
1839.06862,0.03512
1838.10424,0.03513
1837.13986,0.03523
1836.17548,0.03522
1835.21111,0.03499
1834.24673,0.03495
1833.28235,0.03498
1832.31797,0.03509
1831.35359,0.03545
1830.38922,0.03580
1829.42484,0.03599
1828.46046,0.03583
1827.49608,0.03572
1826.53171,0.03611
1825.56733,0.03652
1824.60295,0.03659
1823.63857,0.03641
1822.67419,0.03635
1821.70982,0.03639
1820.74544,0.03636
1819.78106,0.03653
1818.81668,0.03681
1817.85230,0.03694
1816.88793,0.03676
1815.92355,0.03656
1814.95917,0.03666
1813.99479,0.03685
1813.03041,0.03705
1812.06604,0.03725
1811.10166,0.03716
1810.13728,0.03698
1809.17290,0.03706
1808.20853,0.03716
1807.24415,0.03726
1806.27977,0.03742
1805.31539,0.03747
1804.35101,0.03753
1803.38664,0.03761
1802.42226,0.03771
1801.45788,0.03785
1800.49350,0.03807
1799.52912,0.03824
1798.56475,0.03826
1797.60037,0.03839
1796.63599,0.03851
1795.67161,0.03862
1794.70724,0.03883
1793.74286,0.03907
1792.77848,0.03929
1791.81410,0.03932
1790.84972,0.03932
1789.88535,0.03948
1788.92097,0.03970
1787.95659,0.03997
1786.99221,0.04029
1786.02783,0.04051
1785.06346,0.04053
1784.09908,0.04083
1783.13470,0.04134
1782.17032,0.04163
1781.20594,0.04190
1780.24157,0.04220
1779.27719,0.04254
1778.31281,0.04296
1777.34843,0.04326
1776.38406,0.04358
1775.41968,0.04405
1774.45530,0.04452
1773.49092,0.04511
1772.52654,0.04567
1771.56217,0.04604
1770.59779,0.04621
1769.63341,0.04643
1768.66903,0.04702
1767.70465,0.04741
1766.74028,0.04763
1765.77590,0.04810
1764.81152,0.04845
1763.84714,0.04884
1762.88276,0.04936
1761.91839,0.04984
1760.95401,0.05015
1759.98963,0.05041
1759.02525,0.05093
1758.06088,0.05146
1757.09650,0.05190
1756.13212,0.05208
1755.16774,0.05227
1754.20336,0.05271
1753.23899,0.05301
1752.27461,0.05351
1751.31023,0.05398
1750.34585,0.05398
1749.38147,0.05411
1748.41710,0.05444
1747.45272,0.05477
1746.48834,0.05508
1745.52396,0.05521
1744.55959,0.05532
1743.59521,0.05552
1742.63083,0.05568
1741.66645,0.05583
1740.70207,0.05609
1739.73770,0.05625
1738.77332,0.05622
1737.80894,0.05622
1736.84456,0.05620
1735.88018,0.05637
1734.91581,0.05672
1733.95143,0.05665
1732.98705,0.05631
1732.02267,0.05606
1731.05829,0.05595
1730.09392,0.05591
1729.12954,0.05573
1728.16516,0.05560
1727.20078,0.05542
1726.23641,0.05525
1725.27203,0.05510
1724.30765,0.05485
1723.34327,0.05474
1722.37889,0.05456
1721.41452,0.05425
1720.45014,0.05406
1719.48576,0.05393
1718.52138,0.05385
1717.55700,0.05361
1716.59263,0.05312
1715.62825,0.05280
1714.66387,0.05264
1713.69949,0.05221
1712.73512,0.05176
1711.77074,0.05149
1710.80636,0.05120
1709.84198,0.05087
1708.87760,0.05051
1707.91323,0.05026
1706.94885,0.05006
1705.98447,0.04982
1705.02009,0.04947
1704.05571,0.04905
1703.09134,0.04864
1702.12696,0.04838
1701.16258,0.04859
1700.19820,0.04852
1699.23382,0.04777
1698.26945,0.04714
1697.30507,0.04696
1696.34069,0.04705
1695.37631,0.04660
1694.41194,0.04582
1693.44756,0.04545
1692.48318,0.04526
1691.51880,0.04508
1690.55442,0.04491
1689.59005,0.04475
1688.62567,0.04449
1687.66129,0.04410
1686.69691,0.04382
1685.73253,0.04403
1684.76816,0.04421
1683.80378,0.04376
1682.83940,0.04327
1681.87502,0.04295
1680.91065,0.04272
1679.94627,0.04255
1678.98189,0.04245
1678.01751,0.04235
1677.05313,0.04217
1676.08876,0.04225
1675.12438,0.04226
1674.16000,0.04202
1673.19562,0.04192
1672.23124,0.04192
1671.26687,0.04189
1670.30249,0.04192
1669.33811,0.04200
1668.37373,0.04187
1667.40935,0.04169
1666.44498,0.04169
1665.48060,0.04167
1664.51622,0.04171
1663.55184,0.04197
1662.58747,0.04219
1661.62309,0.04212
1660.65871,0.04211
1659.69433,0.04224
1658.72995,0.04238
1657.76558,0.04257
1656.80120,0.04268
1655.83682,0.04289
1654.87244,0.04325
1653.90806,0.04391
1652.94369,0.04452
1651.97931,0.04432
1651.01493,0.04400
1650.05055,0.04406
1649.08618,0.04435
1648.12180,0.04465
1647.15742,0.04501
1646.19304,0.04541
1645.22866,0.04556
1644.26429,0.04571
1643.29991,0.04598
1642.33553,0.04625
1641.37115,0.04655
1640.40677,0.04693
1639.44240,0.04737
1638.47802,0.04780
1637.51364,0.04820
1636.54926,0.04877
1635.58488,0.04945
1634.62051,0.04969
1633.65613,0.04986
1632.69175,0.05039
1631.72737,0.05093
1630.76300,0.05153
1629.79862,0.05209
1628.83424,0.05259
1627.86986,0.05315
1626.90548,0.05360
1625.94111,0.05400
1624.97673,0.05444
1624.01235,0.05501
1623.04797,0.05541
1622.08359,0.05562
1621.11922,0.05603
1620.15484,0.05643
1619.19046,0.05675
1618.22608,0.05724
1617.26171,0.05788
1616.29733,0.05801
1615.33295,0.05782
1614.36857,0.05803
1613.40419,0.05834
1612.43982,0.05848
1611.47544,0.05867
1610.51106,0.05899
1609.54668,0.05921
1608.58230,0.05939
1607.61793,0.05966
1606.65355,0.05992
1605.68917,0.06020
1604.72479,0.06049
1603.76041,0.06073
1602.79604,0.06096
1601.83166,0.06128
1600.86728,0.06165
1599.90290,0.06202
1598.93853,0.06244
1597.97415,0.06286
1597.00977,0.06321
1596.04539,0.06344
1595.08101,0.06375
1594.11664,0.06410
1593.15226,0.06436
1592.18788,0.06469
1591.22350,0.06505
1590.25912,0.06535
1589.29475,0.06554
1588.33037,0.06572
1587.36599,0.06589
1586.40161,0.06602
1585.43724,0.06615
1584.47286,0.06622
1583.50848,0.06622
1582.54410,0.06622
1581.57972,0.06621
1580.61535,0.06616
1579.65097,0.06614
1578.68659,0.06599
1577.72221,0.06586
1576.75783,0.06590
1575.79346,0.06556
1574.82908,0.06495
1573.86470,0.06449
1572.90032,0.06416
1571.93594,0.06380
1570.97157,0.06347
1570.00719,0.06325
1569.04281,0.06278
1568.07843,0.06209
1567.11406,0.06144
1566.14968,0.06090
1565.18530,0.06041
1564.22092,0.05987
1563.25654,0.05926
1562.29217,0.05869
1561.32779,0.05844
1560.36341,0.05825
1559.39903,0.05780
1558.43465,0.05724
1557.47028,0.05631
1556.50590,0.05531
1555.54152,0.05485
1554.57714,0.05451
1553.61276,0.05382
1552.64839,0.05311
1551.68401,0.05257
1550.71963,0.05212
1549.75525,0.05164
1548.79088,0.05106
1547.82650,0.05054
1546.86212,0.05009
1545.89774,0.04968
1544.93336,0.04924
1543.96899,0.04874
1543.00461,0.04844
1542.04023,0.04817
1541.07585,0.04774
1540.11147,0.04752
1539.14710,0.04719
1538.18272,0.04640
1537.21834,0.04581
1536.25396,0.04549
1535.28959,0.04520
1534.32521,0.04496
1533.36083,0.04455
1532.39645,0.04405
1531.43207,0.04376
1530.46770,0.04355
1529.50332,0.04330
1528.53894,0.04308
1527.57456,0.04275
1526.61018,0.04253
1525.64581,0.04241
1524.68143,0.04208
1523.71705,0.04188
1522.75267,0.04188
1521.78829,0.04190
1520.82392,0.04167
1519.85954,0.04115
1518.89516,0.04089
1517.93078,0.04088
1516.96641,0.04080
1516.00203,0.04063
1515.03765,0.04050
1514.07327,0.04040
1513.10889,0.04037
1512.14452,0.04026
1511.18014,0.04007
1510.21576,0.04002
1509.25138,0.03997
1508.28700,0.04004
1507.32263,0.04027
1506.35825,0.04039
1505.39387,0.04016
1504.42949,0.03978
1503.46512,0.03966
1502.50074,0.03967
1501.53636,0.03963
1500.57198,0.03963
1499.60760,0.03977
1498.64323,0.03988
1497.67885,0.03988
1496.71447,0.04001
1495.75009,0.03998
1494.78571,0.03992
1493.82134,0.04005
1492.85696,0.04015
1491.89258,0.04032
1490.92820,0.04050
1489.96382,0.04059
1488.99945,0.04062
1488.03507,0.04079
1487.07069,0.04095
1486.10631,0.04097
1485.14194,0.04110
1484.17756,0.04129
1483.21318,0.04145
1482.24880,0.04161
1481.28442,0.04179
1480.32005,0.04196
1479.35567,0.04215
1478.39129,0.04241
1477.42691,0.04272
1476.46253,0.04298
1475.49816,0.04307
1474.53378,0.04341
1473.56940,0.04395
1472.60502,0.04430
1471.64065,0.04449
1470.67627,0.04464
1469.71189,0.04492
1468.74751,0.04527
1467.78313,0.04559
1466.81876,0.04590
1465.85438,0.04631
1464.89000,0.04675
1463.92562,0.04686
1462.96124,0.04703
1461.99687,0.04742
1461.03249,0.04783
1460.06811,0.04830
1459.10373,0.04864
1458.13935,0.04911
1457.17498,0.04983
1456.21060,0.05017
1455.24622,0.05015
1454.28184,0.05034
1453.31747,0.05066
1452.35309,0.05094
1451.38871,0.05133
1450.42433,0.05168
1449.45995,0.05200
1448.49558,0.05240
1447.53120,0.05285
1446.56682,0.05318
1445.60244,0.05344
1444.63806,0.05384
1443.67369,0.05420
1442.70931,0.05453
1441.74493,0.05485
1440.78055,0.05516
1439.81618,0.05555
1438.85180,0.05591
1437.88742,0.05641
1436.92304,0.05695
1435.95866,0.05712
1434.99429,0.05725
1434.02991,0.05759
1433.06553,0.05789
1432.10115,0.05816
1431.13677,0.05853
1430.17240,0.05887
1429.20802,0.05914
1428.24364,0.05937
1427.27926,0.05967
1426.31488,0.05997
1425.35051,0.06027
1424.38613,0.06060
1423.42175,0.06083
1422.45737,0.06103
1421.49300,0.06123
1420.52862,0.06166
1419.56424,0.06207
1418.59986,0.06208
1417.63548,0.06217
1416.67111,0.06240
1415.70673,0.06256
1414.74235,0.06276
1413.77797,0.06302
1412.81359,0.06328
1411.84922,0.06346
1410.88484,0.06368
1409.92046,0.06386
1408.95608,0.06393
1407.99171,0.06398
1407.02733,0.06411
1406.06295,0.06442
1405.09857,0.06464
1404.13419,0.06478
1403.16982,0.06490
1402.20544,0.06497
1401.24106,0.06509
1400.27668,0.06530
1399.31230,0.06546
1398.34793,0.06552
1397.38355,0.06556
1396.41917,0.06564
1395.45479,0.06582
1394.49041,0.06588
1393.52604,0.06581
1392.56166,0.06592
1391.59728,0.06609
1390.63290,0.06614
1389.66853,0.06618
1388.70415,0.06634
1387.73977,0.06649
1386.77539,0.06657
1385.81101,0.06661
1384.84664,0.06662
1383.88226,0.06673
1382.91788,0.06684
1381.95350,0.06685
1380.98912,0.06693
1380.02475,0.06705
1379.06037,0.06713
1378.09599,0.06720
1377.13161,0.06725
1376.16724,0.06727
1375.20286,0.06736
1374.23848,0.06748
1373.27410,0.06749
1372.30972,0.06748
1371.34535,0.06758
1370.38097,0.06763
1369.41659,0.06759
1368.45221,0.06764
1367.48783,0.06769
1366.52346,0.06769
1365.55908,0.06768
1364.59470,0.06770
1363.63032,0.06784
1362.66594,0.06791
1361.70157,0.06793
1360.73719,0.06800
1359.77281,0.06791
1358.80843,0.06778
1357.84406,0.06783
1356.87968,0.06787
1355.91530,0.06782
1354.95092,0.06784
1353.98654,0.06796
1353.02217,0.06803
1352.05779,0.06799
1351.09341,0.06795
1350.12903,0.06795
1349.16465,0.06791
1348.20028,0.06790
1347.23590,0.06788
1346.27152,0.06787
1345.30714,0.06787
1344.34276,0.06790
1343.37839,0.06797
1342.41401,0.06795
1341.44963,0.06798
1340.48525,0.06807
1339.52088,0.06809
1338.55650,0.06811
1337.59212,0.06816
1336.62774,0.06818
1335.66336,0.06810
1334.69899,0.06807
1333.73461,0.06815
1332.77023,0.06820
1331.80585,0.06822
1330.84147,0.06826
1329.87710,0.06829
1328.91272,0.06831
1327.94834,0.06840
1326.98396,0.06850
1326.01959,0.06856
1325.05521,0.06863
1324.09083,0.06874
1323.12645,0.06887
1322.16207,0.06898
1321.19770,0.06904
1320.23332,0.06909
1319.26894,0.06912
1318.30456,0.06922
1317.34018,0.06940
1316.37581,0.06960
1315.41143,0.06978
1314.44705,0.06984
1313.48267,0.06988
1312.51829,0.07003
1311.55392,0.07012
1310.58954,0.07024
1309.62516,0.07051
1308.66078,0.07072
1307.69641,0.07084
1306.73203,0.07094
1305.76765,0.07113
1304.80327,0.07135
1303.83889,0.07155
1302.87452,0.07180
1301.91014,0.07205
1300.94576,0.07226
1299.98138,0.07240
1299.01700,0.07256
1298.05263,0.07281
1297.08825,0.07306
1296.12387,0.07328
1295.15949,0.07352
1294.19512,0.07389
1293.23074,0.07417
1292.26636,0.07430
1291.30198,0.07444
1290.33760,0.07466
1289.37323,0.07498
1288.40885,0.07530
1287.44447,0.07557
1286.48009,0.07576
1285.51571,0.07594
1284.55134,0.07619
1283.58696,0.07649
1282.62258,0.07674
1281.65820,0.07693
1280.69382,0.07722
1279.72945,0.07752
1278.76507,0.07779
1277.80069,0.07798
1276.83631,0.07817
1275.87194,0.07852
1274.90756,0.07867
1273.94318,0.07881
1272.97880,0.07910
1272.01442,0.07938
1271.05005,0.07968
1270.08567,0.07990
1269.12129,0.08010
1268.15691,0.08035
1267.19253,0.08057
1266.22816,0.08077
1265.26378,0.08095
1264.29940,0.08110
1263.33502,0.08125
1262.37065,0.08150
1261.40627,0.08168
1260.44189,0.08185
1259.47751,0.08209
1258.51313,0.08226
1257.54876,0.08243
1256.58438,0.08259
1255.62000,0.08273
1254.65562,0.08290
1253.69124,0.08307
1252.72687,0.08324
1251.76249,0.08339
1250.79811,0.08348
1249.83373,0.08355
1248.86935,0.08364
1247.90498,0.08376
1246.94060,0.08388
1245.97622,0.08393
1245.01184,0.08394
1244.04747,0.08404
1243.08309,0.08414
1242.11871,0.08414
1241.15433,0.08413
1240.18995,0.08419
1239.22558,0.08424
1238.26120,0.08422
1237.29682,0.08426
1236.33244,0.08431
1235.36806,0.08425
1234.40369,0.08421
1233.43931,0.08421
1232.47493,0.08414
1231.51055,0.08405
1230.54618,0.08397
1229.58180,0.08387
1228.61742,0.08377
1227.65304,0.08364
1226.68866,0.08350
1225.72429,0.08337
1224.75991,0.08323
1223.79553,0.08308
1222.83115,0.08286
1221.86677,0.08260
1220.90240,0.08240
1219.93802,0.08222
1218.97364,0.08201
1218.00926,0.08175
1217.04488,0.08146
1216.08051,0.08124
1215.11613,0.08108
1214.15175,0.08084
1213.18737,0.08056
1212.22300,0.08030
1211.25862,0.08002
1210.29424,0.07977
1209.32986,0.07958
1208.36548,0.07934
1207.40111,0.07907
1206.43673,0.07894
1205.47235,0.07877
1204.50797,0.07848
1203.54359,0.07824
1202.57922,0.07799
1201.61484,0.07776
1200.65046,0.07753
1199.68608,0.07729
1198.72171,0.07709
1197.75733,0.07693
1196.79295,0.07680
1195.82857,0.07661
1194.86419,0.07640
1193.89982,0.07627
1192.93544,0.07615
1191.97106,0.07601
1191.00668,0.07589
1190.04230,0.07579
1189.07793,0.07562
1188.11355,0.07537
1187.14917,0.07523
1186.18479,0.07513
1185.22041,0.07501
1184.25604,0.07491
1183.29166,0.07474
1182.32728,0.07456
1181.36290,0.07445
1180.39853,0.07444
1179.43415,0.07441
1178.46977,0.07427
1177.50539,0.07412
1176.54101,0.07402
1175.57664,0.07396
1174.61226,0.07395
1173.64788,0.07389
1172.68350,0.07376
1171.71912,0.07358
1170.75475,0.07337
1169.79037,0.07329
1168.82599,0.07333
1167.86161,0.07329
1166.89724,0.07309
1165.93286,0.07290
1164.96848,0.07278
1164.00410,0.07270
1163.03972,0.07267
1162.07535,0.07262
1161.11097,0.07255
1160.14659,0.07247
1159.18221,0.07234
1158.21783,0.07230
1157.25346,0.07226
1156.28908,0.07213
1155.32470,0.07201
1154.36032,0.07183
1153.39594,0.07174
1152.43157,0.07176
1151.46719,0.07163
1150.50281,0.07140
1149.53843,0.07128
1148.57406,0.07126
1147.60968,0.07118
1146.64530,0.07107
1145.68092,0.07098
1144.71654,0.07086
1143.75217,0.07074
1142.78779,0.07064
1141.82341,0.07050
1140.85903,0.07040
1139.89465,0.07043
1138.93028,0.07054
1137.96590,0.07055
1137.00152,0.07048
1136.03714,0.07036
1135.07276,0.07022
1134.10839,0.07011
1133.14401,0.07000
1132.17963,0.07006
1131.21525,0.07024
1130.25088,0.07030
1129.28650,0.07027
1128.32212,0.07014
1127.35774,0.07008
1126.39336,0.07013
1125.42899,0.07019
1124.46461,0.07025
1123.50023,0.07017
1122.53585,0.07005
1121.57147,0.07009
1120.60710,0.07024
1119.64272,0.07028
1118.67834,0.07021
1117.71396,0.07023
1116.74959,0.07038
1115.78521,0.07053
1114.82083,0.07058
1113.85645,0.07051
1112.89207,0.07046
1111.92770,0.07060
1110.96332,0.07084
1109.99894,0.07098
1109.03456,0.07112
1108.07018,0.07133
1107.10581,0.07145
1106.14143,0.07146
1105.17705,0.07156
1104.21267,0.07174
1103.24829,0.07173
1102.28392,0.07172
1101.31954,0.07195
1100.35516,0.07220
1099.39078,0.07234
1098.42641,0.07257
1097.46203,0.07283
1096.49765,0.07296
1095.53327,0.07314
1094.56889,0.07340
1093.60452,0.07353
1092.64014,0.07368
1091.67576,0.07391
1090.71138,0.07411
1089.74700,0.07446
1088.78263,0.07480
1087.81825,0.07487
1086.85387,0.07491
1085.88949,0.07517
1084.92512,0.07545
1083.96074,0.07571
1082.99636,0.07603
1082.03198,0.07610
1081.06760,0.07602
1080.10323,0.07623
1079.13885,0.07643
1078.17447,0.07658
1077.21009,0.07682
1076.24571,0.07691
1075.28134,0.07693
1074.31696,0.07705
1073.35258,0.07711
1072.38820,0.07716
1071.42382,0.07733
1070.45945,0.07749
1069.49507,0.07762
1068.53069,0.07769
1067.56631,0.07758
1066.60194,0.07758
1065.63756,0.07764
1064.67318,0.07753
1063.70880,0.07747
1062.74442,0.07741
1061.78005,0.07729
1060.81567,0.07732
1059.85129,0.07735
1058.88691,0.07726
1057.92253,0.07717
1056.95816,0.07708
1055.99378,0.07690
1055.02940,0.07675
1054.06502,0.07660
1053.10065,0.07622
1052.13627,0.07586
1051.17189,0.07574
1050.20751,0.07550
1049.24313,0.07513
1048.27876,0.07476
1047.31438,0.07434
1046.35000,0.07394
1045.38562,0.07348
1044.42124,0.07298
1043.45687,0.07251
1042.49249,0.07207
1041.52811,0.07173
1040.56373,0.07138
1039.59935,0.07086
1038.63498,0.07036
1037.67060,0.06997
1036.70622,0.06951
1035.74184,0.06911
1034.77747,0.06866
1033.81309,0.06799
1032.84871,0.06755
1031.88433,0.06715
1030.91995,0.06649
1029.95558,0.06597
1028.99120,0.06566
1028.02682,0.06528
1027.06244,0.06480
1026.09806,0.06435
1025.13369,0.06390
1024.16931,0.06348
1023.20493,0.06310
1022.24055,0.06267
1021.27618,0.06230
1020.31180,0.06192
1019.34742,0.06150
1018.38304,0.06110
1017.41866,0.06083
1016.45429,0.06066
1015.48991,0.06038
1014.52553,0.06006
1013.56115,0.05974
1012.59677,0.05946
1011.63240,0.05926
1010.66802,0.05906
1009.70364,0.05889
1008.73926,0.05874
1007.77488,0.05845
1006.81051,0.05807
1005.84613,0.05784
1004.88175,0.05774
1003.91737,0.05767
1002.95300,0.05756
1001.98862,0.05743
1001.02424,0.05736
1000.05986,0.05722
999.09548,0.05709
998.13111,0.05701
997.16673,0.05689
996.20235,0.05676
995.23797,0.05662
994.27359,0.05656
993.30922,0.05657
992.34484,0.05649
991.38046,0.05636
990.41608,0.05624
989.45171,0.05617
988.48733,0.05596
987.52295,0.05558
986.55857,0.05545
985.59419,0.05551
984.62982,0.05535
983.66544,0.05515
982.70106,0.05513
981.73668,0.05508
980.77230,0.05484
979.80793,0.05458
978.84355,0.05450
977.87917,0.05441
976.91479,0.05402
975.95041,0.05369
974.98604,0.05366
974.02166,0.05353
973.05728,0.05328
972.09290,0.05298
971.12853,0.05261
970.16415,0.05236
969.19977,0.05216
968.23539,0.05194
967.27101,0.05161
966.30664,0.05137
965.34226,0.05125
964.37788,0.05105
963.41350,0.05094
962.44912,0.05065
961.48475,0.05037
960.52037,0.05019
959.55599,0.04988
958.59161,0.04965
957.62724,0.04934
956.66286,0.04911
955.69848,0.04900
954.73410,0.04869
953.76972,0.04834
952.80535,0.04807
951.84097,0.04794
950.87659,0.04771
949.91221,0.04747
948.94783,0.04734
947.98346,0.04702
947.01908,0.04671
946.05470,0.04652
945.09032,0.04639
944.12594,0.04618
943.16157,0.04581
942.19719,0.04553
941.23281,0.04537
940.26843,0.04532
939.30406,0.04525
938.33968,0.04510
937.37530,0.04490
936.41092,0.04464
935.44654,0.04423
934.48217,0.04398
933.51779,0.04397
932.55341,0.04364
931.58903,0.04327
930.62465,0.04311
929.66028,0.04295
928.69590,0.04287
927.73152,0.04268
926.76714,0.04235
925.80276,0.04217
924.83839,0.04215
923.87401,0.04206
922.90963,0.04185
921.94525,0.04172
920.98088,0.04155
920.01650,0.04127
919.05212,0.04109
918.08774,0.04110
917.12336,0.04099
916.15899,0.04070
915.19461,0.04071
914.23023,0.04069
913.26585,0.04044
912.30147,0.04030
911.33710,0.04021
910.37272,0.04021
909.40834,0.04026
908.44396,0.04015
907.47959,0.03995
906.51521,0.03984
905.55083,0.03990
904.58645,0.03979
903.62207,0.03955
902.65770,0.03956
901.69332,0.03957
900.72894,0.03951
899.76456,0.03939
898.80018,0.03923
897.83581,0.03932
896.87143,0.03952
895.90705,0.03957
894.94267,0.03957
893.97829,0.03969
893.01392,0.03973
892.04954,0.03942
891.08516,0.03923
890.12078,0.03949
889.15641,0.03957
888.19203,0.03943
887.22765,0.03939
886.26327,0.03930
885.29889,0.03922
884.33452,0.03933
883.37014,0.03948
882.40576,0.03960
881.44138,0.03967
880.47700,0.03971
879.51263,0.03981
878.54825,0.03983
877.58387,0.03972
876.61949,0.03954
875.65512,0.03946
874.69074,0.03973
873.72636,0.03993
872.76198,0.04002
871.79760,0.04014
870.83323,0.03991
869.86885,0.03985
868.90447,0.04020
867.94009,0.04035
866.97571,0.04028
866.01134,0.04033
865.04696,0.04055
864.08258,0.04073
863.11820,0.04083
862.15382,0.04078
861.18945,0.04074
860.22507,0.04084
859.26069,0.04079
858.29631,0.04072
857.33194,0.04069
856.36756,0.04082
855.40318,0.04101
854.43880,0.04088
853.47442,0.04090
852.51005,0.04112
851.54567,0.04108
850.58129,0.04094
849.61691,0.04095
848.65253,0.04102
847.68816,0.04105
846.72378,0.04100
845.75940,0.04105
844.79502,0.04121
843.83065,0.04120
842.86627,0.04120
841.90189,0.04122
840.93751,0.04104
839.97313,0.04102
839.00876,0.04113
838.04438,0.04124
837.08000,0.04128
836.11562,0.04120
835.15124,0.04121
834.18687,0.04111
833.22249,0.04082
832.25811,0.04072
831.29373,0.04090
830.32935,0.04094
829.36498,0.04081
828.40060,0.04085
827.43622,0.04080
826.47184,0.04062
825.50747,0.04052
824.54309,0.04046
823.57871,0.04044
822.61433,0.04042
821.64995,0.04038
820.68558,0.04027
819.72120,0.04030
818.75682,0.04044
817.79244,0.04038
816.82806,0.04024
815.86369,0.04015
814.89931,0.04027
813.93493,0.04042
812.97055,0.04028
812.00618,0.04012
811.04180,0.03985
810.07742,0.03959
809.11304,0.03972
808.14866,0.03988
807.18429,0.03981
806.21991,0.03961
805.25553,0.03948
804.29115,0.03946
803.32677,0.03948
802.36240,0.03957
801.39802,0.03962
800.43364,0.03962
799.46926,0.03968
798.50488,0.03966
797.54051,0.03954
796.57613,0.03931
795.61175,0.03922
794.64737,0.03940
793.68300,0.03941
792.71862,0.03937
791.75424,0.03939
790.78986,0.03928
789.82548,0.03931
788.86111,0.03937
787.89673,0.03919
786.93235,0.03902
785.96797,0.03899
785.00359,0.03888
784.03922,0.03879
783.07484,0.03908
782.11046,0.03925
781.14608,0.03911
780.18171,0.03897
779.21733,0.03871
778.25295,0.03870
777.28857,0.03893
776.32419,0.03899
775.35982,0.03900
774.39544,0.03897
773.43106,0.03897
772.46668,0.03898
771.50230,0.03906
770.53793,0.03921
769.57355,0.03932
768.60917,0.03944
767.64479,0.03942
766.68041,0.03930
765.71604,0.03926
764.75166,0.03926
763.78728,0.03921
762.82290,0.03934
761.85853,0.03946
760.89415,0.03947
759.92977,0.03952
758.96539,0.03938
758.00101,0.03940
757.03664,0.03957
756.07226,0.03941
755.10788,0.03936
754.14350,0.03969
753.17912,0.04010
752.21475,0.04024
751.25037,0.04004
750.28599,0.03965
749.32161,0.03940
748.35724,0.03945
747.39286,0.03955
746.42848,0.03970
745.46410,0.03978
744.49972,0.03991
743.53535,0.04004
742.57097,0.03996
741.60659,0.03987
740.64221,0.03981
739.67783,0.04003
738.71346,0.04025
737.74908,0.04021
736.78470,0.04025
735.82032,0.04040
734.85594,0.04046
733.89157,0.04022
732.92719,0.04014
731.96281,0.04026
730.99843,0.04038
730.03406,0.04070
729.06968,0.04103
728.10530,0.04116
727.14092,0.04107
726.17654,0.04093
725.21217,0.04109
724.24779,0.04121
723.28341,0.04127
722.31903,0.04148
721.35465,0.04150
720.39028,0.04126
719.42590,0.04111
718.46152,0.04127
717.49714,0.04143
716.53276,0.04150
715.56839,0.04171
714.60401,0.04182
713.63963,0.04180
712.67525,0.04176
711.71088,0.04176
710.74650,0.04196
709.78212,0.04205
708.81774,0.04183
707.85336,0.04179
706.88899,0.04201
705.92461,0.04220
704.96023,0.04234
703.99585,0.04223
703.03147,0.04197
702.06710,0.04201
701.10272,0.04224
700.13834,0.04237
699.17396,0.04246
698.20959,0.04251
697.24521,0.04239
696.28083,0.04239
695.31645,0.04252
694.35207,0.04246
693.38770,0.04244
692.42332,0.04269
691.45894,0.04287
690.49456,0.04260
689.53018,0.04249
688.56581,0.04265
687.60143,0.04259
686.63705,0.04269
685.67267,0.04283
684.70829,0.04294
683.74392,0.04306
682.77954,0.04296
681.81516,0.04302
680.85078,0.04316
679.88641,0.04321
678.92203,0.04312
677.95765,0.04306
676.99327,0.04303
676.02889,0.04309
675.06452,0.04322
674.10014,0.04303
673.13576,0.04298
672.17138,0.04312
671.20700,0.04333
670.24263,0.04357
669.27825,0.04434
668.31387,0.04606
667.34949,0.04575
666.38512,0.04411
665.42074,0.04345
664.45636,0.04326
663.49198,0.04341
662.52760,0.04337
661.56323,0.04346
660.59885,0.04369
659.63447,0.04357
658.67009,0.04350
657.70571,0.04358
656.74134,0.04379
655.77696,0.04396
654.81258,0.04404
653.84820,0.04394
652.88382,0.04379
651.91945,0.04377
650.95507,0.04390
649.99069,0.04413
649.02631,0.04388
648.06194,0.04374
647.09756,0.04400
646.13318,0.04421
645.16880,0.04444
644.20442,0.04423
643.24005,0.04410
642.27567,0.04444
641.31129,0.04457
640.34691,0.04439
639.38253,0.04441
638.41816,0.04466
637.45378,0.04469
636.48940,0.04463
635.52502,0.04456
634.56065,0.04454
633.59627,0.04468
632.63189,0.04481
631.66751,0.04477
630.70313,0.04461
629.73876,0.04473
628.77438,0.04488
627.81000,0.04443
626.84562,0.04359
625.88124,0.04306
624.91687,0.04409
623.95249,0.04570
622.98811,0.04487
622.02373,0.04267
621.05935,0.04124
620.09498,0.04043
619.13060,0.03950
618.16622,0.03822
617.20184,0.04265
616.23747,0.04973
615.27309,0.04861
614.30871,0.04552
613.34433,0.04746
612.37995,0.04802
611.41558,0.04678
610.45120,0.04817
609.48682,0.04711
608.52244,0.04625
607.55806,0.04902
606.59369,0.04857
605.62931,0.04633
604.66493,0.04403
603.70055,0.04192
602.73618,0.04260
601.77180,0.04382
600.80742,0.04504
599.84304,0.04685
598.87866,0.04647
597.91429,0.04517
596.94991,0.04566
595.98553,0.04586
595.02115,0.04610
594.05677,0.04701
593.09240,0.04674
592.12802,0.04635
591.16364,0.04624
590.19926,0.04608
589.23488,0.04605
588.27051,0.04582
587.30613,0.04599
586.34175,0.04594
585.37737,0.04552
584.41300,0.04573
583.44862,0.04615
582.48424,0.04647
581.51986,0.04657
580.55548,0.04634
579.59111,0.04626
578.62673,0.04629
577.66235,0.04625
576.69797,0.04608
575.73359,0.04563
574.76922,0.04561
573.80484,0.04596
572.84046,0.04600
571.87608,0.04582
570.91171,0.04510
569.94733,0.04480
568.98295,0.04537
568.01857,0.04563
567.05419,0.04541
566.08982,0.04520
565.12544,0.04552
564.16106,0.04549
563.19668,0.04500
562.23230,0.04482
561.26793,0.04452
560.30355,0.04412
559.33917,0.04412
558.37479,0.04447
557.41041,0.04448
556.44604,0.04448
555.48166,0.04458
554.51728,0.04451
553.55290,0.04482
552.58853,0.04476
551.62415,0.04446
550.65977,0.04478
549.69539,0.04509
548.73101,0.04484
547.76664,0.04458
546.80226,0.04495
545.83788,0.04503
544.87350,0.04458
543.90912,0.04439
542.94475,0.04442
541.98037,0.04456
541.01599,0.04465
540.05161,0.04470
539.08724,0.04478
538.12286,0.04488
537.15848,0.04496
536.19410,0.04512
535.22972,0.04523
534.26535,0.04485
533.30097,0.04457
532.33659,0.04433
531.37221,0.04392
530.40783,0.04409
529.44346,0.04443
528.47908,0.04485
527.51470,0.04545
526.55032,0.04519
525.58594,0.04453
524.62157,0.04424
523.65719,0.04433
522.69281,0.04470
521.72843,0.04448
520.76406,0.04391
519.79968,0.04365
518.83530,0.04392
517.87092,0.04468
516.90654,0.04498
515.94217,0.04464
514.97779,0.04439
514.01341,0.04501
513.04903,0.04555
512.08465,0.04489
511.12028,0.04457
510.15590,0.04491
509.19152,0.04466
508.22714,0.04398
507.26276,0.04366
506.29839,0.04344
505.33401,0.04317
504.36963,0.04360
503.40525,0.04431
502.44088,0.04494
501.47650,0.04534
500.51212,0.04516
499.54774,0.04483
498.58336,0.04461
497.61899,0.04462
496.65461,0.04446
495.69023,0.04410
494.72585,0.04413
493.76147,0.04422
492.79710,0.04398
491.83272,0.04360
490.86834,0.04341
489.90396,0.04346
488.93959,0.04368
487.97521,0.04392
487.01083,0.04420
486.04645,0.04415
485.08207,0.04373
484.11770,0.04393
483.15332,0.04410
482.18894,0.04357
481.22456,0.04332
480.26018,0.04349
479.29581,0.04381
478.33143,0.04410
477.36705,0.04399
476.40267,0.04353
475.43829,0.04352
474.47392,0.04393
473.50954,0.04415
472.54516,0.04450
471.58078,0.04481
470.61641,0.04475
469.65203,0.04412
468.68765,0.04340
467.72327,0.04354
466.75889,0.04374
465.79452,0.04403
464.83014,0.04427
463.86576,0.04392
462.90138,0.04399
461.93700,0.04396
460.97263,0.04383
460.00825,0.04411
459.04387,0.04369
458.07949,0.04327
457.11512,0.04384
456.15074,0.04426
455.18636,0.04392
454.22198,0.04359
453.25760,0.04337
452.29323,0.04320
451.32885,0.04331
450.36447,0.04322
449.40009,0.04340
448.43571,0.04369
447.47134,0.04334
446.50696,0.04314
445.54258,0.04309
444.57820,0.04337
443.61382,0.04398
442.64945,0.04377
441.68507,0.04316
440.72069,0.04292
439.75631,0.04300
438.79194,0.04320
437.82756,0.04323
436.86318,0.04313
435.89880,0.04299
434.93442,0.04270
433.97005,0.04249
433.00567,0.04271
432.04129,0.04290
431.07691,0.04278
430.11253,0.04249
429.14816,0.04230
428.18378,0.04256
427.21940,0.04281
426.25502,0.04258
425.29065,0.04223
424.32627,0.04228
423.36189,0.04233
422.39751,0.04203
421.43313,0.04193
420.46876,0.04206
419.50438,0.04231
418.54000,0.04249
417.57562,0.04220
416.61124,0.04214
415.64687,0.04213
414.68249,0.04164
413.71811,0.04129
412.75373,0.04100
411.78935,0.04098
410.82498,0.04120
409.86060,0.04116
408.89622,0.04115
407.93184,0.04077
406.96747,0.04045
406.00309,0.04040
405.03871,0.04025
404.07433,0.04038
403.10995,0.04019
402.14558,0.03994
401.18120,0.04020
400.21682,0.04048
399.25244,0.04058
