3998.31069,0.0073415
3997.34631,0.0078902
3996.38194,0.0083933
3995.41756,0.0084629
3994.45318,0.0082711
3993.48880,0.0078282
3992.52442,0.0079620
3991.56005,0.0081778
3990.59567,0.0082260
3989.63129,0.0085323
3988.66691,0.0085096
3987.70253,0.0083994
3986.73816,0.0084658
3985.77378,0.0083781
3984.80940,0.0083344
3983.84502,0.0082529
3982.88065,0.0080611
3981.91627,0.0079058
3980.95189,0.0078386
3979.98751,0.0079201
3979.02313,0.0079930
3978.05876,0.0080522
3977.09438,0.0082017
3976.13000,0.0084326
3975.16562,0.0084917
3974.20124,0.0083394
3973.23687,0.0082840
3972.27249,0.0080990
3971.30811,0.0079160
3970.34373,0.0079620
3969.37935,0.0079134
3968.41498,0.0078794
3967.45060,0.0080708
3966.48622,0.0085354
3965.52184,0.0087002
3964.55747,0.0081561
3963.59309,0.0077347
3962.62871,0.0078228
3961.66433,0.0081276
3960.69995,0.0082497
3959.73558,0.0081181
3958.77120,0.0082193
3957.80682,0.0082869
3956.84244,0.0081669
3955.87806,0.0083628
3954.91369,0.0086477
3953.94931,0.0085075
3952.98493,0.0080736
3952.02055,0.0079486
3951.05618,0.0080680
3950.09180,0.0080868
3949.12742,0.0083338
3948.16304,0.0086416
3947.19866,0.0085371
3946.23429,0.0082128
3945.26991,0.0079806
3944.30553,0.0080361
3943.34115,0.0083320
3942.37677,0.0082547
3941.41240,0.0079325
3940.44802,0.0081116
3939.48364,0.0083034
3938.51926,0.0082889
3937.55488,0.0083041
3936.59051,0.0083140
3935.62613,0.0085913
3934.66175,0.0085601
3933.69737,0.0082342
3932.73300,0.0082517
3931.76862,0.0082244
3930.80424,0.0080542
3929.83986,0.0081565
3928.87548,0.0086722
3927.91111,0.0090965
3926.94673,0.0091657
3925.98235,0.0088236
3925.01797,0.0085246
3924.05359,0.0092011
3923.08922,0.0097209
3922.12484,0.0093168
3921.16046,0.0089731
3920.19608,0.0088620
3919.23171,0.0088928
3918.26733,0.0088424
3917.30295,0.0086191
3916.33857,0.0087304
3915.37419,0.0088889
3914.40982,0.0086457
3913.44544,0.0086395
3912.48106,0.0090985
3911.51668,0.0091558
3910.55230,0.0088240
3909.58793,0.0088734
3908.62355,0.0090004
3907.65917,0.0088677
3906.69479,0.0088653
3905.73041,0.0090442
3904.76604,0.0091437
3903.80166,0.0087286
3902.83728,0.0083836
3901.87290,0.0086904
3900.90853,0.0087201
3899.94415,0.0086142
3898.97977,0.0087792
3898.01539,0.0087881
3897.05101,0.0087036
3896.08664,0.0087109
3895.12226,0.0087314
3894.15788,0.0085858
3893.19350,0.0086213
3892.22912,0.0085478
3891.26475,0.0084812
3890.30037,0.0090925
3889.33599,0.0091965
3888.37161,0.0086422
3887.40724,0.0086941
3886.44286,0.0091524
3885.47848,0.0090996
3884.51410,0.0089871
3883.54972,0.0089215
3882.58535,0.0085392
3881.62097,0.0088083
3880.65659,0.0092329
3879.69221,0.0092572
3878.72783,0.0094022
3877.76346,0.0092346
3876.79908,0.0090350
3875.83470,0.0089614
3874.87032,0.0088467
3873.90594,0.0088508
3872.94157,0.0089587
3871.97719,0.0090777
3871.01281,0.0089367
3870.04843,0.0088187
3869.08406,0.0089430
3868.11968,0.0090697
3867.15530,0.0092007
3866.19092,0.0092044
3865.22654,0.0090346
3864.26217,0.0090884
3863.29779,0.0090438
3862.33341,0.0088913
3861.36903,0.0091962
3860.40465,0.0092100
3859.44028,0.0091041
3858.47590,0.0093779
3857.51152,0.0095274
3856.54714,0.0094419
3855.58276,0.0091928
3854.61839,0.0091795
3853.65401,0.0091500
3852.68963,0.0090510
3851.72525,0.0090069
3850.76088,0.0087584
3849.79650,0.0088045
3848.83212,0.0090985
3847.86774,0.0093708
3846.90336,0.0094004
3845.93899,0.0093246
3844.97461,0.0093139
3844.01023,0.0092710
3843.04585,0.0092793
3842.08147,0.0089638
3841.11710,0.0090752
3840.15272,0.0093750
3839.18834,0.0092180
3838.22396,0.0094720
3837.25959,0.0094105
3836.29521,0.0091223
3835.33083,0.0092077
3834.36645,0.0091079
3833.40207,0.0089565
3832.43770,0.0089259
3831.47332,0.0091622
3830.50894,0.0095800
3829.54456,0.0098571
3828.58018,0.0101426
3827.61581,0.0102046
3826.65143,0.0097223
3825.68705,0.0094306
3824.72267,0.0096094
3823.75829,0.0098485
3822.79392,0.0099387
3821.82954,0.0095200
3820.86516,0.0092538
3819.90078,0.0094699
3818.93641,0.0094320
3817.97203,0.0092936
3817.00765,0.0093340
3816.04327,0.0094203
3815.07889,0.0093267
3814.11452,0.0091138
3813.15014,0.0090364
3812.18576,0.0091702
3811.22138,0.0093728
3810.25700,0.0094697
3809.29263,0.0096473
3808.32825,0.0097713
3807.36387,0.0095355
3806.39949,0.0094751
3805.43512,0.0099200
3804.47074,0.0100731
3803.50636,0.0094943
3802.54198,0.0092133
3801.57760,0.0096340
3800.61323,0.0095602
3799.64885,0.0092092
3798.68447,0.0092781
3797.72009,0.0092043
3796.75571,0.0092983
3795.79134,0.0097679
3794.82696,0.0098765
3793.86258,0.0095380
3792.89820,0.0093050
3791.93382,0.0097711
3790.96945,0.0101802
3790.00507,0.0098579
3789.04069,0.0094162
3788.07631,0.0092950
3787.11194,0.0093625
3786.14756,0.0093741
3785.18318,0.0093806
3784.21880,0.0092441
3783.25442,0.0093242
3782.29005,0.0095984
3781.32567,0.0094491
3780.36129,0.0092687
3779.39691,0.0093172
3778.43253,0.0096524
3777.46816,0.0098570
3776.50378,0.0097658
3775.53940,0.0098327
3774.57502,0.0098105
3773.61065,0.0098682
3772.64627,0.0099008
3771.68189,0.0097540
3770.71751,0.0099061
3769.75313,0.0100803
3768.78876,0.0098798
3767.82438,0.0097031
3766.86000,0.0098713
3765.89562,0.0099032
3764.93124,0.0097881
3763.96687,0.0097988
3763.00249,0.0098096
3762.03811,0.0099194
3761.07373,0.0099393
3760.10935,0.0100080
3759.14498,0.0103203
3758.18060,0.0101520
3757.21622,0.0097529
3756.25184,0.0099687
3755.28747,0.0101546
3754.32309,0.0101835
3753.35871,0.0103005
3752.39433,0.0098703
3751.42995,0.0095771
3750.46558,0.0097763
3749.50120,0.0098470
3748.53682,0.0097565
3747.57244,0.0096057
3746.60806,0.0095162
3745.64369,0.0094236
3744.67931,0.0094787
3743.71493,0.0097380
3742.75055,0.0099798
3741.78618,0.0100647
3740.82180,0.0098209
3739.85742,0.0097252
3738.89304,0.0098750
3737.92866,0.0099764
3736.96429,0.0101704
3735.99991,0.0102820
3735.03553,0.0101647
3734.07115,0.0102167
3733.10677,0.0102066
3732.14240,0.0098973
3731.17802,0.0098117
3730.21364,0.0095483
3729.24926,0.0094490
3728.28488,0.0101909
3727.32051,0.0103033
3726.35613,0.0095345
3725.39175,0.0093272
3724.42737,0.0097684
3723.46300,0.0100481
3722.49862,0.0097660
3721.53424,0.0095269
3720.56986,0.0096713
3719.60548,0.0097612
3718.64111,0.0097872
3717.67673,0.0096415
3716.71235,0.0094096
3715.74797,0.0096144
3714.78359,0.0100670
3713.81922,0.0103374
3712.85484,0.0101658
3711.89046,0.0099044
3710.92608,0.0100312
3709.96171,0.0101837
3708.99733,0.0101224
3708.03295,0.0098331
3707.06857,0.0098181
3706.10419,0.0100720
3705.13982,0.0100031
3704.17544,0.0102134
3703.21106,0.0105871
3702.24668,0.0102326
3701.28230,0.0096752
3700.31793,0.0097751
3699.35355,0.0103371
3698.38917,0.0106966
3697.42479,0.0106177
3696.46041,0.0104110
3695.49604,0.0103764
3694.53166,0.0103333
3693.56728,0.0102812
3692.60290,0.0105656
3691.63853,0.0107406
3690.67415,0.0102767
3689.70977,0.0097886
3688.74539,0.0096435
3687.78101,0.0099987
3686.81664,0.0107722
3685.85226,0.0109418
3684.88788,0.0104648
3683.92350,0.0099859
3682.95912,0.0097989
3681.99475,0.0101606
3681.03037,0.0102481
3680.06599,0.0098520
3679.10161,0.0098317
3678.13724,0.0100260
3677.17286,0.0097364
3676.20848,0.0095347
3675.24410,0.0100390
3674.27972,0.0103991
3673.31535,0.0104636
3672.35097,0.0103265
3671.38659,0.0101606
3670.42221,0.0101675
3669.45783,0.0101675
3668.49346,0.0103384
3667.52908,0.0103292
3666.56470,0.0103746
3665.60032,0.0106456
3664.63594,0.0107250
3663.67157,0.0105854
3662.70719,0.0103679
3661.74281,0.0104994
3660.77843,0.0104108
3659.81406,0.0101436
3658.84968,0.0101247
3657.88530,0.0100298
3656.92092,0.0100544
3655.95654,0.0099562
3654.99217,0.0099374
3654.02779,0.0101734
3653.06341,0.0103009
3652.09903,0.0100651
3651.13465,0.0096979
3650.17028,0.0099395
3649.20590,0.0101799
3648.24152,0.0101680
3647.27714,0.0101292
3646.31276,0.0101293
3645.34839,0.0103251
3644.38401,0.0104105
3643.41963,0.0107633
3642.45525,0.0106963
3641.49088,0.0100244
3640.52650,0.0099485
3639.56212,0.0101249
3638.59774,0.0102080
3637.63336,0.0102966
3636.66899,0.0103952
3635.70461,0.0103933
3634.74023,0.0102083
3633.77585,0.0101560
3632.81147,0.0104902
3631.84710,0.0109069
3630.88272,0.0104495
3629.91834,0.0097249
3628.95396,0.0098245
3627.98959,0.0101578
3627.02521,0.0104890
3626.06083,0.0106877
3625.09645,0.0104680
3624.13207,0.0102534
3623.16770,0.0104810
3622.20332,0.0108161
3621.23894,0.0109287
3620.27456,0.0108945
3619.31018,0.0106416
3618.34581,0.0105201
3617.38143,0.0107196
3616.41705,0.0109643
3615.45267,0.0108098
3614.48829,0.0103352
3613.52392,0.0103329
3612.55954,0.0105269
3611.59516,0.0106540
3610.63078,0.0107354
3609.66641,0.0106243
3608.70203,0.0108350
3607.73765,0.0109779
3606.77327,0.0108376
3605.80889,0.0108507
3604.84452,0.0109007
3603.88014,0.0112135
3602.91576,0.0114477
3601.95138,0.0110496
3600.98700,0.0107174
3600.02263,0.0110267
3599.05825,0.0114186
3598.09387,0.0113116
3597.12949,0.0110940
3596.16512,0.0111087
3595.20074,0.0108654
3594.23636,0.0105530
3593.27198,0.0108120
3592.30760,0.0110026
3591.34323,0.0110316
3590.37885,0.0113964
3589.41447,0.0114180
3588.45009,0.0112396
3587.48571,0.0113841
3586.52134,0.0113339
3585.55696,0.0109976
3584.59258,0.0109758
3583.62820,0.0113907
3582.66382,0.0113883
3581.69945,0.0111773
3580.73507,0.0115928
3579.77069,0.0119448
3578.80631,0.0117273
3577.84194,0.0115522
3576.87756,0.0118595
3575.91318,0.0121765
3574.94880,0.0120651
3573.98442,0.0119083
3573.02005,0.0119103
3572.05567,0.0119923
3571.09129,0.0119583
3570.12691,0.0116456
3569.16253,0.0115400
3568.19816,0.0117617
3567.23378,0.0118077
3566.26940,0.0120074
3565.30502,0.0124982
3564.34065,0.0126848
3563.37627,0.0125158
3562.41189,0.0122536
3561.44751,0.0125322
3560.48313,0.0132189
3559.51876,0.0133400
3558.55438,0.0130761
3557.59000,0.0128870
3556.62562,0.0128940
3555.66124,0.0131152
3554.69687,0.0135950
3553.73249,0.0138768
3552.76811,0.0135153
3551.80373,0.0135695
3550.83935,0.0138418
3549.87498,0.0137098
3548.91060,0.0138547
3547.94622,0.0138310
3546.98184,0.0136848
3546.01747,0.0141129
3545.05309,0.0147908
3544.08871,0.0150885
3543.12433,0.0149071
3542.15995,0.0148444
3541.19558,0.0149735
3540.23120,0.0152601
3539.26682,0.0155892
3538.30244,0.0156709
3537.33806,0.0158542
3536.37369,0.0158988
3535.40931,0.0158936
3534.44493,0.0165559
3533.48055,0.0171845
3532.51618,0.0172335
3531.55180,0.0171083
3530.58742,0.0169372
3529.62304,0.0171226
3528.65866,0.0175073
3527.69429,0.0175452
3526.72991,0.0175610
3525.76553,0.0176416
3524.80115,0.0177379
3523.83677,0.0178233
3522.87240,0.0180489
3521.90802,0.0183856
3520.94364,0.0182566
3519.97926,0.0181101
3519.01488,0.0181128
3518.05051,0.0180427
3517.08613,0.0180539
3516.12175,0.0181536
3515.15737,0.0185625
3514.19300,0.0186480
3513.22862,0.0184580
3512.26424,0.0183991
3511.29986,0.0180061
3510.33548,0.0178696
3509.37111,0.0179921
3508.40673,0.0178519
3507.44235,0.0177208
3506.47797,0.0174889
3505.51359,0.0170395
3504.54922,0.0168890
3503.58484,0.0171419
3502.62046,0.0172521
3501.65608,0.0173668
3500.69171,0.0172798
3499.72733,0.0168659
3498.76295,0.0166986
3497.79857,0.0164535
3496.83419,0.0162897
3495.86982,0.0162501
3494.90544,0.0160277
3493.94106,0.0161541
3492.97668,0.0162654
3492.01230,0.0159941
3491.04793,0.0158951
3490.08355,0.0159315
3489.11917,0.0157570
3488.15479,0.0157580
3487.19041,0.0158571
3486.22604,0.0154848
3485.26166,0.0152974
3484.29728,0.0154852
3483.33290,0.0154709
3482.36853,0.0153861
3481.40415,0.0154409
3480.43977,0.0155875
3479.47539,0.0155357
3478.51101,0.0155037
3477.54664,0.0156837
3476.58226,0.0157838
3475.61788,0.0158046
3474.65350,0.0157017
3473.68912,0.0157207
3472.72475,0.0158769
3471.76037,0.0157489
3470.79599,0.0153909
3469.83161,0.0153417
3468.86724,0.0157005
3467.90286,0.0158097
3466.93848,0.0157493
3465.97410,0.0156017
3465.00972,0.0155062
3464.04535,0.0157283
3463.08097,0.0156063
3462.11659,0.0153837
3461.15221,0.0153130
3460.18783,0.0152569
3459.22346,0.0154162
3458.25908,0.0156408
3457.29470,0.0156606
3456.33032,0.0153456
3455.36594,0.0156098
3454.40157,0.0162654
3453.43719,0.0163540
3452.47281,0.0161020
3451.50843,0.0157238
3450.54406,0.0158084
3449.57968,0.0160510
3448.61530,0.0160403
3447.65092,0.0161199
3446.68654,0.0162982
3445.72217,0.0165692
3444.75779,0.0163341
3443.79341,0.0159627
3442.82903,0.0162354
3441.86465,0.0166845
3440.90028,0.0167035
3439.93590,0.0164681
3438.97152,0.0162566
3438.00714,0.0159034
3437.04276,0.0159635
3436.07839,0.0160537
3435.11401,0.0159810
3434.14963,0.0162746
3433.18525,0.0162645
3432.22088,0.0163401
3431.25650,0.0164432
3430.29212,0.0162176
3429.32774,0.0161530
3428.36336,0.0161794
3427.39899,0.0165673
3426.43461,0.0169017
3425.47023,0.0169496
3424.50585,0.0169830
3423.54147,0.0168560
3422.57710,0.0170357
3421.61272,0.0174208
3420.64834,0.0173258
3419.68396,0.0168657
3418.71959,0.0168875
3417.75521,0.0172751
3416.79083,0.0172363
3415.82645,0.0171726
3414.86207,0.0172197
3413.89770,0.0171943
3412.93332,0.0173835
3411.96894,0.0175551
3411.00456,0.0177787
3410.04018,0.0181145
3409.07581,0.0179731
3408.11143,0.0175591
3407.14705,0.0174769
3406.18267,0.0177853
3405.21829,0.0180800
3404.25392,0.0181716
3403.28954,0.0184193
3402.32516,0.0186580
3401.36078,0.0187402
3400.39641,0.0188285
3399.43203,0.0188603
3398.46765,0.0190017
3397.50327,0.0191735
3396.53889,0.0192393
3395.57452,0.0191997
3394.61014,0.0189436
3393.64576,0.0189809
3392.68138,0.0194425
3391.71700,0.0195656
3390.75263,0.0196033
3389.78825,0.0197087
3388.82387,0.0195489
3387.85949,0.0197863
3386.89512,0.0199681
3385.93074,0.0197289
3384.96636,0.0197973
3384.00198,0.0199504
3383.03760,0.0200732
3382.07323,0.0199959
3381.10885,0.0199344
3380.14447,0.0201448
3379.18009,0.0199552
3378.21571,0.0195913
3377.25134,0.0194210
3376.28696,0.0194051
3375.32258,0.0194775
3374.35820,0.0194243
3373.39382,0.0193362
3372.42945,0.0194716
3371.46507,0.0197235
3370.50069,0.0196933
3369.53631,0.0197562
3368.57194,0.0197697
3367.60756,0.0193275
3366.64318,0.0192348
3365.67880,0.0193086
3364.71442,0.0190271
3363.75005,0.0189353
3362.78567,0.0189976
3361.82129,0.0188767
3360.85691,0.0187633
3359.89253,0.0187177
3358.92816,0.0186468
3357.96378,0.0184277
3356.99940,0.0180918
3356.03502,0.0179325
3355.07065,0.0180227
3354.10627,0.0182692
3353.14189,0.0182415
3352.17751,0.0180252
3351.21313,0.0179736
3350.24876,0.0177369
3349.28438,0.0174885
3348.32000,0.0172754
3347.35562,0.0171114
3346.39124,0.0171394
3345.42687,0.0171452
3344.46249,0.0172035
3343.49811,0.0170184
3342.53373,0.0168977
3341.56935,0.0168522
3340.60498,0.0165493
3339.64060,0.0166149
3338.67622,0.0165192
3337.71184,0.0163201
3336.74747,0.0166027
3335.78309,0.0167409
3334.81871,0.0166960
3333.85433,0.0167513
3332.88995,0.0169734
3331.92558,0.0169631
3330.96120,0.0167264
3329.99682,0.0166252
3329.03244,0.0165078
3328.06806,0.0166214
3327.10369,0.0167588
3326.13931,0.0168450
3325.17493,0.0169352
3324.21055,0.0166858
3323.24618,0.0165789
3322.28180,0.0166581
3321.31742,0.0168922
3320.35304,0.0171562
3319.38866,0.0167847
3318.42429,0.0164969
3317.45991,0.0167516
3316.49553,0.0168836
3315.53115,0.0169674
3314.56677,0.0171705
3313.60240,0.0171846
3312.63802,0.0171156
3311.67364,0.0170789
3310.70926,0.0169560
3309.74488,0.0169285
3308.78051,0.0169095
3307.81613,0.0168476
3306.85175,0.0168835
3305.88737,0.0170732
3304.92300,0.0172122
3303.95862,0.0168805
3302.99424,0.0167283
3302.02986,0.0168481
3301.06548,0.0166974
3300.10111,0.0165383
3299.13673,0.0162897
3298.17235,0.0163001
3297.20797,0.0164613
3296.24359,0.0164298
3295.27922,0.0164609
3294.31484,0.0162422
3293.35046,0.0162175
3292.38608,0.0163861
3291.42171,0.0162834
3290.45733,0.0160347
3289.49295,0.0156813
3288.52857,0.0156525
3287.56419,0.0157065
3286.59982,0.0157294
3285.63544,0.0156368
3284.67106,0.0154054
3283.70668,0.0155708
3282.74230,0.0155776
3281.77793,0.0156897
3280.81355,0.0159381
3279.84917,0.0156950
3278.88479,0.0154986
3277.92041,0.0152823
3276.95604,0.0151950
3275.99166,0.0152195
3275.02728,0.0150876
3274.06290,0.0152816
3273.09853,0.0155346
3272.13415,0.0154649
3271.16977,0.0152425
3270.20539,0.0151789
3269.24101,0.0151979
3268.27664,0.0150786
3267.31226,0.0149247
3266.34788,0.0148529
3265.38350,0.0149343
3264.41912,0.0149109
3263.45475,0.0147726
3262.49037,0.0145245
3261.52599,0.0144221
3260.56161,0.0147657
3259.59724,0.0147076
3258.63286,0.0143783
3257.66848,0.0145341
3256.70410,0.0147341
3255.73972,0.0147209
3254.77535,0.0146214
3253.81097,0.0144834
3252.84659,0.0143885
3251.88221,0.0142684
3250.91783,0.0142871
3249.95346,0.0145007
3248.98908,0.0144828
3248.02470,0.0144859
3247.06032,0.0145121
3246.09594,0.0142365
3245.13157,0.0141557
3244.16719,0.0141042
3243.20281,0.0140323
3242.23843,0.0141737
3241.27406,0.0143059
3240.30968,0.0144584
3239.34530,0.0143930
3238.38092,0.0143757
3237.41654,0.0146274
3236.45217,0.0146624
3235.48779,0.0143659
3234.52341,0.0141806
3233.55903,0.0144888
3232.59465,0.0145546
3231.63028,0.0141715
3230.66590,0.0139596
3229.70152,0.0139498
3228.73714,0.0140499
3227.77276,0.0138756
3226.80839,0.0135810
3225.84401,0.0136451
3224.87963,0.0137493
3223.91525,0.0136703
3222.95088,0.0137544
3221.98650,0.0140115
3221.02212,0.0139069
3220.05774,0.0138031
3219.09336,0.0140193
3218.12899,0.0140704
3217.16461,0.0141003
3216.20023,0.0141135
3215.23585,0.0139947
3214.27147,0.0140106
3213.30710,0.0138841
3212.34272,0.0135774
3211.37834,0.0136539
3210.41396,0.0137951
3209.44959,0.0136209
3208.48521,0.0136743
3207.52083,0.0138030
3206.55645,0.0137027
3205.59207,0.0135829
3204.62770,0.0134674
3203.66332,0.0136061
3202.69894,0.0136267
3201.73456,0.0133145
3200.77018,0.0134914
3199.80581,0.0138693
3198.84143,0.0138238
3197.87705,0.0137139
3196.91267,0.0136423
3195.94829,0.0136195
3194.98392,0.0137075
3194.01954,0.0137769
3193.05516,0.0138501
3192.09078,0.0137194
3191.12641,0.0135540
3190.16203,0.0136191
3189.19765,0.0135537
3188.23327,0.0135760
3187.26889,0.0136982
3186.30452,0.0135200
3185.34014,0.0133420
3184.37576,0.0134190
3183.41138,0.0136126
3182.44700,0.0136676
3181.48263,0.0138249
3180.51825,0.0141057
3179.55387,0.0140127
3178.58949,0.0138487
3177.62512,0.0138471
3176.66074,0.0138159
3175.69636,0.0136862
3174.73198,0.0135933
3173.76760,0.0138328
3172.80323,0.0140139
3171.83885,0.0138005
3170.87447,0.0137366
3169.91009,0.0140836
3168.94571,0.0142398
3167.98134,0.0139496
3167.01696,0.0137041
3166.05258,0.0136296
3165.08820,0.0136051
3164.12382,0.0137552
3163.15945,0.0139858
3162.19507,0.0139459
3161.23069,0.0137582
3160.26631,0.0136555
3159.30194,0.0134574
3158.33756,0.0135071
3157.37318,0.0139633
3156.40880,0.0140889
3155.44442,0.0138345
3154.48005,0.0138074
3153.51567,0.0139891
3152.55129,0.0140099
3151.58691,0.0138954
3150.62253,0.0138774
3149.65816,0.0139475
3148.69378,0.0140020
3147.72940,0.0140060
3146.76502,0.0139809
3145.80065,0.0139862
3144.83627,0.0139691
3143.87189,0.0139036
3142.90751,0.0137791
3141.94313,0.0137262
3140.97876,0.0139286
3140.01438,0.0141035
3139.05000,0.0142391
3138.08562,0.0143722
3137.12124,0.0143174
3136.15687,0.0143912
3135.19249,0.0144240
3134.22811,0.0141683
3133.26373,0.0141193
3132.29935,0.0142959
3131.33498,0.0142576
3130.37060,0.0141377
3129.40622,0.0141607
3128.44184,0.0140965
3127.47747,0.0140232
3126.51309,0.0139593
3125.54871,0.0138900
3124.58433,0.0140583
3123.61995,0.0142992
3122.65558,0.0144696
3121.69120,0.0143881
3120.72682,0.0141083
3119.76244,0.0141387
3118.79806,0.0145955
3117.83369,0.0149106
3116.86931,0.0148105
3115.90493,0.0148446
3114.94055,0.0146925
3113.97618,0.0144295
3113.01180,0.0147376
3112.04742,0.0147394
3111.08304,0.0145013
3110.11866,0.0146128
3109.15429,0.0145305
3108.18991,0.0145180
3107.22553,0.0148170
3106.26115,0.0147604
3105.29677,0.0144150
3104.33240,0.0146792
3103.36802,0.0152988
3102.40364,0.0153270
3101.43926,0.0150600
3100.47488,0.0150764
3099.51051,0.0152240
3098.54613,0.0152796
3097.58175,0.0153999
3096.61737,0.0155915
3095.65300,0.0155862
3094.68862,0.0155347
3093.72424,0.0155034
3092.75986,0.0154363
3091.79548,0.0155057
3090.83111,0.0155764
3089.86673,0.0156456
3088.90235,0.0157150
3087.93797,0.0157593
3086.97359,0.0159314
3086.00922,0.0158348
3085.04484,0.0156833
3084.08046,0.0159771
3083.11608,0.0162782
3082.15171,0.0164234
3081.18733,0.0164206
3080.22295,0.0163538
3079.25857,0.0165407
3078.29419,0.0167355
3077.32982,0.0166917
3076.36544,0.0167409
3075.40106,0.0169353
3074.43668,0.0169512
3073.47230,0.0169172
3072.50793,0.0170548
3071.54355,0.0173657
3070.57917,0.0175667
3069.61479,0.0175944
3068.65041,0.0177307
3067.68604,0.0177301
3066.72166,0.0177746
3065.75728,0.0179844
3064.79290,0.0181280
3063.82853,0.0184843
3062.86415,0.0187062
3061.89977,0.0186568
3060.93539,0.0188001
3059.97101,0.0190605
3059.00664,0.0190443
3058.04226,0.0189725
3057.07788,0.0193270
3056.11350,0.0195184
3055.14912,0.0196132
3054.18475,0.0201966
3053.22037,0.0206228
3052.25599,0.0205970
3051.29161,0.0204877
3050.32724,0.0205897
3049.36286,0.0209232
3048.39848,0.0213885
3047.43410,0.0219858
3046.46972,0.0223455
3045.50535,0.0223403
3044.54097,0.0224483
3043.57659,0.0226988
3042.61221,0.0228080
3041.64783,0.0231134
3040.68346,0.0234935
3039.71908,0.0236248
3038.75470,0.0241211
3037.79032,0.0246795
3036.82594,0.0247036
3035.86157,0.0249071
3034.89719,0.0255445
3033.93281,0.0261027
3032.96843,0.0266417
3032.00406,0.0273885
3031.03968,0.0279908
3030.07530,0.0284699
3029.11092,0.0291210
3028.14654,0.0296649
3027.18217,0.0298760
3026.21779,0.0296726
3025.25341,0.0290829
3024.28903,0.0281766
3023.32465,0.0272079
3022.36028,0.0265961
3021.39590,0.0261031
3020.43152,0.0257691
3019.46714,0.0257804
3018.50276,0.0256770
3017.53839,0.0254001
3016.57401,0.0251535
3015.60963,0.0249785
3014.64525,0.0248547
3013.68088,0.0247500
3012.71650,0.0246906
3011.75212,0.0248052
3010.78774,0.0250963
3009.82336,0.0251781
3008.85899,0.0252093
3007.89461,0.0254974
3006.93023,0.0257152
3005.96585,0.0257386
3005.00147,0.0257919
3004.03710,0.0259875
3003.07272,0.0261259
3002.10834,0.0260447
3001.14396,0.0256683
3000.17959,0.0251029
2999.21521,0.0245901
2998.25083,0.0242142
2997.28645,0.0241593
2996.32207,0.0242300
2995.35770,0.0242880
2994.39332,0.0244265
2993.42894,0.0244293
2992.46456,0.0244266
2991.50018,0.0245346
2990.53581,0.0245447
2989.57143,0.0243352
2988.60705,0.0240299
2987.64267,0.0237958
2986.67829,0.0236684
2985.71392,0.0236791
2984.74954,0.0236792
2983.78516,0.0236767
2982.82078,0.0237266
2981.85641,0.0237400
2980.89203,0.0238606
2979.92765,0.0241250
2978.96327,0.0242497
2977.99889,0.0242456
2977.03452,0.0243411
2976.07014,0.0242977
2975.10576,0.0240588
2974.14138,0.0237778
2973.17700,0.0235516
2972.21263,0.0234563
2971.24825,0.0231894
2970.28387,0.0229331
2969.31949,0.0229174
2968.35512,0.0228354
2967.39074,0.0225969
2966.42636,0.0223454
2965.46198,0.0221520
2964.49760,0.0219205
2963.53323,0.0218025
2962.56885,0.0218627
2961.60447,0.0219840
2960.64009,0.0221134
2959.67571,0.0222221
2958.71134,0.0222169
2957.74696,0.0218808
2956.78258,0.0216354
2955.81820,0.0215110
2954.85382,0.0212241
2953.88945,0.0210970
2952.92507,0.0209194
2951.96069,0.0205721
2950.99631,0.0203575
2950.03194,0.0203550
2949.06756,0.0203324
2948.10318,0.0201975
2947.13880,0.0201871
2946.17442,0.0201527
2945.21005,0.0200696
2944.24567,0.0200622
2943.28129,0.0201145
2942.31691,0.0200947
2941.35253,0.0199634
2940.38816,0.0200493
2939.42378,0.0201501
2938.45940,0.0201317
2937.49502,0.0201487
2936.53065,0.0200656
2935.56627,0.0199843
2934.60189,0.0199248
2933.63751,0.0199673
2932.67313,0.0200417
2931.70876,0.0198664
2930.74438,0.0197934
2929.78000,0.0198437
2928.81562,0.0198032
2927.85124,0.0199046
2926.88687,0.0198736
2925.92249,0.0195640
2924.95811,0.0193994
2923.99373,0.0195079
2923.02935,0.0195849
2922.06498,0.0193752
2921.10060,0.0192612
2920.13622,0.0193453
2919.17184,0.0192434
2918.20747,0.0190646
2917.24309,0.0190408
2916.27871,0.0191500
2915.31433,0.0191900
2914.34995,0.0191650
2913.38558,0.0192083
2912.42120,0.0191922
2911.45682,0.0190416
2910.49244,0.0190164
2909.52806,0.0191796
2908.56369,0.0190890
2907.59931,0.0188833
2906.63493,0.0188623
2905.67055,0.0188799
2904.70618,0.0189252
2903.74180,0.0189239
2902.77742,0.0188643
2901.81304,0.0186773
2900.84866,0.0185382
2899.88429,0.0186027
2898.91991,0.0186312
2897.95553,0.0187180
2896.99115,0.0187487
2896.02677,0.0186362
2895.06240,0.0185223
2894.09802,0.0184690
2893.13364,0.0185215
2892.16926,0.0184938
2891.20488,0.0184243
2890.24051,0.0182955
2889.27613,0.0182176
2888.31175,0.0183350
2887.34737,0.0183492
2886.38300,0.0183217
2885.41862,0.0182733
2884.45424,0.0180998
2883.48986,0.0180266
2882.52548,0.0181439
2881.56111,0.0182108
2880.59673,0.0181411
2879.63235,0.0181516
2878.66797,0.0181509
2877.70359,0.0181339
2876.73922,0.0181553
2875.77484,0.0180142
2874.81046,0.0179457
2873.84608,0.0181471
2872.88171,0.0182980
2871.91733,0.0181980
2870.95295,0.0180846
2869.98857,0.0180182
2869.02419,0.0178538
2868.05982,0.0179321
2867.09544,0.0181878
2866.13106,0.0180558
2865.16668,0.0178061
2864.20230,0.0177992
2863.23793,0.0177680
2862.27355,0.0176919
2861.30917,0.0177080
2860.34479,0.0177130
2859.38041,0.0177300
2858.41604,0.0177777
2857.45166,0.0177741
2856.48728,0.0177903
2855.52290,0.0177610
2854.55853,0.0176540
2853.59415,0.0175824
2852.62977,0.0174530
2851.66539,0.0173371
2850.70101,0.0173216
2849.73664,0.0173039
2848.77226,0.0172758
2847.80788,0.0172869
2846.84350,0.0174350
2845.87912,0.0175537
2844.91475,0.0175081
2843.95037,0.0174185
2842.98599,0.0173192
2842.02161,0.0172903
2841.05724,0.0172794
2840.09286,0.0172792
2839.12848,0.0174048
2838.16410,0.0175837
2837.19972,0.0176464
2836.23535,0.0175462
2835.27097,0.0175477
2834.30659,0.0175532
2833.34221,0.0173320
2832.37783,0.0171582
2831.41346,0.0171117
2830.44908,0.0171555
2829.48470,0.0172895
2828.52032,0.0173376
2827.55594,0.0172014
2826.59157,0.0169848
2825.62719,0.0169647
2824.66281,0.0171198
2823.69843,0.0171969
2822.73406,0.0172484
2821.76968,0.0172476
2820.80530,0.0171424
2819.84092,0.0171669
2818.87654,0.0171803
2817.91217,0.0170244
2816.94779,0.0169404
2815.98341,0.0168931
2815.01903,0.0168936
2814.05465,0.0169947
2813.09028,0.0170559
2812.12590,0.0170929
2811.16152,0.0170919
2810.19714,0.0170607
2809.23276,0.0169663
2808.26839,0.0169301
2807.30401,0.0171049
2806.33963,0.0172180
2805.37525,0.0172068
2804.41088,0.0170489
2803.44650,0.0168874
2802.48212,0.0170336
2801.51774,0.0171447
2800.55336,0.0171743
2799.58899,0.0173209
2798.62461,0.0173714
2797.66023,0.0173003
2796.69585,0.0171539
2795.73147,0.0171109
2794.76710,0.0172815
2793.80272,0.0173765
2792.83834,0.0174046
2791.87396,0.0174819
2790.90959,0.0174719
2789.94521,0.0175062
2788.98083,0.0176426
2788.01645,0.0176904
2787.05207,0.0177020
2786.08770,0.0177450
2785.12332,0.0177964
2784.15894,0.0177956
2783.19456,0.0177619
2782.23018,0.0178426
2781.26581,0.0179723
2780.30143,0.0180143
2779.33705,0.0179666
2778.37267,0.0179676
2777.40829,0.0180143
2776.44392,0.0180034
2775.47954,0.0180295
2774.51516,0.0180835
2773.55078,0.0180890
2772.58641,0.0179147
2771.62203,0.0177467
2770.65765,0.0179265
2769.69327,0.0180754
2768.72889,0.0180243
2767.76452,0.0179952
2766.80014,0.0179587
2765.83576,0.0179159
2764.87138,0.0177911
2763.90700,0.0176824
2762.94263,0.0177364
2761.97825,0.0178276
2761.01387,0.0178851
2760.04949,0.0178221
2759.08512,0.0177458
2758.12074,0.0177880
2757.15636,0.0178261
2756.19198,0.0178640
2755.22760,0.0178080
2754.26323,0.0176832
2753.29885,0.0176718
2752.33447,0.0177496
2751.37009,0.0179318
2750.40571,0.0180183
2749.44134,0.0179805
2748.47696,0.0179534
2747.51258,0.0177919
2746.54820,0.0176080
2745.58382,0.0175243
2744.61945,0.0175321
2743.65507,0.0175092
2742.69069,0.0174959
2741.72631,0.0176455
2740.76194,0.0176323
2739.79756,0.0175665
2738.83318,0.0176496
2737.86880,0.0176696
2736.90442,0.0177199
2735.94005,0.0178117
2734.97567,0.0178348
2734.01129,0.0177955
2733.04691,0.0177157
2732.08253,0.0175871
2731.11816,0.0174813
2730.15378,0.0174627
2729.18940,0.0175697
2728.22502,0.0176949
2727.26065,0.0175110
2726.29627,0.0173795
2725.33189,0.0174964
2724.36751,0.0174737
2723.40313,0.0174177
2722.43876,0.0173932
2721.47438,0.0173687
2720.51000,0.0173281
2719.54562,0.0173147
2718.58124,0.0173521
2717.61687,0.0172374
2716.65249,0.0170783
2715.68811,0.0170065
2714.72373,0.0170401
2713.75935,0.0170590
2712.79498,0.0169885
2711.83060,0.0169319
2710.86622,0.0168518
2709.90184,0.0168856
2708.93747,0.0169588
2707.97309,0.0169419
2707.00871,0.0169554
2706.04433,0.0169385
2705.07995,0.0169182
2704.11558,0.0169690
2703.15120,0.0170151
2702.18682,0.0169467
2701.22244,0.0168515
2700.25806,0.0168539
2699.29369,0.0169050
2698.32931,0.0168860
2697.36493,0.0168066
2696.40055,0.0168738
2695.43618,0.0168983
2694.47180,0.0167958
2693.50742,0.0168217
2692.54304,0.0169333
2691.57866,0.0170257
2690.61429,0.0169848
2689.64991,0.0170010
2688.68553,0.0171654
2687.72115,0.0171627
2686.75677,0.0170443
2685.79240,0.0169463
2684.82802,0.0169058
2683.86364,0.0169662
2682.89926,0.0169866
2681.93488,0.0169273
2680.97051,0.0169970
2680.00613,0.0170724
2679.04175,0.0169502
2678.07737,0.0168934
2677.11300,0.0168869
2676.14862,0.0168321
2675.18424,0.0168231
2674.21986,0.0168035
2673.25548,0.0167806
2672.29111,0.0167949
2671.32673,0.0168671
2670.36235,0.0168381
2669.39797,0.0167617
2668.43359,0.0168149
2667.46922,0.0168792
2666.50484,0.0169060
2665.54046,0.0168101
2664.57608,0.0167735
2663.61171,0.0168229
2662.64733,0.0168083
2661.68295,0.0169891
2660.71857,0.0170414
2659.75419,0.0168261
2658.78982,0.0168460
2657.82544,0.0170544
2656.86106,0.0172084
2655.89668,0.0171746
2654.93230,0.0170156
2653.96793,0.0169187
2653.00355,0.0168085
2652.03917,0.0167720
2651.07479,0.0168867
2650.11041,0.0169476
2649.14604,0.0169354
2648.18166,0.0167847
2647.21728,0.0166361
2646.25290,0.0167600
2645.28853,0.0168171
2644.32415,0.0167195
2643.35977,0.0166734
2642.39539,0.0166922
2641.43101,0.0167031
2640.46664,0.0166222
2639.50226,0.0166611
2638.53788,0.0166898
2637.57350,0.0165925
2636.60912,0.0164782
2635.64475,0.0163135
2634.68037,0.0162975
2633.71599,0.0161999
2632.75161,0.0160000
2631.78724,0.0160914
2630.82286,0.0162097
2629.85848,0.0160990
2628.89410,0.0158961
2627.92972,0.0158185
2626.96535,0.0158851
2626.00097,0.0158745
2625.03659,0.0157958
2624.07221,0.0158498
2623.10783,0.0159134
2622.14346,0.0159309
2621.17908,0.0160102
2620.21470,0.0159969
2619.25032,0.0159878
2618.28594,0.0159825
2617.32157,0.0159236
2616.35719,0.0159404
2615.39281,0.0158291
2614.42843,0.0157236
2613.46406,0.0158358
2612.49968,0.0159554
2611.53530,0.0160452
2610.57092,0.0162284
2609.60654,0.0163893
2608.64217,0.0163616
2607.67779,0.0162675
2606.71341,0.0161573
2605.74903,0.0160339
2604.78465,0.0160067
2603.82028,0.0160847
2602.85590,0.0161432
2601.89152,0.0162156
2600.92714,0.0163469
2599.96276,0.0162926
2598.99839,0.0161378
2598.03401,0.0159884
2597.06963,0.0158594
2596.10525,0.0158759
2595.14088,0.0158940
2594.17650,0.0159174
2593.21212,0.0157932
2592.24774,0.0156273
2591.28336,0.0157904
2590.31899,0.0157404
2589.35461,0.0154141
2588.39023,0.0153266
2587.42585,0.0153094
2586.46147,0.0152674
2585.49710,0.0152208
2584.53272,0.0153070
2583.56834,0.0155472
2582.60396,0.0155542
2581.63959,0.0154741
2580.67521,0.0154108
2579.71083,0.0152856
2578.74645,0.0152580
2577.78207,0.0153988
2576.81770,0.0154122
2575.85332,0.0149735
2574.88894,0.0148550
2573.92456,0.0149985
2572.96018,0.0149302
2571.99581,0.0151075
2571.03143,0.0149837
2570.06705,0.0147633
2569.10267,0.0147905
2568.13829,0.0146262
2567.17392,0.0146706
2566.20954,0.0148168
2565.24516,0.0149628
2564.28078,0.0150941
2563.31641,0.0149245
2562.35203,0.0147488
2561.38765,0.0147293
2560.42327,0.0146745
2559.45889,0.0146271
2558.49452,0.0147295
2557.53014,0.0146973
2556.56576,0.0145185
2555.60138,0.0143399
2554.63700,0.0141087
2553.67263,0.0140223
2552.70825,0.0142868
2551.74387,0.0147427
2550.77949,0.0149886
2549.81512,0.0151003
2548.85074,0.0149207
2547.88636,0.0146179
2546.92198,0.0146927
2545.95760,0.0146236
2544.99323,0.0144253
2544.02885,0.0142980
2543.06447,0.0141310
2542.10009,0.0141139
2541.13571,0.0141794
2540.17134,0.0142995
2539.20696,0.0145989
2538.24258,0.0150051
2537.27820,0.0149703
2536.31382,0.0143917
2535.34945,0.0139490
2534.38507,0.0140075
2533.42069,0.0143383
2532.45631,0.0147212
2531.49194,0.0148899
2530.52756,0.0147241
2529.56318,0.0146936
2528.59880,0.0146285
2527.63442,0.0147233
2526.67005,0.0150253
2525.70567,0.0147579
2524.74129,0.0145093
2523.77691,0.0144144
2522.81253,0.0143356
2521.84816,0.0145085
2520.88378,0.0145637
2519.91940,0.0146107
2518.95502,0.0147214
2517.99065,0.0147694
2517.02627,0.0146227
2516.06189,0.0144829
2515.09751,0.0144410
2514.13313,0.0143375
2513.16876,0.0144621
2512.20438,0.0147358
2511.24000,0.0148912
2510.27562,0.0146353
2509.31124,0.0142765
2508.34687,0.0141555
2507.38249,0.0139444
2506.41811,0.0138774
2505.45373,0.0142659
2504.48935,0.0147339
2503.52498,0.0146206
2502.56060,0.0143717
2501.59622,0.0144387
2500.63184,0.0144002
2499.66747,0.0142658
2498.70309,0.0142451
2497.73871,0.0144748
2496.77433,0.0145103
2495.80995,0.0144289
2494.84558,0.0144931
2493.88120,0.0143704
2492.91682,0.0143864
2491.95244,0.0145104
2490.98806,0.0144619
2490.02369,0.0141836
2489.05931,0.0139234
2488.09493,0.0140096
2487.13055,0.0143300
2486.16618,0.0146202
2485.20180,0.0145072
2484.23742,0.0143347
2483.27304,0.0141583
2482.30866,0.0138573
2481.34429,0.0139490
2480.37991,0.0143017
2479.41553,0.0143665
2478.45115,0.0140752
2477.48677,0.0140313
2476.52240,0.0143481
2475.55802,0.0145073
2474.59364,0.0141971
2473.62926,0.0138891
2472.66488,0.0141258
2471.70051,0.0143490
2470.73613,0.0144331
2469.77175,0.0145018
2468.80737,0.0143575
2467.84300,0.0141759
2466.87862,0.0141124
2465.91424,0.0140498
2464.94986,0.0141064
2463.98548,0.0142792
2463.02111,0.0141608
2462.05673,0.0144176
2461.09235,0.0147326
2460.12797,0.0144306
2459.16359,0.0143476
2458.19922,0.0144010
2457.23484,0.0146973
2456.27046,0.0148927
2455.30608,0.0145437
2454.34171,0.0143083
2453.37733,0.0141345
2452.41295,0.0140924
2451.44857,0.0140661
2450.48419,0.0139329
2449.51982,0.0139407
2448.55544,0.0142170
2447.59106,0.0143528
2446.62668,0.0141000
2445.66230,0.0140895
2444.69793,0.0139286
2443.73355,0.0138795
2442.76917,0.0141873
2441.80479,0.0141162
2440.84041,0.0140830
2439.87604,0.0141659
2438.91166,0.0140882
2437.94728,0.0137760
2436.98290,0.0139081
2436.01853,0.0145470
2435.05415,0.0144983
2434.08977,0.0141710
2433.12539,0.0141568
2432.16101,0.0143544
2431.19664,0.0144704
2430.23226,0.0142848
2429.26788,0.0142325
2428.30350,0.0141968
2427.33912,0.0139767
2426.37475,0.0139353
2425.41037,0.0141300
2424.44599,0.0141733
2423.48161,0.0141138
2422.51724,0.0139951
2421.55286,0.0137403
2420.58848,0.0136688
2419.62410,0.0137290
2418.65972,0.0139782
2417.69535,0.0142124
2416.73097,0.0141467
2415.76659,0.0141174
2414.80221,0.0140874
2413.83783,0.0140828
2412.87346,0.0142308
2411.90908,0.0145005
2410.94470,0.0145899
2409.98032,0.0143921
2409.01594,0.0144758
2408.05157,0.0145032
2407.08719,0.0140694
2406.12281,0.0137700
2405.15843,0.0137942
2404.19406,0.0139156
2403.22968,0.0140610
2402.26530,0.0141662
2401.30092,0.0141193
2400.33654,0.0140357
2399.37217,0.0140369
2398.40779,0.0140224
2397.44341,0.0139784
2396.47903,0.0138503
2395.51465,0.0137119
2394.55028,0.0138142
2393.58590,0.0140052
2392.62152,0.0139852
2391.65714,0.0138473
2390.69276,0.0138135
2389.72839,0.0138559
2388.76401,0.0138120
2387.79963,0.0137712
2386.83525,0.0137950
2385.87088,0.0135688
2384.90650,0.0133416
2383.94212,0.0135374
2382.97774,0.0137152
2382.01336,0.0137372
2381.04899,0.0137852
2380.08461,0.0137561
2379.12023,0.0137243
2378.15585,0.0137173
2377.19147,0.0138196
2376.22710,0.0140048
2375.26272,0.0140211
2374.29834,0.0139434
2373.33396,0.0139158
2372.36959,0.0138751
2371.40521,0.0137442
2370.44083,0.0136967
2369.47645,0.0138314
2368.51207,0.0138957
2367.54770,0.0138228
2366.58332,0.0138159
2365.61894,0.0139692
2364.65456,0.0141837
2363.69018,0.0142207
2362.72581,0.0141419
2361.76143,0.0142468
2360.79705,0.0142007
2359.83267,0.0140688
2358.86829,0.0142376
2357.90392,0.0142445
2356.93954,0.0142693
2355.97516,0.0144635
2355.01078,0.0145338
2354.04641,0.0146833
2353.08203,0.0146715
2352.11765,0.0145416
2351.15327,0.0145796
2350.18889,0.0146754
2349.22452,0.0148168
2348.26014,0.0148355
2347.29576,0.0147761
2346.33138,0.0148384
2345.36700,0.0148543
2344.40263,0.0148183
2343.43825,0.0148770
2342.47387,0.0148488
2341.50949,0.0147077
2340.54512,0.0146923
2339.58074,0.0148031
2338.61636,0.0149370
2337.65198,0.0149442
2336.68760,0.0148713
2335.72323,0.0148619
2334.75885,0.0148886
2333.79447,0.0149404
2332.83009,0.0148850
2331.86571,0.0147630
2330.90134,0.0147510
2329.93696,0.0147311
2328.97258,0.0145995
2328.00820,0.0145360
2327.04382,0.0147788
2326.07945,0.0155612
2325.11507,0.0165643
2324.15069,0.0168265
2323.18631,0.0163960
2322.22194,0.0159811
2321.25756,0.0157697
2320.29318,0.0156745
2319.32880,0.0154219
2318.36442,0.0154241
2317.40005,0.0157015
2316.43567,0.0157753
2315.47129,0.0157403
2314.50691,0.0154605
2313.54253,0.0151925
2312.57816,0.0152469
2311.61378,0.0154766
2310.64940,0.0156678
2309.68502,0.0155440
2308.72065,0.0152397
2307.75627,0.0150481
2306.79189,0.0151677
2305.82751,0.0152872
2304.86313,0.0150661
2303.89876,0.0148342
2302.93438,0.0148580
2301.97000,0.0149858
2301.00562,0.0149128
2300.04124,0.0148976
2299.07687,0.0151674
2298.11249,0.0152909
2297.14811,0.0151386
2296.18373,0.0150005
2295.21935,0.0151527
2294.25498,0.0154550
2293.29060,0.0153931
2292.32622,0.0151570
2291.36184,0.0152775
2290.39747,0.0155716
2289.43309,0.0158602
2288.46871,0.0157163
2287.50433,0.0150638
2286.53995,0.0149360
2285.57558,0.0153105
2284.61120,0.0156215
2283.64682,0.0157083
2282.68244,0.0154758
2281.71806,0.0153482
2280.75369,0.0153721
2279.78931,0.0151597
2278.82493,0.0148509
2277.86055,0.0149384
2276.89618,0.0150053
2275.93180,0.0147458
2274.96742,0.0147747
2274.00304,0.0148520
2273.03866,0.0143408
2272.07429,0.0137687
2271.10991,0.0141197
2270.14553,0.0146778
2269.18115,0.0147357
2268.21677,0.0145788
2267.25240,0.0141746
2266.28802,0.0140339
2265.32364,0.0141389
2264.35926,0.0143087
2263.39488,0.0141166
2262.43051,0.0137210
2261.46613,0.0142311
2260.50175,0.0143787
2259.53737,0.0137743
2258.57300,0.0137135
2257.60862,0.0141156
2256.64424,0.0141287
2255.67986,0.0137622
2254.71548,0.0141148
2253.75111,0.0140002
2252.78673,0.0129356
2251.82235,0.0132453
2250.85797,0.0144836
2249.89359,0.0147760
2248.92922,0.0141129
2247.96484,0.0133305
2247.00046,0.0137662
2246.03608,0.0147792
2245.07171,0.0146327
2244.10733,0.0139432
2243.14295,0.0132332
2242.17857,0.0135989
2241.21419,0.0148332
2240.24982,0.0148662
2239.28544,0.0145758
2238.32106,0.0139830
2237.35668,0.0134790
2236.39230,0.0136892
2235.42793,0.0135046
2234.46355,0.0136630
2233.49917,0.0135117
2232.53479,0.0129505
2231.57041,0.0127985
2230.60604,0.0126449
2229.64166,0.0132928
2228.67728,0.0141651
2227.71290,0.0139492
2226.74853,0.0134543
2225.78415,0.0135964
2224.81977,0.0136658
2223.85539,0.0133871
2222.89101,0.0131019
2221.92664,0.0130746
2220.96226,0.0124803
2219.99788,0.0111323
2219.03350,0.0111918
2218.06912,0.0112820
2217.10475,0.0108957
2216.14037,0.0112301
2215.17599,0.0117626
2214.21161,0.0132928
2213.24724,0.0138097
2212.28286,0.0133472
2211.31848,0.0136320
2210.35410,0.0135977
2209.38972,0.0136711
2208.42535,0.0136104
2207.46097,0.0128717
2206.49659,0.0124714
2205.53221,0.0130153
2204.56783,0.0125446
2203.60346,0.0123287
2202.63908,0.0138955
2201.67470,0.0144157
2200.71032,0.0146462
2199.74594,0.0136709
2198.78157,0.0130039
2197.81719,0.0145211
2196.85281,0.0131593
2195.88843,0.0104436
2194.92406,0.0096893
2193.95968,0.0109789
2192.99530,0.0121618
2192.03092,0.0129788
2191.06654,0.0166210
2190.10217,0.0175323
2189.13779,0.0147047
2188.17341,0.0139437
2187.20903,0.0140703
2186.24465,0.0139177
2185.28028,0.0126897
2184.31590,0.0106184
2183.35152,0.0104518
2182.38714,0.0110999
2181.42276,0.0099497
2180.45839,0.0090229
2179.49401,0.0100161
2178.52963,0.0114838
2177.56525,0.0139661
2176.60088,0.0153936
2175.63650,0.0139817
2174.67212,0.0131934
2173.70774,0.0128193
2172.74336,0.0124617
2171.77899,0.0134478
2170.81461,0.0150312
2169.85023,0.0163308
2168.88585,0.0148742
2167.92147,0.0131596
2166.95710,0.0147732
2165.99272,0.0150012
2165.02834,0.0125064
2164.06396,0.0105115
2163.09959,0.0107688
2162.13521,0.0122137
2161.17083,0.0128336
2160.20645,0.0124819
2159.24207,0.0093306
2158.27770,0.0063685
2157.31332,0.0037658
2156.34894,0.0034843
2155.38456,0.0079017
2154.42018,0.0093846
2153.45581,0.0110201
2152.49143,0.0135189
2151.52705,0.0104536
2150.56267,0.0080885
2149.59829,0.0100140
2148.63392,0.0113176
2147.66954,0.0110330
2146.70516,0.0104409
2145.74078,0.0084908
2144.77641,0.0080878
2143.81203,0.0108761
2142.84765,0.0117573
2141.88327,0.0110289
2140.91889,0.0106535
2139.95452,0.0097954
2138.99014,0.0097895
2138.02576,0.0106143
2137.06138,0.0105487
2136.09700,0.0103761
2135.13263,0.0114724
2134.16825,0.0115685
2133.20387,0.0105402
2132.23949,0.0101938
2131.27512,0.0095028
2130.31074,0.0091722
2129.34636,0.0102406
2128.38198,0.0113574
2127.41760,0.0120725
2126.45323,0.0123441
2125.48885,0.0121499
2124.52447,0.0131810
2123.56009,0.0139071
2122.59571,0.0128855
2121.63134,0.0127402
2120.66696,0.0124412
2119.70258,0.0121176
2118.73820,0.0128105
2117.77382,0.0120253
2116.80945,0.0108954
2115.84507,0.0112680
2114.88069,0.0122426
2113.91631,0.0123478
2112.95194,0.0121958
2111.98756,0.0125190
2111.02318,0.0119676
2110.05880,0.0115457
2109.09442,0.0116766
2108.13005,0.0116116
2107.16567,0.0113354
2106.20129,0.0113891
2105.23691,0.0119272
2104.27253,0.0116796
2103.30816,0.0116292
2102.34378,0.0116757
2101.37940,0.0112477
2100.41502,0.0111915
2099.45065,0.0113865
2098.48627,0.0119142
2097.52189,0.0119067
2096.55751,0.0120327
2095.59313,0.0123077
2094.62876,0.0118500
2093.66438,0.0121486
2092.70000,0.0127279
2091.73562,0.0125011
2090.77124,0.0119286
2089.80687,0.0120717
2088.84249,0.0127526
2087.87811,0.0129121
2086.91373,0.0128063
2085.94935,0.0128132
2084.98498,0.0128914
2084.02060,0.0129878
2083.05622,0.0129383
2082.09184,0.0123688
2081.12747,0.0118880
2080.16309,0.0117048
2079.19871,0.0119370
2078.23433,0.0128424
2077.26995,0.0129504
2076.30558,0.0129357
2075.34120,0.0131155
2074.37682,0.0130399
2073.41244,0.0138500
2072.44806,0.0144087
2071.48369,0.0138340
2070.51931,0.0127345
2069.55493,0.0118793
2068.59055,0.0118017
2067.62618,0.0123207
2066.66180,0.0129034
2065.69742,0.0129696
2064.73304,0.0124904
2063.76866,0.0122771
2062.80429,0.0128280
2061.83991,0.0125357
2060.87553,0.0125424
2059.91115,0.0135756
2058.94677,0.0128105
2057.98240,0.0110451
2057.01802,0.0105876
2056.05364,0.0120096
2055.08926,0.0129301
2054.12488,0.0115173
2053.16051,0.0098603
2052.19613,0.0108469
2051.23175,0.0131765
2050.26737,0.0123551
2049.30300,0.0112578
2048.33862,0.0118003
2047.37424,0.0113041
2046.40986,0.0110121
2045.44548,0.0105932
2044.48111,0.0108596
2043.51673,0.0098049
2042.55235,0.0074807
2041.58797,0.0064191
2040.62359,0.0061065
2039.65922,0.0070354
2038.69484,0.0071254
2037.73046,0.0064171
2036.76608,0.0047249
2035.80171,0.0049864
2034.83733,0.0089163
2033.87295,0.0085450
2032.90857,0.0046717
2031.94419,0.0023425
2030.97982,0.0033507
2030.01544,0.0062182
2029.05106,0.0092193
2028.08668,0.0118120
2027.12230,0.0102991
2026.15793,0.0081266
2025.19355,0.0080138
2024.22917,0.0078147
2023.26479,0.0086012
2022.30041,0.0111290
2021.33604,0.0124722
2020.37166,0.0102862
2019.40728,0.0084154
2018.44290,0.0073880
2017.47853,0.0067330
2016.51415,0.0094757
2015.54977,0.0122018
2014.58539,0.0122311
2013.62101,0.0118991
2012.65664,0.0115253
2011.69226,0.0110316
2010.72788,0.0109836
2009.76350,0.0100706
2008.79912,0.0100321
2007.83475,0.0119105
2006.87037,0.0097329
2005.90599,0.0070209
2004.94161,0.0088391
2003.97724,0.0081415
2003.01286,0.0065957
2002.04848,0.0090445
2001.08410,0.0115512
2000.11972,0.0124191
1999.15535,0.0129001
1998.19097,0.0129156
1997.22659,0.0114684
1996.26221,0.0107453
1995.29783,0.0116223
1994.33346,0.0109018
1993.36908,0.0100928
1992.40470,0.0114850
1991.44032,0.0136915
1990.47594,0.0138782
1989.51157,0.0135824
1988.54719,0.0147508
1987.58281,0.0131406
1986.61843,0.0103586
1985.65406,0.0103448
1984.68968,0.0130687
1983.72530,0.0144492
1982.76092,0.0107555
1981.79654,0.0083366
1980.83217,0.0097219
1979.86779,0.0125160
1978.90341,0.0136016
1977.93903,0.0092455
1976.97465,0.0056951
1976.01028,0.0062748
1975.04590,0.0100160
1974.08152,0.0138641
1973.11714,0.0130147
1972.15276,0.0098300
1971.18839,0.0079130
1970.22401,0.0083642
1969.25963,0.0100745
1968.29525,0.0110863
1967.33088,0.0112257
1966.36650,0.0112672
1965.40212,0.0124291
1964.43774,0.0134736
1963.47336,0.0128013
1962.50899,0.0122977
1961.54461,0.0108576
1960.58023,0.0093055
1959.61585,0.0098397
1958.65147,0.0087910
1957.68710,0.0087862
1956.72272,0.0106499
1955.75834,0.0110200
1954.79396,0.0115333
1953.82959,0.0115427
1952.86521,0.0118127
1951.90083,0.0122727
1950.93645,0.0115588
1949.97207,0.0111781
1949.00770,0.0110596
1948.04332,0.0106882
1947.07894,0.0094342
1946.11456,0.0093544
1945.15018,0.0105592
1944.18581,0.0108154
1943.22143,0.0108484
1942.25705,0.0105209
1941.29267,0.0106700
1940.32829,0.0106449
1939.36392,0.0099537
1938.39954,0.0101601
1937.43516,0.0104958
1936.47078,0.0111520
1935.50641,0.0116778
1934.54203,0.0114186
1933.57765,0.0112846
1932.61327,0.0110456
1931.64889,0.0105884
1930.68452,0.0104560
1929.72014,0.0108344
1928.75576,0.0110164
1927.79138,0.0108171
1926.82700,0.0108308
1925.86263,0.0109989
1924.89825,0.0111351
1923.93387,0.0115039
1922.96949,0.0116973
1922.00512,0.0109617
1921.04074,0.0103805
1920.07636,0.0107897
1919.11198,0.0111376
1918.14760,0.0105247
1917.18323,0.0097494
1916.21885,0.0101673
1915.25447,0.0107299
1914.29009,0.0103003
1913.32571,0.0099612
1912.36134,0.0100915
1911.39696,0.0102808
1910.43258,0.0105811
1909.46820,0.0106556
1908.50382,0.0105101
1907.53945,0.0104860
1906.57507,0.0105244
1905.61069,0.0109788
1904.64631,0.0113686
1903.68194,0.0112272
1902.71756,0.0112927
1901.75318,0.0110586
1900.78880,0.0104300
1899.82442,0.0105016
1898.86005,0.0110415
1897.89567,0.0112346
1896.93129,0.0111763
1895.96691,0.0112654
1895.00253,0.0110413
1894.03816,0.0105959
1893.07378,0.0104585
1892.10940,0.0104935
1891.14502,0.0109286
1890.18065,0.0111979
1889.21627,0.0109647
1888.25189,0.0110760
1887.28751,0.0111498
1886.32313,0.0107490
1885.35876,0.0105019
1884.39438,0.0107011
1883.43000,0.0108652
1882.46562,0.0107607
1881.50124,0.0107765
1880.53687,0.0109232
1879.57249,0.0110835
1878.60811,0.0110286
1877.64373,0.0107884
1876.67935,0.0109794
1875.71498,0.0110703
1874.75060,0.0107408
1873.78622,0.0107735
1872.82184,0.0108652
1871.85747,0.0108226
1870.89309,0.0109183
1869.92871,0.0109457
1868.96433,0.0110960
1867.99995,0.0111400
1867.03558,0.0108926
1866.07120,0.0107864
1865.10682,0.0108402
1864.14244,0.0110069
1863.17806,0.0110572
1862.21369,0.0108862
1861.24931,0.0107434
1860.28493,0.0106785
1859.32055,0.0106777
1858.35618,0.0106816
1857.39180,0.0106062
1856.42742,0.0105635
1855.46304,0.0108221
1854.49866,0.0110367
1853.53429,0.0109841
1852.56991,0.0110525
1851.60553,0.0110596
1850.64115,0.0109394
1849.67677,0.0109347
1848.71240,0.0109142
1847.74802,0.0107374
1846.78364,0.0105713
1845.81926,0.0103728
1844.85488,0.0101383
1843.89051,0.0103703
1842.92613,0.0106001
1841.96175,0.0105481
1840.99737,0.0107048
1840.03300,0.0107087
1839.06862,0.0105166
1838.10424,0.0105589
1837.13986,0.0107118
1836.17548,0.0107565
1835.21111,0.0107848
1834.24673,0.0107990
1833.28235,0.0107651
1832.31797,0.0107785
1831.35359,0.0107898
1830.38922,0.0108725
1829.42484,0.0108660
1828.46046,0.0107526
1827.49608,0.0107965
1826.53171,0.0108145
1825.56733,0.0108499
1824.60295,0.0109834
1823.63857,0.0110358
1822.67419,0.0109347
1821.70982,0.0107654
1820.74544,0.0107904
1819.78106,0.0109971
1818.81668,0.0111030
1817.85230,0.0108475
1816.88793,0.0104648
1815.92355,0.0105040
1814.95917,0.0106801
1813.99479,0.0106980
1813.03041,0.0108848
1812.06604,0.0109515
1811.10166,0.0108163
1810.13728,0.0108906
1809.17290,0.0108542
1808.20853,0.0107158
1807.24415,0.0108109
1806.27977,0.0109173
1805.31539,0.0108111
1804.35101,0.0107140
1803.38664,0.0108264
1802.42226,0.0108362
1801.45788,0.0108375
1800.49350,0.0110074
1799.52912,0.0110371
1798.56475,0.0109070
1797.60037,0.0107681
1796.63599,0.0107985
1795.67161,0.0108619
1794.70724,0.0107958
1793.74286,0.0109068
1792.77848,0.0110875
1791.81410,0.0110248
1790.84972,0.0109784
1789.88535,0.0110127
1788.92097,0.0108587
1787.95659,0.0107931
1786.99221,0.0110659
1786.02783,0.0112786
1785.06346,0.0111621
1784.09908,0.0110103
1783.13470,0.0110738
1782.17032,0.0111415
1781.20594,0.0111460
1780.24157,0.0111209
1779.27719,0.0110304
1778.31281,0.0109512
1777.34843,0.0109172
1776.38406,0.0110006
1775.41968,0.0110759
1774.45530,0.0110411
1773.49092,0.0110350
1772.52654,0.0111035
1771.56217,0.0111895
1770.59779,0.0111374
1769.63341,0.0110320
1768.66903,0.0111041
1767.70465,0.0112303
1766.74028,0.0111872
1765.77590,0.0110618
1764.81152,0.0109635
1763.84714,0.0109227
1762.88276,0.0110133
1761.91839,0.0111126
1760.95401,0.0111820
1759.98963,0.0112338
1759.02525,0.0111413
1758.06088,0.0110722
1757.09650,0.0111290
1756.13212,0.0111492
1755.16774,0.0110558
1754.20336,0.0109979
1753.23899,0.0110842
1752.27461,0.0111161
1751.31023,0.0110721
1750.34585,0.0110611
1749.38147,0.0110602
1748.41710,0.0110370
1747.45272,0.0109297
1746.48834,0.0108714
1745.52396,0.0109023
1744.55959,0.0108528
1743.59521,0.0108369
1742.63083,0.0109481
1741.66645,0.0110292
1740.70207,0.0110610
1739.73770,0.0110744
1738.77332,0.0110394
1737.80894,0.0109788
1736.84456,0.0109558
1735.88018,0.0110240
1734.91581,0.0110790
1733.95143,0.0110403
1732.98705,0.0109644
1732.02267,0.0108747
1731.05829,0.0108526
1730.09392,0.0109026
1729.12954,0.0109707
1728.16516,0.0110603
1727.20078,0.0110486
1726.23641,0.0109332
1725.27203,0.0109699
1724.30765,0.0111354
1723.34327,0.0111558
1722.37889,0.0110567
1721.41452,0.0110076
1720.45014,0.0110287
1719.48576,0.0110612
1718.52138,0.0110889
1717.55700,0.0111039
1716.59263,0.0110830
1715.62825,0.0110811
1714.66387,0.0111292
1713.69949,0.0111811
1712.73512,0.0111861
1711.77074,0.0112568
1710.80636,0.0113221
1709.84198,0.0113084
1708.87760,0.0114255
1707.91323,0.0114847
1706.94885,0.0114683
1705.98447,0.0115213
1705.02009,0.0115477
1704.05571,0.0116392
1703.09134,0.0117549
1702.12696,0.0118744
1701.16258,0.0120131
1700.19820,0.0121807
1699.23382,0.0122842
1698.26945,0.0123163
1697.30507,0.0125150
1696.34069,0.0127838
1695.37631,0.0129963
1694.41194,0.0131546
1693.44756,0.0133920
1692.48318,0.0137520
1691.51880,0.0141323
1690.55442,0.0145912
1689.59005,0.0150855
1688.62567,0.0156503
1687.66129,0.0162291
1686.69691,0.0169368
1685.73253,0.0178880
1684.76816,0.0189694
1683.80378,0.0201445
1682.83940,0.0213125
1681.87502,0.0226307
1680.91065,0.0242094
1679.94627,0.0260447
1678.98189,0.0279983
1678.01751,0.0299990
1677.05313,0.0320865
1676.08876,0.0341488
1675.12438,0.0360165
1674.16000,0.0376586
1673.19562,0.0391386
1672.23124,0.0401671
1671.26687,0.0408292
1670.30249,0.0411737
1669.33811,0.0410474
1668.37373,0.0405176
1667.40935,0.0396485
1666.44498,0.0386361
1665.48060,0.0374401
1664.51622,0.0360296
1663.55184,0.0346903
1662.58747,0.0334319
1661.62309,0.0323191
1660.65871,0.0312739
1659.69433,0.0302996
1658.72995,0.0296517
1657.76558,0.0291872
1656.80120,0.0289309
1655.83682,0.0288073
1654.87244,0.0289263
1653.90806,0.0293189
1652.94369,0.0298210
1651.97931,0.0304044
1651.01493,0.0311417
1650.05055,0.0322864
1649.08618,0.0336431
1648.12180,0.0352548
1647.15742,0.0371961
1646.19304,0.0394457
1645.22866,0.0418655
1644.26429,0.0444352
1643.29991,0.0471732
1642.33553,0.0499562
1641.37115,0.0531195
1640.40677,0.0564785
1639.44240,0.0601153
1638.47802,0.0640016
1637.51364,0.0681854
1636.54926,0.0727773
1635.58488,0.0775480
1634.62051,0.0825684
1633.65613,0.0873893
1632.69175,0.0919451
1631.72737,0.0961424
1630.76300,0.1001246
1629.79862,0.1037616
1628.83424,0.1069225
1627.86986,0.1095926
1626.90548,0.1117527
1625.94111,0.1137139
1624.97673,0.1152202
1624.01235,0.1163963
1623.04797,0.1171526
1622.08359,0.1178533
1621.11922,0.1186518
1620.15484,0.1193098
1619.19046,0.1200810
1618.22608,0.1209840
1617.26171,0.1220148
1616.29733,0.1228675
1615.33295,0.1238989
1614.36857,0.1249921
1613.40419,0.1257435
1612.43982,0.1262899
1611.47544,0.1265118
1610.51106,0.1264480
1609.54668,0.1259360
1608.58230,0.1252170
1607.61793,0.1241091
1606.65355,0.1226739
1605.68917,0.1210978
1604.72479,0.1192149
1603.76041,0.1172940
1602.79604,0.1151732
1601.83166,0.1130809
1600.86728,0.1108990
1599.90290,0.1086809
1598.93853,0.1065781
1597.97415,0.1045495
1597.00977,0.1028053
1596.04539,0.1013387
1595.08101,0.1002564
1594.11664,0.0993640
1593.15226,0.0987754
1592.18788,0.0981814
1591.22350,0.0973321
1590.25912,0.0961589
1589.29475,0.0943346
1588.33037,0.0922184
1587.36599,0.0897978
1586.40161,0.0872692
1585.43724,0.0847855
1584.47286,0.0824619
1583.50848,0.0802350
1582.54410,0.0781116
1581.57972,0.0762881
1580.61535,0.0744974
1579.65097,0.0729838
1578.68659,0.0715720
1577.72221,0.0703510
1576.75783,0.0690278
1575.79346,0.0672742
1574.82908,0.0658320
1573.86470,0.0644224
1572.90032,0.0630510
1571.93594,0.0617197
1570.97157,0.0604875
1570.00719,0.0593441
1569.04281,0.0581634
1568.07843,0.0572436
1567.11406,0.0562570
1566.14968,0.0552515
1565.18530,0.0542294
1564.22092,0.0531922
1563.25654,0.0521008
1562.29217,0.0509731
1561.32779,0.0501014
1560.36341,0.0490850
1559.39903,0.0480182
1558.43465,0.0469991
1557.47028,0.0459808
1556.50590,0.0451441
1555.54152,0.0444075
1554.57714,0.0436818
1553.61276,0.0428489
1552.64839,0.0421262
1551.68401,0.0414312
1550.71963,0.0407272
1549.75525,0.0401018
1548.79088,0.0394649
1547.82650,0.0387887
1546.86212,0.0381573
1545.89774,0.0376608
1544.93336,0.0370518
1543.96899,0.0365196
1543.00461,0.0361309
1542.04023,0.0356530
1541.07585,0.0351250
1540.11147,0.0345881
1539.14710,0.0340714
1538.18272,0.0335262
1537.21834,0.0331016
1536.25396,0.0326797
1535.28959,0.0322473
1534.32521,0.0318966
1533.36083,0.0314283
1532.39645,0.0309715
1531.43207,0.0305836
1530.46770,0.0302231
1529.50332,0.0298170
1528.53894,0.0294432
1527.57456,0.0291314
1526.61018,0.0287620
1525.64581,0.0284672
1524.68143,0.0281772
1523.71705,0.0279286
1522.75267,0.0277442
1521.78829,0.0274645
1520.82392,0.0271054
1519.85954,0.0268371
1518.89516,0.0266721
1517.93078,0.0263876
1516.96641,0.0260664
1516.00203,0.0258299
1515.03765,0.0256111
1514.07327,0.0253739
1513.10889,0.0251568
1512.14452,0.0249468
1511.18014,0.0246691
1510.21576,0.0244328
1509.25138,0.0242123
1508.28700,0.0240137
1507.32263,0.0238299
1506.35825,0.0235511
1505.39387,0.0232352
1504.42949,0.0229244
1503.46512,0.0227131
1502.50074,0.0225488
1501.53636,0.0222766
1500.57198,0.0219816
1499.60760,0.0217956
1498.64323,0.0215888
1497.67885,0.0213092
1496.71447,0.0211158
1495.75009,0.0209293
1494.78571,0.0207017
1493.82134,0.0204451
1492.85696,0.0201895
1491.89258,0.0200514
1490.92820,0.0199558
1489.96382,0.0198439
1488.99945,0.0197559
1488.03507,0.0197685
1487.07069,0.0198695
1486.10631,0.0199973
1485.14194,0.0202777
1484.17756,0.0207386
1483.21318,0.0214422
1482.24880,0.0225508
1481.28442,0.0242682
1480.32005,0.0269559
1479.35567,0.0310044
1478.39129,0.0372119
1477.42691,0.0457805
1476.46253,0.0555199
1475.49816,0.0632494
1474.53378,0.0656808
1473.56940,0.0623129
1472.60502,0.0550641
1471.64065,0.0470688
1470.67627,0.0403861
1469.71189,0.0354410
1468.74751,0.0317411
1467.78313,0.0290472
1466.81876,0.0270626
1465.85438,0.0256101
1464.89000,0.0244200
1463.92562,0.0233926
1462.96124,0.0225415
1461.99687,0.0218096
1461.03249,0.0212338
1460.06811,0.0207449
1459.10373,0.0203666
1458.13935,0.0200288
1457.17498,0.0197615
1456.21060,0.0194983
1455.24622,0.0192622
1454.28184,0.0190829
1453.31747,0.0188564
1452.35309,0.0187921
1451.38871,0.0188089
1450.42433,0.0189195
1449.45995,0.0192378
1448.49558,0.0197422
1447.53120,0.0204531
1446.56682,0.0214178
1445.60244,0.0228002
1444.63806,0.0243377
1443.67369,0.0254127
1442.70931,0.0255751
1441.74493,0.0250668
1440.78055,0.0243423
1439.81618,0.0235035
1438.85180,0.0224987
1437.88742,0.0214941
1436.92304,0.0208753
1435.95866,0.0205443
1434.99429,0.0204936
1434.02991,0.0207793
1433.06553,0.0212660
1432.10115,0.0219047
1431.13677,0.0226796
1430.17240,0.0236140
1429.20802,0.0244741
1428.24364,0.0255991
1427.27926,0.0270973
1426.31488,0.0289508
1425.35051,0.0314354
1424.38613,0.0343505
1423.42175,0.0377488
1422.45737,0.0414975
1421.49300,0.0455959
1420.52862,0.0497851
1419.56424,0.0537134
1418.59986,0.0573672
1417.63548,0.0605345
1416.67111,0.0634828
1415.70673,0.0660272
1414.74235,0.0679148
1413.77797,0.0693194
1412.81359,0.0704082
1411.84922,0.0716036
1410.88484,0.0731797
1409.92046,0.0754496
1408.95608,0.0783919
1407.99171,0.0818694
1407.02733,0.0856389
1406.06295,0.0891931
1405.09857,0.0922590
1404.13419,0.0946112
1403.16982,0.0965675
1402.20544,0.0983346
1401.24106,0.1002133
1400.27668,0.1026556
1399.31230,0.1059066
1398.34793,0.1104403
1397.38355,0.1163104
1396.41917,0.1229947
1395.45479,0.1294524
1394.49041,0.1349258
1393.52604,0.1386828
1392.56166,0.1403022
1391.59728,0.1398841
1390.63290,0.1376781
1389.66853,0.1341385
1388.70415,0.1297596
1387.73977,0.1248295
1386.77539,0.1196356
1385.81101,0.1143755
1384.84664,0.1088083
1383.88226,0.1031227
1382.91788,0.0973469
1381.95350,0.0913966
1380.98912,0.0854260
1380.02475,0.0795781
1379.06037,0.0741273
1378.09599,0.0691140
1377.13161,0.0647071
1376.16724,0.0611492
1375.20286,0.0584600
1374.23848,0.0566770
1373.27410,0.0559339
1372.30972,0.0563662
1371.34535,0.0580662
1370.38097,0.0610345
1369.41659,0.0652405
1368.45221,0.0707400
1367.48783,0.0773844
1366.52346,0.0846120
1365.55908,0.0917686
1364.59470,0.0983310
1363.63032,0.1038662
1362.66594,0.1081946
1361.70157,0.1113560
1360.73719,0.1136726
1359.77281,0.1153183
1358.80843,0.1165446
1357.84406,0.1176532
1356.87968,0.1184656
1355.91530,0.1189549
1354.95092,0.1188341
1353.98654,0.1176929
1353.02217,0.1155118
1352.05779,0.1123027
1351.09341,0.1083849
1350.12903,0.1041430
1349.16465,0.0997784
1348.20028,0.0954894
1347.23590,0.0914917
1346.27152,0.0878958
1345.30714,0.0846135
1344.34276,0.0815788
1343.37839,0.0786630
1342.41401,0.0759645
1341.44963,0.0736173
1340.48525,0.0714221
1339.52088,0.0695527
1338.55650,0.0681341
1337.59212,0.0672337
1336.62774,0.0673092
1335.66336,0.0687016
1334.69899,0.0714775
1333.73461,0.0748819
1332.77023,0.0772756
1331.80585,0.0777122
1330.84147,0.0768915
1329.87710,0.0761916
1328.91272,0.0763502
1327.94834,0.0772818
1326.98396,0.0787446
1326.01959,0.0807266
1325.05521,0.0832207
1324.09083,0.0858905
1323.12645,0.0884607
1322.16207,0.0912181
1321.19770,0.0946798
1320.23332,0.0991751
1319.26894,0.1045738
1318.30456,0.1105569
1317.34018,0.1166738
1316.37581,0.1222709
1315.41143,0.1266167
1314.44705,0.1289084
1313.48267,0.1289400
1312.51829,0.1269546
1311.55392,0.1235457
1310.58954,0.1193759
1309.62516,0.1146779
1308.66078,0.1097621
1307.69641,0.1047765
1306.73203,0.0997534
1305.76765,0.0948675
1304.80327,0.0902391
1303.83889,0.0860988
1302.87452,0.0825862
1301.91014,0.0798507
1300.94576,0.0781350
1299.98138,0.0775690
1299.01700,0.0782877
1298.05263,0.0802838
1297.08825,0.0834054
1296.12387,0.0873484
1295.15949,0.0916311
1294.19512,0.0956652
1293.23074,0.0989491
1292.26636,0.1012578
1291.30198,0.1024729
1290.33760,0.1026306
1289.37323,0.1019686
1288.40885,0.1007343
1287.44447,0.0990674
1286.48009,0.0970986
1285.51571,0.0950725
1284.55134,0.0930836
1283.58696,0.0911260
1282.62258,0.0892310
1281.65820,0.0873902
1280.69382,0.0856385
1279.72945,0.0839764
1278.76507,0.0823950
1277.80069,0.0808977
1276.83631,0.0793729
1275.87194,0.0778210
1274.90756,0.0764726
1273.94318,0.0752614
1272.97880,0.0739549
1272.01442,0.0727716
1271.05005,0.0717522
1270.08567,0.0706307
1269.12129,0.0695250
1268.15691,0.0685373
1267.19253,0.0675309
1266.22816,0.0665704
1265.26378,0.0657520
1264.29940,0.0649681
1263.33502,0.0641919
1262.37065,0.0634225
1261.40627,0.0625798
1260.44189,0.0617200
1259.47751,0.0609339
1258.51313,0.0602382
1257.54876,0.0595612
1256.58438,0.0588581
1255.62000,0.0581757
1254.65562,0.0574945
1253.69124,0.0568545
1252.72687,0.0562315
1251.76249,0.0555486
1250.79811,0.0548954
1249.83373,0.0542147
1248.86935,0.0535408
1247.90498,0.0530263
1246.94060,0.0525190
1245.97622,0.0519553
1245.01184,0.0513559
1244.04747,0.0507061
1243.08309,0.0501232
1242.11871,0.0496079
1241.15433,0.0491004
1240.18995,0.0485533
1239.22558,0.0479962
1238.26120,0.0475502
1237.29682,0.0471793
1236.33244,0.0468375
1235.36806,0.0465563
1234.40369,0.0463664
1233.43931,0.0462682
1232.47493,0.0463336
1231.51055,0.0467301
1230.54618,0.0475190
1229.58180,0.0487124
1228.61742,0.0501132
1227.65304,0.0514416
1226.68866,0.0526306
1225.72429,0.0535941
1224.75991,0.0542792
1223.79553,0.0545591
1222.83115,0.0542223
1221.86677,0.0532754
1220.90240,0.0519128
1219.93802,0.0504538
1218.97364,0.0491095
1218.00926,0.0478656
1217.04488,0.0467282
1216.08051,0.0457171
1215.11613,0.0448001
1214.15175,0.0440310
1213.18737,0.0432920
1212.22300,0.0424711
1211.25862,0.0418404
1210.29424,0.0413689
1209.32986,0.0408274
1208.36548,0.0403517
1207.40111,0.0400663
1206.43673,0.0400056
1205.47235,0.0402554
1204.50797,0.0408453
1203.54359,0.0418424
1202.57922,0.0434878
1201.61484,0.0459396
1200.65046,0.0492290
1199.68608,0.0531386
1198.72171,0.0572939
1197.75733,0.0614697
1196.79295,0.0652506
1195.82857,0.0684921
1194.86419,0.0711115
1193.89982,0.0726669
1192.93544,0.0729561
1191.97106,0.0718664
1191.00668,0.0697740
1190.04230,0.0673352
1189.07793,0.0648323
1188.11355,0.0623798
1187.14917,0.0600020
1186.18479,0.0578186
1185.22041,0.0558509
1184.25604,0.0541281
1183.29166,0.0526621
1182.32728,0.0513502
1181.36290,0.0501706
1180.39853,0.0490645
1179.43415,0.0481473
1178.46977,0.0473135
1177.50539,0.0464501
1176.54101,0.0457019
1175.57664,0.0449679
1174.61226,0.0442844
1173.64788,0.0437109
1172.68350,0.0431939
1171.71912,0.0427050
1170.75475,0.0421826
1169.79037,0.0416851
1168.82599,0.0412964
1167.86161,0.0409645
1166.89724,0.0405814
1165.93286,0.0401718
1164.96848,0.0397215
1164.00410,0.0393166
1163.03972,0.0390270
1162.07535,0.0387432
1161.11097,0.0384902
1160.14659,0.0382162
1159.18221,0.0379207
1158.21783,0.0376291
1157.25346,0.0374105
1156.28908,0.0372527
1155.32470,0.0369131
1154.36032,0.0365752
1153.39594,0.0363302
1152.43157,0.0360613
1151.46719,0.0358687
1150.50281,0.0356830
1149.53843,0.0354089
1148.57406,0.0351154
1147.60968,0.0349028
1146.64530,0.0346942
1145.68092,0.0344557
1144.71654,0.0342577
1143.75217,0.0340845
1142.78779,0.0339000
1141.82341,0.0336796
1140.85903,0.0334504
1139.89465,0.0331969
1138.93028,0.0330079
1137.96590,0.0327721
1137.00152,0.0324282
1136.03714,0.0322489
1135.07276,0.0321199
1134.10839,0.0319912
1133.14401,0.0318688
1132.17963,0.0316663
1131.21525,0.0314666
1130.25088,0.0312882
1129.28650,0.0312587
1128.32212,0.0312844
1127.35774,0.0311447
1126.39336,0.0308735
1125.42899,0.0306292
1124.46461,0.0304408
1123.50023,0.0302679
1122.53585,0.0301634
1121.57147,0.0300008
1120.60710,0.0298444
1119.64272,0.0296449
1118.67834,0.0293901
1117.71396,0.0293626
1116.74959,0.0293026
1115.78521,0.0290789
1114.82083,0.0287815
1113.85645,0.0285601
1112.89207,0.0285328
1111.92770,0.0283630
1110.96332,0.0280259
1109.99894,0.0277688
1109.03456,0.0277149
1108.07018,0.0276532
1107.10581,0.0274545
1106.14143,0.0273577
1105.17705,0.0272471
1104.21267,0.0270974
1103.24829,0.0270332
1102.28392,0.0268889
1101.31954,0.0266862
1100.35516,0.0266202
1099.39078,0.0264895
1098.42641,0.0262132
1097.46203,0.0260564
1096.49765,0.0259007
1095.53327,0.0256797
1094.56889,0.0254406
1093.60452,0.0253174
1092.64014,0.0253477
1091.67576,0.0251274
1090.71138,0.0248542
1089.74700,0.0247780
1088.78263,0.0246655
1087.81825,0.0245298
1086.85387,0.0244751
1085.88949,0.0244282
1084.92512,0.0242376
1083.96074,0.0240537
1082.99636,0.0239983
1082.03198,0.0239584
1081.06760,0.0237472
1080.10323,0.0234255
1079.13885,0.0233440
1078.17447,0.0232536
1077.21009,0.0230923
1076.24571,0.0230742
1075.28134,0.0229592
1074.31696,0.0228875
1073.35258,0.0228813
1072.38820,0.0228535
1071.42382,0.0229533
1070.45945,0.0229526
1069.49507,0.0229317
1068.53069,0.0230531
1067.56631,0.0231681
1066.60194,0.0234989
1065.63756,0.0241160
1064.67318,0.0247478
1063.70880,0.0253994
1062.74442,0.0263370
1061.78005,0.0277581
1060.81567,0.0296265
1059.85129,0.0320628
1058.88691,0.0352762
1057.92253,0.0389383
1056.95816,0.0424385
1055.99378,0.0452439
1055.02940,0.0471158
1054.06502,0.0481113
1053.10065,0.0479733
1052.13627,0.0466301
1051.17189,0.0444418
1050.20751,0.0417535
1049.24313,0.0389715
1048.27876,0.0362858
1047.31438,0.0340405
1046.35000,0.0322194
1045.38562,0.0304078
1044.42124,0.0290030
1043.45687,0.0279984
1042.49249,0.0269843
1041.52811,0.0260556
1040.56373,0.0253047
1039.59935,0.0247460
1038.63498,0.0242056
1037.67060,0.0236919
1036.70622,0.0232220
1035.74184,0.0228248
1034.77747,0.0225635
1033.81309,0.0222010
1032.84871,0.0219360
1031.88433,0.0218212
1030.91995,0.0216283
1029.95558,0.0215270
1028.99120,0.0216846
1028.02682,0.0220319
1027.06244,0.0224495
1026.09806,0.0232806
1025.13369,0.0249677
1024.16931,0.0277314
1023.20493,0.0319577
1022.24055,0.0382681
1021.27618,0.0467005
1020.31180,0.0555177
1019.34742,0.0619509
1018.38304,0.0642476
1017.41866,0.0628188
1016.45429,0.0591992
1015.48991,0.0547419
1014.52553,0.0503051
1013.56115,0.0463334
1012.59677,0.0431106
1011.63240,0.0403667
1010.66802,0.0379144
1009.70364,0.0359495
1008.73926,0.0344201
1007.77488,0.0331877
1006.81051,0.0320105
1005.84613,0.0309135
1004.88175,0.0300268
1003.91737,0.0291847
1002.95300,0.0283569
1001.98862,0.0277279
1001.02424,0.0273423
1000.05986,0.0269842
999.09548,0.0265193
998.13111,0.0260288
997.16673,0.0256572
996.20235,0.0252537
995.23797,0.0247959
994.27359,0.0244623
993.30922,0.0241310
992.34484,0.0239058
991.38046,0.0238116
990.41608,0.0237331
989.45171,0.0236311
988.48733,0.0234365
987.52295,0.0232398
986.55857,0.0229918
985.59419,0.0226600
984.62982,0.0222678
983.66544,0.0220469
982.70106,0.0220137
981.73668,0.0218258
980.77230,0.0216170
979.80793,0.0214397
978.84355,0.0213071
977.87917,0.0212848
976.91479,0.0212438
975.95041,0.0210132
974.98604,0.0207009
974.02166,0.0207289
973.05728,0.0206948
972.09290,0.0203890
971.12853,0.0202283
970.16415,0.0202034
969.19977,0.0203505
968.23539,0.0204968
967.27101,0.0206105
966.30664,0.0210420
965.34226,0.0218884
964.37788,0.0231378
963.41350,0.0249425
962.44912,0.0277053
961.48475,0.0317376
960.52037,0.0376459
959.55599,0.0460231
958.59161,0.0557835
957.62724,0.0640296
956.66286,0.0676188
955.69848,0.0657291
954.73410,0.0605883
953.76972,0.0547307
952.80535,0.0494487
951.84097,0.0453208
950.87659,0.0423285
949.91221,0.0403353
948.94783,0.0393134
947.98346,0.0391704
947.01908,0.0399718
946.05470,0.0416864
945.09032,0.0443624
944.12594,0.0482254
943.16157,0.0530113
942.19719,0.0579623
941.23281,0.0621090
940.26843,0.0645228
939.30406,0.0648872
938.33968,0.0635375
937.37530,0.0610993
936.41092,0.0582166
935.44654,0.0550802
934.48217,0.0519606
933.51779,0.0491868
932.55341,0.0466192
931.58903,0.0444285
930.62465,0.0426925
929.66028,0.0414100
928.69590,0.0407962
927.73152,0.0408715
926.76714,0.0419388
925.80276,0.0441739
924.83839,0.0479438
923.87401,0.0542513
922.90963,0.0639481
921.94525,0.0764477
920.98088,0.0883013
920.01650,0.0949056
919.05212,0.0939005
918.08774,0.0867962
917.12336,0.0772153
916.15899,0.0681487
915.19461,0.0608106
914.23023,0.0549302
913.26585,0.0505240
912.30147,0.0474718
911.33710,0.0453666
910.37272,0.0442389
909.40834,0.0441982
908.44396,0.0455462
907.47959,0.0477916
906.51521,0.0507969
905.55083,0.0551780
904.58645,0.0609010
903.62207,0.0675739
902.65770,0.0743498
901.69332,0.0808828
900.72894,0.0868582
899.76456,0.0915481
898.80018,0.0942661
897.83581,0.0942092
896.87143,0.0915853
895.90705,0.0868954
894.94267,0.0810804
893.97829,0.0752901
893.01392,0.0697492
892.04954,0.0646920
891.08516,0.0602957
890.12078,0.0566111
889.15641,0.0532898
888.19203,0.0502401
887.22765,0.0476497
886.26327,0.0453114
885.29889,0.0434754
884.33452,0.0420784
883.37014,0.0407620
882.40576,0.0395361
881.44138,0.0385700
880.47700,0.0377874
879.51263,0.0368859
878.54825,0.0360822
877.58387,0.0354598
876.61949,0.0348792
875.65512,0.0343734
874.69074,0.0338854
873.72636,0.0332796
872.76198,0.0328652
871.79760,0.0326296
870.83323,0.0319613
869.86885,0.0315772
868.90447,0.0315703
867.94009,0.0312261
866.97571,0.0309575
866.01134,0.0305852
865.04696,0.0300983
864.08258,0.0297914
863.11820,0.0296029
862.15382,0.0296365
861.18945,0.0295748
860.22507,0.0293467
859.26069,0.0290640
858.29631,0.0287264
857.33194,0.0284929
856.36756,0.0284042
855.40318,0.0283527
854.43880,0.0281708
853.47442,0.0279585
852.51005,0.0278656
851.54567,0.0276994
850.58129,0.0274796
849.61691,0.0274973
848.65253,0.0274122
847.68816,0.0271767
846.72378,0.0271795
845.75940,0.0270714
844.79502,0.0268934
843.83065,0.0268096
842.86627,0.0267464
841.90189,0.0267607
840.93751,0.0265913
839.97313,0.0264623
839.00876,0.0264852
838.04438,0.0263713
837.08000,0.0262757
836.11562,0.0262826
835.15124,0.0262256
834.18687,0.0261414
833.22249,0.0262361
832.25811,0.0263309
831.29373,0.0263523
830.32935,0.0265120
829.36498,0.0268386
828.40060,0.0273565
827.43622,0.0279718
826.47184,0.0287209
825.50747,0.0297464
824.54309,0.0311532
823.57871,0.0329904
822.61433,0.0354923
821.64995,0.0391043
820.68558,0.0438435
819.72120,0.0498470
818.75682,0.0569032
817.79244,0.0643273
816.82806,0.0709764
815.86369,0.0747769
814.89931,0.0750558
813.93493,0.0722698
812.97055,0.0671663
812.00618,0.0614513
811.04180,0.0561803
810.07742,0.0516764
809.11304,0.0479570
808.14866,0.0448993
807.18429,0.0425214
806.21991,0.0403669
805.25553,0.0384430
804.29115,0.0370683
803.32677,0.0359971
802.36240,0.0350749
801.39802,0.0341697
800.43364,0.0332778
799.46926,0.0324864
798.50488,0.0319143
797.54051,0.0315479
796.57613,0.0309899
795.61175,0.0305294
794.64737,0.0302293
793.68300,0.0297398
792.71862,0.0294372
791.75424,0.0292064
790.78986,0.0288594
789.82548,0.0286999
788.86111,0.0285799
787.89673,0.0282081
786.93235,0.0279739
785.96797,0.0280193
785.00359,0.0277239
784.03922,0.0274238
783.07484,0.0275435
782.11046,0.0275570
781.14608,0.0273694
780.18171,0.0271673
779.21733,0.0270251
778.25295,0.0270646
777.28857,0.0270439
776.32419,0.0268389
775.35982,0.0268675
774.39544,0.0269807
773.43106,0.0268882
772.46668,0.0268612
771.50230,0.0269228
770.53793,0.0269445
769.57355,0.0268293
768.60917,0.0266468
767.64479,0.0266337
766.68041,0.0268999
765.71604,0.0271050
764.75166,0.0270161
763.78728,0.0270981
762.82290,0.0271902
761.85853,0.0269443
760.89415,0.0268390
759.92977,0.0270620
758.96539,0.0271518
758.00101,0.0270979
757.03664,0.0270640
756.07226,0.0268344
755.10788,0.0268203
754.14350,0.0270899
753.17912,0.0272950
752.21475,0.0275014
751.25037,0.0276841
750.28599,0.0278895
749.32161,0.0280225
748.35724,0.0281879
747.39286,0.0283200
746.42848,0.0285911
745.46410,0.0291626
744.49972,0.0295000
743.53535,0.0299356
742.57097,0.0303104
741.60659,0.0304526
740.64221,0.0308010
739.67783,0.0311642
738.71346,0.0317146
737.74908,0.0323610
736.78470,0.0330620
735.82032,0.0339043
734.85594,0.0347910
733.89157,0.0358135
732.92719,0.0370949
731.96281,0.0385554
730.99843,0.0398779
730.03406,0.0412639
729.06968,0.0426883
728.10530,0.0442530
727.14092,0.0459109
726.17654,0.0472634
725.21217,0.0487066
724.24779,0.0499182
723.28341,0.0508277
722.31903,0.0518673
721.35465,0.0527700
720.39028,0.0539978
719.42590,0.0559096
718.46152,0.0582426
717.49714,0.0611491
716.53276,0.0649514
715.56839,0.0695713
714.60401,0.0747555
713.63963,0.0805132
712.67525,0.0862911
711.71088,0.0912363
710.74650,0.0949947
709.78212,0.0973907
708.81774,0.0985592
707.85336,0.0990190
706.88899,0.0993024
705.92461,0.0995859
704.96023,0.1000612
703.99585,0.1005649
703.03147,0.1006726
702.06710,0.1001087
701.10272,0.0987861
700.13834,0.0969920
699.17396,0.0944814
698.20959,0.0913029
697.24521,0.0880981
696.28083,0.0849186
695.31645,0.0816592
694.35207,0.0786226
693.38770,0.0759312
692.42332,0.0734677
691.45894,0.0713241
690.49456,0.0693178
689.53018,0.0675205
688.56581,0.0662912
687.60143,0.0654881
686.63705,0.0649258
685.67267,0.0645497
684.70829,0.0641949
683.74392,0.0639139
682.77954,0.0638319
681.81516,0.0638514
680.85078,0.0640046
679.88641,0.0641992
678.92203,0.0644657
677.95765,0.0650413
676.99327,0.0655985
676.02889,0.0660428
675.06452,0.0666651
674.10014,0.0672357
673.13576,0.0677107
672.17138,0.0683175
671.20700,0.0689614
670.24263,0.0697068
669.27825,0.0702910
668.31387,0.0705081
667.34949,0.0713905
666.38512,0.0727225
665.42074,0.0734654
664.45636,0.0739038
663.49198,0.0745857
662.52760,0.0753688
661.56323,0.0759089
660.59885,0.0764293
659.63447,0.0772415
658.67009,0.0781393
657.70571,0.0787550
656.74134,0.0790877
655.77696,0.0794702
654.81258,0.0799202
653.84820,0.0804648
652.88382,0.0810543
651.91945,0.0813986
650.95507,0.0816684
649.99069,0.0818677
649.02631,0.0820333
648.06194,0.0823430
647.09756,0.0826822
646.13318,0.0830166
645.16880,0.0832586
644.20442,0.0836290
643.24005,0.0839085
642.27567,0.0839693
641.31129,0.0843445
640.34691,0.0845045
639.38253,0.0841796
638.41816,0.0840773
637.45378,0.0844567
636.48940,0.0848219
635.52502,0.0849833
634.56065,0.0853812
633.59627,0.0858201
632.63189,0.0862167
631.66751,0.0867992
630.70313,0.0875126
629.73876,0.0883308
628.77438,0.0890837
627.81000,0.0897834
626.84562,0.0907212
625.88124,0.0921904
624.91687,0.0936325
623.95249,0.0934497
622.98811,0.0908486
622.02373,0.0894954
621.05935,0.0902451
620.09498,0.0882187
619.13060,0.0875343
618.16622,0.0862036
617.20184,0.0831883
616.23747,0.0826260
615.27309,0.0800020
614.30871,0.0764338
613.34433,0.0764824
612.37995,0.0805766
611.41558,0.0825516
610.45120,0.0810479
609.48682,0.0798533
608.52244,0.0783279
607.55806,0.0790718
606.59369,0.0793825
605.62931,0.0810904
604.66493,0.0843998
603.70055,0.0856808
602.73618,0.0861397
601.77180,0.0848147
600.80742,0.0835887
599.84304,0.0836873
598.87866,0.0829528
597.91429,0.0811463
596.94991,0.0790485
595.98553,0.0772965
595.02115,0.0753176
594.05677,0.0723604
593.09240,0.0698706
592.12802,0.0680595
591.16364,0.0659231
590.19926,0.0642358
589.23488,0.0625489
588.27051,0.0610332
587.30613,0.0604752
586.34175,0.0598544
585.37737,0.0592077
584.41300,0.0585689
583.44862,0.0579373
582.48424,0.0575565
581.51986,0.0569987
580.55548,0.0566396
579.59111,0.0567126
578.62673,0.0570317
577.66235,0.0575934
576.69797,0.0579098
575.73359,0.0572736
574.76922,0.0565137
573.80484,0.0565858
572.84046,0.0567059
571.87608,0.0569266
570.91171,0.0572397
569.94733,0.0572599
568.98295,0.0573288
568.01857,0.0570902
567.05419,0.0571204
566.08982,0.0573717
565.12544,0.0570010
564.16106,0.0572128
563.19668,0.0581570
562.23230,0.0590150
561.26793,0.0600985
560.30355,0.0614090
559.33917,0.0630921
558.37479,0.0651876
557.41041,0.0677157
556.44604,0.0719490
555.48166,0.0780545
554.51728,0.0852907
553.55290,0.0934728
552.58853,0.1020121
551.62415,0.1113202
550.65977,0.1209516
549.69539,0.1278709
548.73101,0.1310864
547.76664,0.1318371
546.80226,0.1300422
545.83788,0.1255394
544.87350,0.1196109
543.90912,0.1131363
542.94475,0.1071474
541.98037,0.1020819
541.01599,0.0970797
540.05161,0.0925548
539.08724,0.0889774
538.12286,0.0858316
537.15848,0.0830967
536.19410,0.0805430
535.22972,0.0780589
534.26535,0.0766019
533.30097,0.0753096
532.33659,0.0732438
531.37221,0.0718241
530.40783,0.0706353
529.44346,0.0691584
528.47908,0.0683232
527.51470,0.0678500
526.55032,0.0671298
525.58594,0.0657709
524.62157,0.0645410
523.65719,0.0640051
522.69281,0.0633287
521.72843,0.0624366
520.76406,0.0615549
519.79968,0.0607499
518.83530,0.0601691
517.87092,0.0595845
516.90654,0.0589282
515.94217,0.0582060
514.97779,0.0571738
514.01341,0.0562959
513.04903,0.0560911
512.08465,0.0561217
511.12028,0.0557620
510.15590,0.0548741
509.19152,0.0546437
508.22714,0.0551773
507.26276,0.0550082
506.29839,0.0547527
505.33401,0.0551908
504.36963,0.0551777
503.40525,0.0547027
502.44088,0.0554594
501.47650,0.0571066
500.51212,0.0585887
499.54774,0.0612525
498.58336,0.0653616
497.61899,0.0706721
496.65461,0.0778467
495.69023,0.0849236
494.72585,0.0891384
493.76147,0.0901009
492.79710,0.0880937
491.83272,0.0839232
490.86834,0.0794683
489.90396,0.0754090
488.93959,0.0716231
487.97521,0.0686956
487.01083,0.0669528
486.04645,0.0654777
485.08207,0.0635796
484.11770,0.0616277
483.15332,0.0591448
482.18894,0.0563069
481.22456,0.0539672
480.26018,0.0519419
479.29581,0.0505336
478.33143,0.0494862
477.36705,0.0485643
476.40267,0.0481798
475.43829,0.0477591
474.47392,0.0470366
473.50954,0.0464876
472.54516,0.0464689
471.58078,0.0462855
470.61641,0.0455214
469.65203,0.0448349
468.68765,0.0443448
467.72327,0.0442314
466.75889,0.0443041
465.79452,0.0441103
464.83014,0.0437855
463.86576,0.0434793
462.90138,0.0438299
461.93700,0.0445784
460.97263,0.0445582
460.00825,0.0443735
459.04387,0.0449096
458.07949,0.0454933
457.11512,0.0457890
456.15074,0.0466117
455.18636,0.0482577
454.22198,0.0498310
453.25760,0.0508491
452.29323,0.0525288
451.32885,0.0558328
450.36447,0.0603687
449.40009,0.0669087
448.43571,0.0764874
447.47134,0.0891920
446.50696,0.1051902
445.54258,0.1214626
444.57820,0.1343402
443.61382,0.1412174
442.64945,0.1396916
441.68507,0.1319256
440.72069,0.1219297
439.75631,0.1120126
438.79194,0.1029178
437.82756,0.0952518
436.86318,0.0893074
435.89880,0.0845451
434.93442,0.0809089
433.97005,0.0780722
433.00567,0.0751943
432.04129,0.0729861
431.07691,0.0718575
430.11253,0.0708727
429.14816,0.0697287
428.18378,0.0685537
427.21940,0.0674368
426.25502,0.0665762
425.29065,0.0662836
424.32627,0.0664100
423.36189,0.0664178
422.39751,0.0663771
421.43313,0.0662607
420.46876,0.0662594
419.50438,0.0667726
418.54000,0.0672962
417.57562,0.0676664
416.61124,0.0679049
415.64687,0.0681648
414.68249,0.0688972
413.71811,0.0698504
412.75373,0.0706770
411.78935,0.0713495
410.82498,0.0723270
409.86060,0.0737169
408.89622,0.0753860
407.93184,0.0770751
406.96747,0.0785831
406.00309,0.0806603
405.03871,0.0831402
404.07433,0.0860701
403.10995,0.0893719
402.14558,0.0927302
401.18120,0.0974973
400.21682,0.1038420
399.25244,0.1108447
