3998.31069,0.0002288
3997.34631,0.0002288
3996.38194,0.0002288
3995.41756,0.0002288
3994.45318,0.0002288
3993.48880,0.0002288
3992.52442,0.0002288
3991.56005,0.0001968
3990.59567,0.0002165
3989.63129,0.0002501
3988.66691,0.0002425
3987.70253,0.0002321
3986.73816,0.0002071
3985.77378,0.0001360
3984.80940,0.0000453
3983.84502,0.0000207
3982.88065,0.0000646
3981.91627,0.0000901
3980.95189,0.0000974
3979.98751,0.0001157
3979.02313,0.0001510
3978.05876,0.0001541
3977.09438,0.0001561
3976.13000,0.0002268
3975.16562,0.0002803
3974.20124,0.0002863
3973.23687,0.0002802
3972.27249,0.0002761
3971.30811,0.0002564
3970.34373,0.0002149
3969.37935,0.0001971
3968.41498,0.0001758
3967.45060,0.0001717
3966.48622,0.0002266
3965.52184,0.0002988
3964.55747,0.0003400
3963.59309,0.0003227
3962.62871,0.0002744
3961.66433,0.0002301
3960.69995,0.0001908
3959.73558,0.0001092
3958.77120,-0.0000005
3957.80682,-0.0000781
3956.84244,-0.0001378
3955.87806,-0.0001427
3954.91369,-0.0000695
3953.94931,0.0000026
3952.98493,0.0000176
3952.02055,0.0000147
3951.05618,0.0000432
3950.09180,0.0001071
3949.12742,0.0001794
3948.16304,0.0001721
3947.19866,0.0001173
3946.23429,0.0001089
3945.26991,0.0001108
3944.30553,0.0001402
3943.34115,0.0002088
3942.37677,0.0002245
3941.41240,0.0001612
3940.44802,0.0000953
3939.48364,0.0000812
3938.51926,0.0000770
3937.55488,0.0000460
3936.59051,0.0000121
3935.62613,0.0000101
3934.66175,0.0000506
3933.69737,0.0001229
3932.73300,0.0002178
3931.76862,0.0003121
3930.80424,0.0003532
3929.83986,0.0003162
3928.87548,0.0002637
3927.91111,0.0002250
3926.94673,0.0001752
3925.98235,0.0001451
3925.01797,0.0001668
3924.05359,0.0002460
3923.08922,0.0003449
3922.12484,0.0004305
3921.16046,0.0005248
3920.19608,0.0006130
3919.23171,0.0006723
3918.26733,0.0006996
3917.30295,0.0007034
3916.33857,0.0006511
3915.37419,0.0005373
3914.40982,0.0004467
3913.44544,0.0003981
3912.48106,0.0003741
3911.51668,0.0003049
3910.55230,0.0001986
3909.58793,0.0001701
3908.62355,0.0001700
3907.65917,0.0001918
3906.69479,0.0002352
3905.73041,0.0002218
3904.76604,0.0001765
3903.80166,0.0001433
3902.83728,0.0001615
3901.87290,0.0001956
3900.90853,0.0002098
3899.94415,0.0002348
3898.97977,0.0002847
3898.01539,0.0003560
3897.05101,0.0003873
3896.08664,0.0003891
3895.12226,0.0003752
3894.15788,0.0003244
3893.19350,0.0002883
3892.22912,0.0002621
3891.26475,0.0002156
3890.30037,0.0001633
3889.33599,0.0001568
3888.37161,0.0001931
3887.40724,0.0001947
3886.44286,0.0001647
3885.47848,0.0001233
3884.51410,0.0000996
3883.54972,0.0001100
3882.58535,0.0001231
3881.62097,0.0001545
3880.65659,0.0001823
3879.69221,0.0002056
3878.72783,0.0002522
3877.76346,0.0002561
3876.79908,0.0002193
3875.83470,0.0001733
3874.87032,0.0000862
3873.90594,-0.0000153
3872.94157,-0.0000757
3871.97719,-0.0000601
3871.01281,-0.0000031
3870.04843,0.0000462
3869.08406,0.0001260
3868.11968,0.0002741
3867.15530,0.0004163
3866.19092,0.0004677
3865.22654,0.0005239
3864.26217,0.0006163
3863.29779,0.0006444
3862.33341,0.0006189
3861.36903,0.0005630
3860.40465,0.0005172
3859.44028,0.0004611
3858.47590,0.0003373
3857.51152,0.0002409
3856.54714,0.0001816
3855.58276,0.0000812
3854.61839,-0.0000473
3853.65401,-0.0001238
3852.68963,-0.0001316
3851.72525,-0.0001246
3850.76088,-0.0001118
3849.79650,-0.0000965
3848.83212,-0.0000339
3847.86774,0.0000790
3846.90336,0.0001554
3845.93899,0.0002423
3844.97461,0.0003555
3844.01023,0.0004010
3843.04585,0.0003545
3842.08147,0.0002798
3841.11710,0.0002179
3840.15272,0.0001302
3839.18834,0.0000153
3838.22396,-0.0000718
3837.25959,-0.0000900
3836.29521,-0.0000610
3835.33083,-0.0000388
3834.36645,0.0000379
3833.40207,0.0001701
3832.43770,0.0002483
3831.47332,0.0002576
3830.50894,0.0002362
3829.54456,0.0002110
3828.58018,0.0001831
3827.61581,0.0001797
3826.65143,0.0002083
3825.68705,0.0002117
3824.72267,0.0002108
3823.75829,0.0002280
3822.79392,0.0002474
3821.82954,0.0002569
3820.86516,0.0002443
3819.90078,0.0001997
3818.93641,0.0001029
3817.97203,-0.0000057
3817.00765,-0.0000722
3816.04327,-0.0000945
3815.07889,-0.0001187
3814.11452,-0.0001339
3813.15014,-0.0000801
3812.18576,0.0000035
3811.22138,0.0001182
3810.25700,0.0002597
3809.29263,0.0003856
3808.32825,0.0004969
3807.36387,0.0005364
3806.39949,0.0004830
3805.43512,0.0004203
3804.47074,0.0004044
3803.50636,0.0003905
3802.54198,0.0003625
3801.57760,0.0003678
3800.61323,0.0004113
3799.64885,0.0004966
3798.68447,0.0005724
3797.72009,0.0006420
3796.75571,0.0007080
3795.79134,0.0006894
3794.82696,0.0006353
3793.86258,0.0005824
3792.89820,0.0005073
3791.93382,0.0004217
3790.96945,0.0003410
3790.00507,0.0003072
3789.04069,0.0003118
3788.07631,0.0003131
3787.11194,0.0003166
3786.14756,0.0003828
3785.18318,0.0004487
3784.21880,0.0004349
3783.25442,0.0004372
3782.29005,0.0004671
3781.32567,0.0004802
3780.36129,0.0004677
3779.39691,0.0004375
3778.43253,0.0004416
3777.46816,0.0004614
3776.50378,0.0004465
3775.53940,0.0003955
3774.57502,0.0003665
3773.61065,0.0003532
3772.64627,0.0003147
3771.68189,0.0003201
3770.71751,0.0004126
3769.75313,0.0005294
3768.78876,0.0005897
3767.82438,0.0006501
3766.86000,0.0007291
3765.89562,0.0007440
3764.93124,0.0007515
3763.96687,0.0007569
3763.00249,0.0007312
3762.03811,0.0006810
3761.07373,0.0006134
3760.10935,0.0006030
3759.14498,0.0006386
3758.18060,0.0006558
3757.21622,0.0006261
3756.25184,0.0005893
3755.28747,0.0005926
3754.32309,0.0006036
3753.35871,0.0005893
3752.39433,0.0004905
3751.42995,0.0003879
3750.46558,0.0003329
3749.50120,0.0002698
3748.53682,0.0002721
3747.57244,0.0002773
3746.60806,0.0002438
3745.64369,0.0002392
3744.67931,0.0002868
3743.71493,0.0003765
3742.75055,0.0003837
3741.78618,0.0003030
3740.82180,0.0002647
3739.85742,0.0003179
3738.89304,0.0003965
3737.92866,0.0004554
3736.96429,0.0005323
3735.99991,0.0005567
3735.03553,0.0005255
3734.07115,0.0005096
3733.10677,0.0005285
3732.14240,0.0005717
3731.17802,0.0005588
3730.21364,0.0005068
3729.24926,0.0004747
3728.28488,0.0004254
3727.32051,0.0003684
3726.35613,0.0003410
3725.39175,0.0003099
3724.42737,0.0002522
3723.46300,0.0002336
3722.49862,0.0002945
3721.53424,0.0004162
3720.56986,0.0005914
3719.60548,0.0007426
3718.64111,0.0008238
3717.67673,0.0008532
3716.71235,0.0007912
3715.74797,0.0007009
3714.78359,0.0006739
3713.81922,0.0006809
3712.85484,0.0007124
3711.89046,0.0007596
3710.92608,0.0008302
3709.96171,0.0009524
3708.99733,0.0010935
3708.03295,0.0011928
3707.06857,0.0012088
3706.10419,0.0011202
3705.13982,0.0009350
3704.17544,0.0007766
3703.21106,0.0007385
3702.24668,0.0007720
3701.28230,0.0008117
3700.31793,0.0008115
3699.35355,0.0008322
3698.38917,0.0009205
3697.42479,0.0009943
3696.46041,0.0010015
3695.49604,0.0009472
3694.53166,0.0008715
3693.56728,0.0007884
3692.60290,0.0007403
3691.63853,0.0008260
3690.67415,0.0009780
3689.70977,0.0011149
3688.74539,0.0012661
3687.78101,0.0013844
3686.81664,0.0014640
3685.85226,0.0015181
3684.88788,0.0015105
3683.92350,0.0014821
3682.95912,0.0014714
3681.99475,0.0014694
3681.03037,0.0014552
3680.06599,0.0014682
3679.10161,0.0015424
3678.13724,0.0016616
3677.17286,0.0017653
3676.20848,0.0017503
3675.24410,0.0017117
3674.27972,0.0017025
3673.31535,0.0017081
3672.35097,0.0018133
3671.38659,0.0019835
3670.42221,0.0022031
3669.45783,0.0024127
3668.49346,0.0025597
3667.52908,0.0026983
3666.56470,0.0028145
3665.60032,0.0029033
3664.63594,0.0029281
3663.67157,0.0029213
3662.70719,0.0029491
3661.74281,0.0030604
3660.77843,0.0032638
3659.81406,0.0035010
3658.84968,0.0037859
3657.88530,0.0040228
3656.92092,0.0041605
3655.95654,0.0042889
3654.99217,0.0044544
3654.02779,0.0046308
3653.06341,0.0046849
3652.09903,0.0047015
3651.13465,0.0048246
3650.17028,0.0049777
3649.20590,0.0051123
3648.24152,0.0052944
3647.27714,0.0055160
3646.31276,0.0056666
3645.34839,0.0057855
3644.38401,0.0059139
3643.41963,0.0060256
3642.45525,0.0061127
3641.49088,0.0061472
3640.52650,0.0062311
3639.56212,0.0063716
3638.59774,0.0064763
3637.63336,0.0066027
3636.66899,0.0067713
3635.70461,0.0069279
3634.74023,0.0070992
3633.77585,0.0072823
3632.81147,0.0074500
3631.84710,0.0076731
3630.88272,0.0079094
3629.91834,0.0080763
3628.95396,0.0082334
3627.98959,0.0083817
3627.02521,0.0084844
3626.06083,0.0085710
3625.09645,0.0086197
3624.13207,0.0086091
3623.16770,0.0086222
3622.20332,0.0086368
3621.23894,0.0086635
3620.27456,0.0087898
3619.31018,0.0088956
3618.34581,0.0089410
3617.38143,0.0090065
3616.41705,0.0090905
3615.45267,0.0091610
3614.48829,0.0091591
3613.52392,0.0090869
3612.55954,0.0090022
3611.59516,0.0089979
3610.63078,0.0090465
3609.66641,0.0090549
3608.70203,0.0090799
3607.73765,0.0091316
3606.77327,0.0091687
3605.80889,0.0092056
3604.84452,0.0092535
3603.88014,0.0092680
3602.91576,0.0092144
3601.95138,0.0091805
3600.98700,0.0092093
3600.02263,0.0092443
3599.05825,0.0091982
3598.09387,0.0090275
3597.12949,0.0088553
3596.16512,0.0087842
3595.20074,0.0087828
3594.23636,0.0088212
3593.27198,0.0088773
3592.30760,0.0089555
3591.34323,0.0090762
3590.37885,0.0092140
3589.41447,0.0093312
3588.45009,0.0093866
3587.48571,0.0093772
3586.52134,0.0093622
3585.55696,0.0093784
3584.59258,0.0094075
3583.62820,0.0094276
3582.66382,0.0094349
3581.69945,0.0094331
3580.73507,0.0094447
3579.77069,0.0094455
3578.80631,0.0094289
3577.84194,0.0094576
3576.87756,0.0095008
3575.91318,0.0095448
3574.94880,0.0096272
3573.98442,0.0097082
3573.02005,0.0097209
3572.05567,0.0096489
3571.09129,0.0095790
3570.12691,0.0095431
3569.16253,0.0094882
3568.19816,0.0093982
3567.23378,0.0093154
3566.26940,0.0093021
3565.30502,0.0093040
3564.34065,0.0093119
3563.37627,0.0093747
3562.41189,0.0094286
3561.44751,0.0094496
3560.48313,0.0094887
3559.51876,0.0095689
3558.55438,0.0096305
3557.59000,0.0096711
3556.62562,0.0097258
3555.66124,0.0097480
3554.69687,0.0097503
3553.73249,0.0097282
3552.76811,0.0097152
3551.80373,0.0097784
3550.83935,0.0098342
3549.87498,0.0098800
3548.91060,0.0099825
3547.94622,0.0100891
3546.98184,0.0101544
3546.01747,0.0102202
3545.05309,0.0102666
3544.08871,0.0102335
3543.12433,0.0101548
3542.15995,0.0100386
3541.19558,0.0099542
3540.23120,0.0099920
3539.26682,0.0100582
3538.30244,0.0101234
3537.33806,0.0102735
3536.37369,0.0104671
3535.40931,0.0106460
3534.44493,0.0108475
3533.48055,0.0110191
3532.51618,0.0111225
3531.55180,0.0111860
3530.58742,0.0111688
3529.62304,0.0111440
3528.65866,0.0111705
3527.69429,0.0111725
3526.72991,0.0111491
3525.76553,0.0111389
3524.80115,0.0111249
3523.83677,0.0111042
3522.87240,0.0111297
3521.90802,0.0111863
3520.94364,0.0112857
3519.97926,0.0114348
3519.01488,0.0115460
3518.05051,0.0116653
3517.08613,0.0118140
3516.12175,0.0119533
3515.15737,0.0120898
3514.19300,0.0122043
3513.22862,0.0122919
3512.26424,0.0123328
3511.29986,0.0123990
3510.33548,0.0125266
3509.37111,0.0126433
3508.40673,0.0127353
3507.44235,0.0127896
3506.47797,0.0128326
3505.51359,0.0128575
3504.54922,0.0128510
3503.58484,0.0128384
3502.62046,0.0128179
3501.65608,0.0128299
3500.69171,0.0128534
3499.72733,0.0128912
3498.76295,0.0129691
3497.79857,0.0130524
3496.83419,0.0131505
3495.86982,0.0132271
3494.90544,0.0132703
3493.94106,0.0133297
3492.97668,0.0134062
3492.01230,0.0134819
3491.04793,0.0135501
3490.08355,0.0136057
3489.11917,0.0136312
3488.15479,0.0136657
3487.19041,0.0137431
3486.22604,0.0138229
3485.26166,0.0138578
3484.29728,0.0138207
3483.33290,0.0137684
3482.36853,0.0137607
3481.40415,0.0137786
3480.43977,0.0138198
3479.47539,0.0138753
3478.51101,0.0139115
3477.54664,0.0139648
3476.58226,0.0140977
3475.61788,0.0142815
3474.65350,0.0144604
3473.68912,0.0146163
3472.72475,0.0147267
3471.76037,0.0147925
3470.79599,0.0148475
3469.83161,0.0148916
3468.86724,0.0149036
3467.90286,0.0148918
3466.93848,0.0148610
3465.97410,0.0148265
3465.00972,0.0148578
3464.04535,0.0149631
3463.08097,0.0150696
3462.11659,0.0151558
3461.15221,0.0152282
3460.18783,0.0153184
3459.22346,0.0154360
3458.25908,0.0155001
3457.29470,0.0155065
3456.33032,0.0155339
3455.36594,0.0155982
3454.40157,0.0156698
3453.43719,0.0157467
3452.47281,0.0158290
3451.50843,0.0158920
3450.54406,0.0159537
3449.57968,0.0160346
3448.61530,0.0161149
3447.65092,0.0161434
3446.68654,0.0160970
3445.72217,0.0160384
3444.75779,0.0159874
3443.79341,0.0159316
3442.82903,0.0158963
3441.86465,0.0158993
3440.90028,0.0159485
3439.93590,0.0160478
3438.97152,0.0161684
3438.00714,0.0162446
3437.04276,0.0162922
3436.07839,0.0163521
3435.11401,0.0164003
3434.14963,0.0164210
3433.18525,0.0164162
3432.22088,0.0164254
3431.25650,0.0164772
3430.29212,0.0165270
3429.32774,0.0165526
3428.36336,0.0165998
3427.39899,0.0166487
3426.43461,0.0166743
3425.47023,0.0167499
3424.50585,0.0168577
3423.54147,0.0169251
3422.57710,0.0169656
3421.61272,0.0170218
3420.64834,0.0170802
3419.68396,0.0170844
3418.71959,0.0170424
3417.75521,0.0170188
3416.79083,0.0170362
3415.82645,0.0170522
3414.86207,0.0171050
3413.89770,0.0172020
3412.93332,0.0172708
3411.96894,0.0173161
3411.00456,0.0173282
3410.04018,0.0173361
3409.07581,0.0173289
3408.11143,0.0172862
3407.14705,0.0172815
3406.18267,0.0173024
3405.21829,0.0173138
3404.25392,0.0172793
3403.28954,0.0172541
3402.32516,0.0172887
3401.36078,0.0173188
3400.39641,0.0173385
3399.43203,0.0173477
3398.46765,0.0173782
3397.50327,0.0174106
3396.53889,0.0174390
3395.57452,0.0174779
3394.61014,0.0174701
3393.64576,0.0174543
3392.68138,0.0174008
3391.71700,0.0173337
3390.75263,0.0173456
3389.78825,0.0173834
3388.82387,0.0174307
3387.85949,0.0174960
3386.89512,0.0175808
3385.93074,0.0176479
3384.96636,0.0176479
3384.00198,0.0175780
3383.03760,0.0174903
3382.07323,0.0174509
3381.10885,0.0173869
3380.14447,0.0172846
3379.18009,0.0172109
3378.21571,0.0171693
3377.25134,0.0171809
3376.28696,0.0172287
3375.32258,0.0172954
3374.35820,0.0173583
3373.39382,0.0173664
3372.42945,0.0173389
3371.46507,0.0173146
3370.50069,0.0173268
3369.53631,0.0173615
3368.57194,0.0173747
3367.60756,0.0174042
3366.64318,0.0174567
3365.67880,0.0174860
3364.71442,0.0174472
3363.75005,0.0173526
3362.78567,0.0173093
3361.82129,0.0172825
3360.85691,0.0171764
3359.89253,0.0170450
3358.92816,0.0169907
3357.96378,0.0170058
3356.99940,0.0170339
3356.03502,0.0171117
3355.07065,0.0171675
3354.10627,0.0171349
3353.14189,0.0170498
3352.17751,0.0169539
3351.21313,0.0169492
3350.24876,0.0169202
3349.28438,0.0168030
3348.32000,0.0167596
3347.35562,0.0168014
3346.39124,0.0168829
3345.42687,0.0169787
3344.46249,0.0170551
3343.49811,0.0170846
3342.53373,0.0170749
3341.56935,0.0170396
3340.60498,0.0169932
3339.64060,0.0169502
3338.67622,0.0168818
3337.71184,0.0168591
3336.74747,0.0168800
3335.78309,0.0168687
3334.81871,0.0168478
3333.85433,0.0168113
3332.88995,0.0167879
3331.92558,0.0168122
3330.96120,0.0168641
3329.99682,0.0169041
3329.03244,0.0169021
3328.06806,0.0168864
3327.10369,0.0169181
3326.13931,0.0169894
3325.17493,0.0169962
3324.21055,0.0169384
3323.24618,0.0168776
3322.28180,0.0168463
3321.31742,0.0168556
3320.35304,0.0168569
3319.38866,0.0168325
3318.42429,0.0167607
3317.45991,0.0166647
3316.49553,0.0165947
3315.53115,0.0165500
3314.56677,0.0165119
3313.60240,0.0164227
3312.63802,0.0163506
3311.67364,0.0163603
3310.70926,0.0163718
3309.74488,0.0163662
3308.78051,0.0163595
3307.81613,0.0163655
3306.85175,0.0163826
3305.88737,0.0164012
3304.92300,0.0164306
3303.95862,0.0164482
3302.99424,0.0164471
3302.02986,0.0164143
3301.06548,0.0163853
3300.10111,0.0163809
3299.13673,0.0163244
3298.17235,0.0162316
3297.20797,0.0161372
3296.24359,0.0160775
3295.27922,0.0160756
3294.31484,0.0160813
3293.35046,0.0161294
3292.38608,0.0161856
3291.42171,0.0161943
3290.45733,0.0161752
3289.49295,0.0161218
3288.52857,0.0160654
3287.56419,0.0159909
3286.59982,0.0159131
3285.63544,0.0158776
3284.67106,0.0158785
3283.70668,0.0158985
3282.74230,0.0159189
3281.77793,0.0159750
3280.81355,0.0159917
3279.84917,0.0159352
3278.88479,0.0159193
3277.92041,0.0159508
3276.95604,0.0159944
3275.99166,0.0160288
3275.02728,0.0160581
3274.06290,0.0160721
3273.09853,0.0160588
3272.13415,0.0160365
3271.16977,0.0160067
3270.20539,0.0159894
3269.24101,0.0159344
3268.27664,0.0158527
3267.31226,0.0158166
3266.34788,0.0157996
3265.38350,0.0157969
3264.41912,0.0157927
3263.45475,0.0157732
3262.49037,0.0157402
3261.52599,0.0156899
3260.56161,0.0156685
3259.59724,0.0156777
3258.63286,0.0156751
3257.66848,0.0156528
3256.70410,0.0156300
3255.73972,0.0156148
3254.77535,0.0156199
3253.81097,0.0156565
3252.84659,0.0156841
3251.88221,0.0156824
3250.91783,0.0156394
3249.95346,0.0155594
3248.98908,0.0155008
3248.02470,0.0154317
3247.06032,0.0153197
3246.09594,0.0152614
3245.13157,0.0152799
3244.16719,0.0152945
3243.20281,0.0152923
3242.23843,0.0152956
3241.27406,0.0152884
3240.30968,0.0152730
3239.34530,0.0152747
3238.38092,0.0153021
3237.41654,0.0153346
3236.45217,0.0153346
3235.48779,0.0153330
3234.52341,0.0153796
3233.55903,0.0154150
3232.59465,0.0153771
3231.63028,0.0153210
3230.66590,0.0152891
3229.70152,0.0152458
3228.73714,0.0152132
3227.77276,0.0152082
3226.80839,0.0151959
3225.84401,0.0151924
3224.87963,0.0152019
3223.91525,0.0152317
3222.95088,0.0152658
3221.98650,0.0152357
3221.02212,0.0151983
3220.05774,0.0152361
3219.09336,0.0152960
3218.12899,0.0153325
3217.16461,0.0153354
3216.20023,0.0152753
3215.23585,0.0152095
3214.27147,0.0151799
3213.30710,0.0151265
3212.34272,0.0150552
3211.37834,0.0149840
3210.41396,0.0149054
3209.44959,0.0148566
3208.48521,0.0148439
3207.52083,0.0148505
3206.55645,0.0148535
3205.59207,0.0148065
3204.62770,0.0147299
3203.66332,0.0146989
3202.69894,0.0147171
3201.73456,0.0147415
3200.77018,0.0147441
3199.80581,0.0147170
3198.84143,0.0147030
3197.87705,0.0147334
3196.91267,0.0147894
3195.94829,0.0148486
3194.98392,0.0148630
3194.01954,0.0148002
3193.05516,0.0147355
3192.09078,0.0147355
3191.12641,0.0147407
3190.16203,0.0146800
3189.19765,0.0145513
3188.23327,0.0144197
3187.26889,0.0143663
3186.30452,0.0143772
3185.34014,0.0143992
3184.37576,0.0144315
3183.41138,0.0144521
3182.44700,0.0144312
3181.48263,0.0144261
3180.51825,0.0144587
3179.55387,0.0144590
3178.58949,0.0144058
3177.62512,0.0143261
3176.66074,0.0142409
3175.69636,0.0141551
3174.73198,0.0140812
3173.76760,0.0140533
3172.80323,0.0140453
3171.83885,0.0140015
3170.87447,0.0139538
3169.91009,0.0139610
3168.94571,0.0139928
3167.98134,0.0139972
3167.01696,0.0139955
3166.05258,0.0140204
3165.08820,0.0140495
3164.12382,0.0140416
3163.15945,0.0140091
3162.19507,0.0139823
3161.23069,0.0139363
3160.26631,0.0138570
3159.30194,0.0137656
3158.33756,0.0136675
3157.37318,0.0135705
3156.40880,0.0135019
3155.44442,0.0135001
3154.48005,0.0135502
3153.51567,0.0135856
3152.55129,0.0136083
3151.58691,0.0136538
3150.62253,0.0137146
3149.65816,0.0137688
3148.69378,0.0137976
3147.72940,0.0137855
3146.76502,0.0137155
3145.80065,0.0136109
3144.83627,0.0135167
3143.87189,0.0134353
3142.90751,0.0133609
3141.94313,0.0132828
3140.97876,0.0132143
3140.01438,0.0131944
3139.05000,0.0132004
3138.08562,0.0132257
3137.12124,0.0132796
3136.15687,0.0132959
3135.19249,0.0132472
3134.22811,0.0131764
3133.26373,0.0131117
3132.29935,0.0130415
3131.33498,0.0129619
3130.37060,0.0128984
3129.40622,0.0128607
3128.44184,0.0128575
3127.47747,0.0128544
3126.51309,0.0128199
3125.54871,0.0127922
3124.58433,0.0127737
3123.61995,0.0127704
3122.65558,0.0127780
3121.69120,0.0127633
3120.72682,0.0127515
3119.76244,0.0127531
3118.79806,0.0127541
3117.83369,0.0127434
3116.86931,0.0127140
3115.90493,0.0126588
3114.94055,0.0125788
3113.97618,0.0125426
3113.01180,0.0125605
3112.04742,0.0125662
3111.08304,0.0125506
3110.11866,0.0125154
3109.15429,0.0124499
3108.18991,0.0123633
3107.22553,0.0122847
3106.26115,0.0122358
3105.29677,0.0122048
3104.33240,0.0121807
3103.36802,0.0121605
3102.40364,0.0121658
3101.43926,0.0122024
3100.47488,0.0122052
3099.51051,0.0121611
3098.54613,0.0120980
3097.58175,0.0120032
3096.61737,0.0119288
3095.65300,0.0119127
3094.68862,0.0118987
3093.72424,0.0118693
3092.75986,0.0118298
3091.79548,0.0117849
3090.83111,0.0117922
3089.86673,0.0118554
3088.90235,0.0118721
3087.93797,0.0118209
3086.97359,0.0117765
3086.00922,0.0117405
3085.04484,0.0117070
3084.08046,0.0116858
3083.11608,0.0116672
3082.15171,0.0116595
3081.18733,0.0116359
3080.22295,0.0116115
3079.25857,0.0116352
3078.29419,0.0116756
3077.32982,0.0116941
3076.36544,0.0116870
3075.40106,0.0116857
3074.43668,0.0116923
3073.47230,0.0116798
3072.50793,0.0116652
3071.54355,0.0116389
3070.57917,0.0115774
3069.61479,0.0114829
3068.65041,0.0113934
3067.68604,0.0113625
3066.72166,0.0113684
3065.75728,0.0113644
3064.79290,0.0113478
3063.82853,0.0113217
3062.86415,0.0112646
3061.89977,0.0111929
3060.93539,0.0111384
3059.97101,0.0110586
3059.00664,0.0109413
3058.04226,0.0108266
3057.07788,0.0107484
3056.11350,0.0107321
3055.14912,0.0107510
3054.18475,0.0107686
3053.22037,0.0107667
3052.25599,0.0107310
3051.29161,0.0106673
3050.32724,0.0106092
3049.36286,0.0105877
3048.39848,0.0105692
3047.43410,0.0105215
3046.46972,0.0104784
3045.50535,0.0104523
3044.54097,0.0104290
3043.57659,0.0104209
3042.61221,0.0104106
3041.64783,0.0103633
3040.68346,0.0103046
3039.71908,0.0102635
3038.75470,0.0102462
3037.79032,0.0102784
3036.82594,0.0103446
3035.86157,0.0104040
3034.89719,0.0104500
3033.93281,0.0104433
3032.96843,0.0103795
3032.00406,0.0103333
3031.03968,0.0103056
3030.07530,0.0102409
3029.11092,0.0101513
3028.14654,0.0100963
3027.18217,0.0100821
3026.21779,0.0100867
3025.25341,0.0101105
3024.28903,0.0101327
3023.32465,0.0101156
3022.36028,0.0100305
3021.39590,0.0099214
3020.43152,0.0098471
3019.46714,0.0097928
3018.50276,0.0097260
3017.53839,0.0096326
3016.57401,0.0095661
3015.60963,0.0095536
3014.64525,0.0095543
3013.68088,0.0095633
3012.71650,0.0095734
3011.75212,0.0095500
3010.78774,0.0094748
3009.82336,0.0093909
3008.85899,0.0093459
3007.89461,0.0093463
3006.93023,0.0093515
3005.96585,0.0093150
3005.00147,0.0092862
3004.03710,0.0092806
3003.07272,0.0092543
3002.10834,0.0091885
3001.14396,0.0090936
3000.17959,0.0090123
2999.21521,0.0089501
2998.25083,0.0089113
2997.28645,0.0088974
2996.32207,0.0088983
2995.35770,0.0089233
2994.39332,0.0089633
2993.42894,0.0089933
2992.46456,0.0089916
2991.50018,0.0089557
2990.53581,0.0088851
2989.57143,0.0088353
2988.60705,0.0088354
2987.64267,0.0088194
2986.67829,0.0087582
2985.71392,0.0086584
2984.74954,0.0085833
2983.78516,0.0085723
2982.82078,0.0085651
2981.85641,0.0085253
2980.89203,0.0084644
2979.92765,0.0084139
2978.96327,0.0084026
2977.99889,0.0084254
2977.03452,0.0084260
2976.07014,0.0083851
2975.10576,0.0083261
2974.14138,0.0082734
2973.17700,0.0082593
2972.21263,0.0082487
2971.24825,0.0082239
2970.28387,0.0082046
2969.31949,0.0081887
2968.35512,0.0081811
2967.39074,0.0081837
2966.42636,0.0081946
2965.46198,0.0081903
2964.49760,0.0081845
2963.53323,0.0081887
2962.56885,0.0081761
2961.60447,0.0081451
2960.64009,0.0080996
2959.67571,0.0080520
2958.71134,0.0079914
2957.74696,0.0079208
2956.78258,0.0078636
2955.81820,0.0078153
2954.85382,0.0077731
2953.88945,0.0077381
2952.92507,0.0077233
2951.96069,0.0077168
2950.99631,0.0076930
2950.03194,0.0076569
2949.06756,0.0076323
2948.10318,0.0076132
2947.13880,0.0075911
2946.17442,0.0076014
2945.21005,0.0076255
2944.24567,0.0076307
2943.28129,0.0076415
2942.31691,0.0076790
2941.35253,0.0077372
2940.38816,0.0077970
2939.42378,0.0078348
2938.45940,0.0078445
2937.49502,0.0078651
2936.53065,0.0078852
2935.56627,0.0078817
2934.60189,0.0078725
2933.63751,0.0078364
2932.67313,0.0077777
2931.70876,0.0077241
2930.74438,0.0076785
2929.78000,0.0076334
2928.81562,0.0076087
2927.85124,0.0076212
2926.88687,0.0076474
2925.92249,0.0076806
2924.95811,0.0077028
2923.99373,0.0076952
2923.02935,0.0076533
2922.06498,0.0075860
2921.10060,0.0074984
2920.13622,0.0073879
2919.17184,0.0072858
2918.20747,0.0072035
2917.24309,0.0071635
2916.27871,0.0071595
2915.31433,0.0071499
2914.34995,0.0071455
2913.38558,0.0071442
2912.42120,0.0071268
2911.45682,0.0070811
2910.49244,0.0070306
2909.52806,0.0069823
2908.56369,0.0069300
2907.59931,0.0069031
2906.63493,0.0068759
2905.67055,0.0068423
2904.70618,0.0068166
2903.74180,0.0068060
2902.77742,0.0068189
2901.81304,0.0068114
2900.84866,0.0067832
2899.88429,0.0067578
2898.91991,0.0067407
2897.95553,0.0067431
2896.99115,0.0067516
2896.02677,0.0067307
2895.06240,0.0066625
2894.09802,0.0065984
2893.13364,0.0065715
2892.16926,0.0065607
2891.20488,0.0065393
2890.24051,0.0064831
2889.27613,0.0064266
2888.31175,0.0064058
2887.34737,0.0064104
2886.38300,0.0064242
2885.41862,0.0064152
2884.45424,0.0063747
2883.48986,0.0063369
2882.52548,0.0063395
2881.56111,0.0063834
2880.59673,0.0064171
2879.63235,0.0064182
2878.66797,0.0063971
2877.70359,0.0063669
2876.73922,0.0063549
2875.77484,0.0063468
2874.81046,0.0063254
2873.84608,0.0063100
2872.88171,0.0063151
2871.91733,0.0063338
2870.95295,0.0063446
2869.98857,0.0063351
2869.02419,0.0063010
2868.05982,0.0062781
2867.09544,0.0062911
2866.13106,0.0063125
2865.16668,0.0063323
2864.20230,0.0063564
2863.23793,0.0063942
2862.27355,0.0064337
2861.30917,0.0064550
2860.34479,0.0064480
2859.38041,0.0064086
2858.41604,0.0063618
2857.45166,0.0063291
2856.48728,0.0063431
2855.52290,0.0063937
2854.55853,0.0064188
2853.59415,0.0064222
2852.62977,0.0064389
2851.66539,0.0064571
2850.70101,0.0064455
2849.73664,0.0064083
2848.77226,0.0063410
2847.80788,0.0062575
2846.84350,0.0062027
2845.87912,0.0061798
2844.91475,0.0061835
2843.95037,0.0061824
2842.98599,0.0061588
2842.02161,0.0061340
2841.05724,0.0061247
2840.09286,0.0061291
2839.12848,0.0061066
2838.16410,0.0060631
2837.19972,0.0060069
2836.23535,0.0059454
2835.27097,0.0059321
2834.30659,0.0059571
2833.34221,0.0059787
2832.37783,0.0059854
2831.41346,0.0059792
2830.44908,0.0059561
2829.48470,0.0059496
2828.52032,0.0059772
2827.55594,0.0059876
2826.59157,0.0059760
2825.62719,0.0059424
2824.66281,0.0059068
2823.69843,0.0059045
2822.73406,0.0059168
2821.76968,0.0059319
2820.80530,0.0059317
2819.84092,0.0059168
2818.87654,0.0059056
2817.91217,0.0059198
2816.94779,0.0059575
2815.98341,0.0059646
2815.01903,0.0059259
2814.05465,0.0058660
2813.09028,0.0058266
2812.12590,0.0058130
2811.16152,0.0058049
2810.19714,0.0057981
2809.23276,0.0057839
2808.26839,0.0057877
2807.30401,0.0058057
2806.33963,0.0058246
2805.37525,0.0058466
2804.41088,0.0058442
2803.44650,0.0058270
2802.48212,0.0058169
2801.51774,0.0058114
2800.55336,0.0058017
2799.58899,0.0057835
2798.62461,0.0057705
2797.66023,0.0057872
2796.69585,0.0058162
2795.73147,0.0058256
2794.76710,0.0058349
2793.80272,0.0058464
2792.83834,0.0058453
2791.87396,0.0058269
2790.90959,0.0057965
2789.94521,0.0057610
2788.98083,0.0057162
2788.01645,0.0056822
2787.05207,0.0056620
2786.08770,0.0056476
2785.12332,0.0056344
2784.15894,0.0056343
2783.19456,0.0056597
2782.23018,0.0056735
2781.26581,0.0056785
2780.30143,0.0056762
2779.33705,0.0056613
2778.37267,0.0056666
2777.40829,0.0056859
2776.44392,0.0056923
2775.47954,0.0056703
2774.51516,0.0056393
2773.55078,0.0056253
2772.58641,0.0056228
2771.62203,0.0056174
2770.65765,0.0056062
2769.69327,0.0055974
2768.72889,0.0055658
2767.76452,0.0055133
2766.80014,0.0054903
2765.83576,0.0054935
2764.87138,0.0054822
2763.90700,0.0054673
2762.94263,0.0054654
2761.97825,0.0054596
2761.01387,0.0054640
2760.04949,0.0054801
2759.08512,0.0054860
2758.12074,0.0054693
2757.15636,0.0054302
2756.19198,0.0053959
2755.22760,0.0053727
2754.26323,0.0053537
2753.29885,0.0053452
2752.33447,0.0053539
2751.37009,0.0053615
2750.40571,0.0053654
2749.44134,0.0053924
2748.47696,0.0054106
2747.51258,0.0054003
2746.54820,0.0053864
2745.58382,0.0053824
2744.61945,0.0053804
2743.65507,0.0053528
2742.69069,0.0053115
2741.72631,0.0052801
2740.76194,0.0052504
2739.79756,0.0052028
2738.83318,0.0051650
2737.86880,0.0051725
2736.90442,0.0051752
2735.94005,0.0051489
2734.97567,0.0051340
2734.01129,0.0051443
2733.04691,0.0051505
2732.08253,0.0051422
2731.11816,0.0051377
2730.15378,0.0051281
2729.18940,0.0051113
2728.22502,0.0050809
2727.26065,0.0050479
2726.29627,0.0050265
2725.33189,0.0049774
2724.36751,0.0049298
2723.40313,0.0049223
2722.43876,0.0049279
2721.47438,0.0049428
2720.51000,0.0049681
2719.54562,0.0050011
2718.58124,0.0050256
2717.61687,0.0050192
2716.65249,0.0049781
2715.68811,0.0049227
2714.72373,0.0048661
2713.75935,0.0047977
2712.79498,0.0047487
2711.83060,0.0047299
2710.86622,0.0047315
2709.90184,0.0047635
2708.93747,0.0048018
2707.97309,0.0048510
2707.00871,0.0048956
2706.04433,0.0048982
2705.07995,0.0048899
2704.11558,0.0048753
2703.15120,0.0048257
2702.18682,0.0047545
2701.22244,0.0046999
2700.25806,0.0046738
2699.29369,0.0046814
2698.32931,0.0047186
2697.36493,0.0047624
2696.40055,0.0048163
2695.43618,0.0048604
2694.47180,0.0048761
2693.50742,0.0048746
2692.54304,0.0048467
2691.57866,0.0047967
2690.61429,0.0047366
2689.64991,0.0046716
2688.68553,0.0046121
2687.72115,0.0045775
2686.75677,0.0045648
2685.79240,0.0045557
2684.82802,0.0045565
2683.86364,0.0045701
2682.89926,0.0045755
2681.93488,0.0045406
2680.97051,0.0044931
2680.00613,0.0044637
2679.04175,0.0044323
2678.07737,0.0044052
2677.11300,0.0043902
2676.14862,0.0043978
2675.18424,0.0044133
2674.21986,0.0044215
2673.25548,0.0044489
2672.29111,0.0044786
2671.32673,0.0044759
2670.36235,0.0044453
2669.39797,0.0044329
2668.43359,0.0044438
2667.46922,0.0044443
2666.50484,0.0044382
2665.54046,0.0044259
2664.57608,0.0044090
2663.61171,0.0043779
2662.64733,0.0043352
2661.68295,0.0042950
2660.71857,0.0042566
2659.75419,0.0042430
2658.78982,0.0042457
2657.82544,0.0042528
2656.86106,0.0042727
2655.89668,0.0043037
2654.93230,0.0043342
2653.96793,0.0043394
2653.00355,0.0043263
2652.03917,0.0043061
2651.07479,0.0042659
2650.11041,0.0041966
2649.14604,0.0041286
2648.18166,0.0040905
2647.21728,0.0040640
2646.25290,0.0040574
2645.28853,0.0040675
2644.32415,0.0040789
2643.35977,0.0040990
2642.39539,0.0041106
2641.43101,0.0041168
2640.46664,0.0041339
2639.50226,0.0041431
2638.53788,0.0041206
2637.57350,0.0040791
2636.60912,0.0040437
2635.64475,0.0040148
2634.68037,0.0039698
2633.71599,0.0038857
2632.75161,0.0037968
2631.78724,0.0037381
2630.82286,0.0037038
2629.85848,0.0037148
2628.89410,0.0037570
2627.92972,0.0037911
2626.96535,0.0038223
2626.00097,0.0038338
2625.03659,0.0038187
2624.07221,0.0038081
2623.10783,0.0037943
2622.14346,0.0037706
2621.17908,0.0037580
2620.21470,0.0037728
2619.25032,0.0038103
2618.28594,0.0038316
2617.32157,0.0038177
2616.35719,0.0037911
2615.39281,0.0037642
2614.42843,0.0037218
2613.46406,0.0036636
2612.49968,0.0036113
2611.53530,0.0035860
2610.57092,0.0035912
2609.60654,0.0036099
2608.64217,0.0036493
2607.67779,0.0036939
2606.71341,0.0037192
2605.74903,0.0037372
2604.78465,0.0037273
2603.82028,0.0037000
2602.85590,0.0036887
2601.89152,0.0036660
2600.92714,0.0036292
2599.96276,0.0036265
2598.99839,0.0036586
2598.03401,0.0036720
2597.06963,0.0036700
2596.10525,0.0037019
2595.14088,0.0037565
2594.17650,0.0037603
2593.21212,0.0037079
2592.24774,0.0036749
2591.28336,0.0036613
2590.31899,0.0036325
2589.35461,0.0035991
2588.39023,0.0035767
2587.42585,0.0035538
2586.46147,0.0034987
2585.49710,0.0034188
2584.53272,0.0033441
2583.56834,0.0032838
2582.60396,0.0032116
2581.63959,0.0031402
2580.67521,0.0031259
2579.71083,0.0031477
2578.74645,0.0031751
2577.78207,0.0031926
2576.81770,0.0031918
2575.85332,0.0031918
2574.88894,0.0031818
2573.92456,0.0031690
2572.96018,0.0031689
2571.99581,0.0031817
2571.03143,0.0031710
2570.06705,0.0031417
2569.10267,0.0031795
2568.13829,0.0032267
2567.17392,0.0032290
2566.20954,0.0032310
2565.24516,0.0032215
2564.28078,0.0032283
2563.31641,0.0032447
2562.35203,0.0032474
2561.38765,0.0032698
2560.42327,0.0032907
2559.45889,0.0032728
2558.49452,0.0032365
2557.53014,0.0032232
2556.56576,0.0032047
2555.60138,0.0031868
2554.63700,0.0032019
2553.67263,0.0032192
2552.70825,0.0032607
2551.74387,0.0032774
2550.77949,0.0032376
2549.81512,0.0032550
2548.85074,0.0033129
2547.88636,0.0033338
2546.92198,0.0033164
2545.95760,0.0032733
2544.99323,0.0032463
2544.02885,0.0032537
2543.06447,0.0032829
2542.10009,0.0033146
2541.13571,0.0032996
2540.17134,0.0032136
2539.20696,0.0031016
2538.24258,0.0030128
2537.27820,0.0029344
2536.31382,0.0028480
2535.34945,0.0027775
2534.38507,0.0027344
2533.42069,0.0027298
2532.45631,0.0027705
2531.49194,0.0028246
2530.52756,0.0028641
2529.56318,0.0028611
2528.59880,0.0028370
2527.63442,0.0028392
2526.67005,0.0028694
2525.70567,0.0029469
2524.74129,0.0030540
2523.77691,0.0031247
2522.81253,0.0031211
2521.84816,0.0030468
2520.88378,0.0029447
2519.91940,0.0028518
2518.95502,0.0027853
2517.99065,0.0027363
2517.02627,0.0027268
2516.06189,0.0027926
2515.09751,0.0029141
2514.13313,0.0030589
2513.16876,0.0031437
2512.20438,0.0031068
2511.24000,0.0030072
2510.27562,0.0028995
2509.31124,0.0027979
2508.34687,0.0027570
2507.38249,0.0027716
2506.41811,0.0027454
2505.45373,0.0026872
2504.48935,0.0026411
2503.52498,0.0026097
2502.56060,0.0026164
2501.59622,0.0026150
2500.63184,0.0025864
2499.66747,0.0025826
2498.70309,0.0026016
2497.73871,0.0026573
2496.77433,0.0027750
2495.80995,0.0028633
2494.84558,0.0028594
2493.88120,0.0028690
2492.91682,0.0029226
2491.95244,0.0029771
2490.98806,0.0030547
2490.02369,0.0031065
2489.05931,0.0030853
2488.09493,0.0030242
2487.13055,0.0029614
2486.16618,0.0029097
2485.20180,0.0028542
2484.23742,0.0027954
2483.27304,0.0027375
2482.30866,0.0026934
2481.34429,0.0026698
2480.37991,0.0026542
2479.41553,0.0026424
2478.45115,0.0026366
2477.48677,0.0026433
2476.52240,0.0026441
2475.55802,0.0026390
2474.59364,0.0026238
2473.62926,0.0026048
2472.66488,0.0025972
2471.70051,0.0025436
2470.73613,0.0024838
2469.77175,0.0024605
2468.80737,0.0024260
2467.84300,0.0024219
2466.87862,0.0024563
2465.91424,0.0024843
2464.94986,0.0024798
2463.98548,0.0024170
2463.02111,0.0023459
2462.05673,0.0023604
2461.09235,0.0024157
2460.12797,0.0024151
2459.16359,0.0024193
2458.19922,0.0024343
2457.23484,0.0024274
2456.27046,0.0024451
2455.30608,0.0024499
2454.34171,0.0024491
2453.37733,0.0024528
2452.41295,0.0024213
2451.44857,0.0024274
2450.48419,0.0024893
2449.51982,0.0025057
2448.55544,0.0024725
2447.59106,0.0024653
2446.62668,0.0024732
2445.66230,0.0024697
2444.69793,0.0024630
2443.73355,0.0024678
2442.76917,0.0025006
2441.80479,0.0025300
2440.84041,0.0025444
2439.87604,0.0025716
2438.91166,0.0025990
2437.94728,0.0025875
2436.98290,0.0025477
2436.01853,0.0025060
2435.05415,0.0024773
2434.08977,0.0024841
2433.12539,0.0024825
2432.16101,0.0024541
2431.19664,0.0024281
2430.23226,0.0024169
2429.26788,0.0024379
2428.30350,0.0024960
2427.33912,0.0025562
2426.37475,0.0025388
2425.41037,0.0024939
2424.44599,0.0024947
2423.48161,0.0025219
2422.51724,0.0025521
2421.55286,0.0025130
2420.58848,0.0024368
2419.62410,0.0023539
2418.65972,0.0022714
2417.69535,0.0022542
2416.73097,0.0022407
2415.76659,0.0021968
2414.80221,0.0021630
2413.83783,0.0021770
2412.87346,0.0022275
2411.90908,0.0022841
2410.94470,0.0023414
2409.98032,0.0023642
2409.01594,0.0024029
2408.05157,0.0024207
2407.08719,0.0023792
2406.12281,0.0023531
2405.15843,0.0022837
2404.19406,0.0021928
2403.22968,0.0021643
2402.26530,0.0021670
2401.30092,0.0021731
2400.33654,0.0021979
2399.37217,0.0022472
2398.40779,0.0023095
2397.44341,0.0024047
2396.47903,0.0024560
2395.51465,0.0024247
2394.55028,0.0023852
2393.58590,0.0023180
2392.62152,0.0022550
2391.65714,0.0022437
2390.69276,0.0022253
2389.72839,0.0021890
2388.76401,0.0021761
2387.79963,0.0021886
2386.83525,0.0022062
2385.87088,0.0022272
2384.90650,0.0022299
2383.94212,0.0022253
2382.97774,0.0022418
2382.01336,0.0022621
2381.04899,0.0023213
2380.08461,0.0024378
2379.12023,0.0025745
2378.15585,0.0027391
2377.19147,0.0029389
2376.22710,0.0031311
2375.26272,0.0032895
2374.29834,0.0034889
2373.33396,0.0037575
2372.36959,0.0040297
2371.40521,0.0042977
2370.44083,0.0045469
2369.47645,0.0047749
2368.51207,0.0049904
2367.54770,0.0051527
2366.58332,0.0052552
2365.61894,0.0053038
2364.65456,0.0053082
2363.69018,0.0053017
2362.72581,0.0053497
2361.76143,0.0054531
2360.79705,0.0055198
2359.83267,0.0055405
2358.86829,0.0055218
2357.90392,0.0054572
2356.93954,0.0053597
2355.97516,0.0052011
2355.01078,0.0049479
2354.04641,0.0045795
2353.08203,0.0041694
2352.11765,0.0038133
2351.15327,0.0035493
2350.18889,0.0034086
2349.22452,0.0033570
2348.26014,0.0033810
2347.29576,0.0034915
2346.33138,0.0036806
2345.36700,0.0039629
2344.40263,0.0042682
2343.43825,0.0044723
2342.47387,0.0045429
2341.50949,0.0045676
2340.54512,0.0046085
2339.58074,0.0046198
2338.61636,0.0046033
2337.65198,0.0045831
2336.68760,0.0045224
2335.72323,0.0044176
2334.75885,0.0043334
2333.79447,0.0043184
2332.83009,0.0043315
2331.86571,0.0043103
2330.90134,0.0042505
2329.93696,0.0042100
2328.97258,0.0042083
2328.00820,0.0041659
2327.04382,0.0040728
2326.07945,0.0039699
2325.11507,0.0038356
2324.15069,0.0036920
2323.18631,0.0035776
2322.22194,0.0034923
2321.25756,0.0034280
2320.29318,0.0033400
2319.32880,0.0032375
2318.36442,0.0031836
2317.40005,0.0031428
2316.43567,0.0030678
2315.47129,0.0029796
2314.50691,0.0028674
2313.54253,0.0027367
2312.57816,0.0026411
2311.61378,0.0025868
2310.64940,0.0025427
2309.68502,0.0024961
2308.72065,0.0024345
2307.75627,0.0023543
2306.79189,0.0022927
2305.82751,0.0022727
2304.86313,0.0022545
2303.89876,0.0021964
2302.93438,0.0021358
2301.97000,0.0021000
2301.00562,0.0020903
2300.04124,0.0021317
2299.07687,0.0021615
2298.11249,0.0021468
2297.14811,0.0020992
2296.18373,0.0020111
2295.21935,0.0019698
2294.25498,0.0019829
2293.29060,0.0019680
2292.32622,0.0019214
2291.36184,0.0018815
2290.39747,0.0018333
2289.43309,0.0018026
2288.46871,0.0018681
2287.50433,0.0019169
2286.53995,0.0018686
2285.57558,0.0017790
2284.61120,0.0017144
2283.64682,0.0017414
2282.68244,0.0018007
2281.71806,0.0018200
2280.75369,0.0017248
2279.78931,0.0015610
2278.82493,0.0014374
2277.86055,0.0013590
2276.89618,0.0013395
2275.93180,0.0012696
2274.96742,0.0011676
2274.00304,0.0011189
2273.03866,0.0010659
2272.07429,0.0010702
2271.10991,0.0011568
2270.14553,0.0012361
2269.18115,0.0012899
2268.21677,0.0013809
2267.25240,0.0015031
2266.28802,0.0016785
2265.32364,0.0018453
2264.35926,0.0018789
2263.39488,0.0019057
2262.43051,0.0018713
2261.46613,0.0016759
2260.50175,0.0014850
2259.53737,0.0014066
2258.57300,0.0013933
2257.60862,0.0013271
2256.64424,0.0012319
2255.67986,0.0012099
2254.71548,0.0013281
2253.75111,0.0014633
2252.78673,0.0014913
2251.82235,0.0014866
2250.85797,0.0014684
2249.89359,0.0015195
2248.92922,0.0015897
2247.96484,0.0015472
2247.00046,0.0013780
2246.03608,0.0011285
2245.07171,0.0010764
2244.10733,0.0012613
2243.14295,0.0014306
2242.17857,0.0014610
2241.21419,0.0013271
2240.24982,0.0011098
2239.28544,0.0010362
2238.32106,0.0010803
2237.35668,0.0010498
2236.39230,0.0009004
2235.42793,0.0008073
2234.46355,0.0009002
2233.49917,0.0012023
2232.53479,0.0015167
2231.57041,0.0016527
2230.60604,0.0016704
2229.64166,0.0016350
2228.67728,0.0015707
2227.71290,0.0015687
2226.74853,0.0015668
2225.78415,0.0015649
2224.81977,0.0015629
2223.85539,0.0015610
2222.89101,0.0015590
2221.92664,0.0015571
2220.96226,0.0015552
2219.99788,0.0015532
2219.03350,0.0015513
2218.06912,0.0015494
2217.10475,0.0015474
2216.14037,0.0015455
2215.17599,0.0015435
2214.21161,0.0015416
2213.24724,0.0015397
2212.28286,0.0015377
2211.31848,0.0015358
2210.35410,0.0015338
2209.38972,0.0015319
2208.42535,0.0015300
2207.46097,0.0015280
2206.49659,0.0015261
2205.53221,0.0015242
2204.56783,0.0015222
2203.60346,0.0015203
2202.63908,0.0015183
2201.67470,0.0015164
2200.71032,0.0015145
2199.74594,0.0015125
2198.78157,0.0015106
2197.81719,0.0015086
2196.85281,0.0015067
2195.88843,0.0015048
2194.92406,0.0015028
2193.95968,0.0015009
2192.99530,0.0014990
2192.03092,0.0014970
2191.06654,0.0014951
2190.10217,0.0014931
2189.13779,0.0014912
2188.17341,0.0014893
2187.20903,0.0014873
2186.24465,0.0014854
2185.28028,0.0014834
2184.31590,0.0014815
2183.35152,0.0014796
2182.38714,0.0014776
2181.42276,0.0014757
2180.45839,0.0014738
2179.49401,0.0014718
2178.52963,0.0014699
2177.56525,0.0014679
2176.60088,0.0014660
2175.63650,0.0014641
2174.67212,0.0014621
2173.70774,0.0014602
2172.74336,0.0014582
2171.77899,0.0014563
2170.81461,0.0014544
2169.85023,0.0014524
2168.88585,0.0014505
2167.92147,0.0014486
2166.95710,0.0014466
2165.99272,0.0014447
2165.02834,0.0014427
2164.06396,0.0014408
2163.09959,0.0014389
2162.13521,0.0014369
2161.17083,0.0014350
2160.20645,0.0014330
2159.24207,0.0014311
2158.27770,0.0014292
2157.31332,0.0014272
2156.34894,0.0014253
2155.38456,0.0014234
2154.42018,0.0014214
2153.45581,0.0014195
2152.49143,0.0014175
2151.52705,0.0014156
2150.56267,0.0014137
2149.59829,0.0014117
2148.63392,0.0014098
2147.66954,0.0014078
2146.70516,0.0014059
2145.74078,0.0014040
2144.77641,0.0014020
2143.81203,0.0014001
2142.84765,0.0013981
2141.88327,0.0013962
2140.91889,0.0013943
2139.95452,0.0013923
2138.99014,0.0013904
2138.02576,0.0013885
2137.06138,0.0013865
2136.09700,0.0013846
2135.13263,0.0013826
2134.16825,0.0013807
2133.20387,0.0013788
2132.23949,0.0013768
2131.27512,0.0013749
2130.31074,0.0013729
2129.34636,0.0013710
2128.38198,0.0013691
2127.41760,0.0013671
2126.45323,0.0013652
2125.48885,0.0013633
2124.52447,0.0013613
2123.56009,0.0013594
2122.59571,0.0013574
2121.63134,0.0013555
2120.66696,0.0013536
2119.70258,0.0013516
2118.73820,0.0013497
2117.77382,0.0013477
2116.80945,0.0013458
2115.84507,0.0013439
2114.88069,0.0013419
2113.91631,0.0013400
2112.95194,0.0013381
2111.98756,0.0013361
2111.02318,0.0013342
2110.05880,0.0013322
2109.09442,0.0013303
2108.13005,0.0013284
2107.16567,0.0013264
2106.20129,0.0013245
2105.23691,0.0013225
2104.27253,0.0013206
2103.30816,0.0013187
2102.34378,0.0013167
2101.37940,0.0013148
2100.41502,0.0013129
2099.45065,0.0013109
2098.48627,0.0013090
2097.52189,0.0013070
2096.55751,0.0013051
2095.59313,0.0013032
2094.62876,0.0013012
2093.66438,0.0012993
2092.70000,0.0012973
2091.73562,0.0012954
2090.77124,0.0012935
2089.80687,0.0012915
2088.84249,0.0012896
2087.87811,0.0012877
2086.91373,0.0012857
2085.94935,0.0012838
2084.98498,0.0012818
2084.02060,0.0012799
2083.05622,0.0012780
2082.09184,0.0012760
2081.12747,0.0012741
2080.16309,0.0012721
2079.19871,0.0012702
2078.23433,0.0012683
2077.26995,0.0012663
2076.30558,0.0012644
2075.34120,0.0012625
2074.37682,0.0012605
2073.41244,0.0012586
2072.44806,0.0012566
2071.48369,0.0012547
2070.51931,0.0012528
2069.55493,0.0012508
2068.59055,0.0012489
2067.62618,0.0012469
2066.66180,0.0012450
2065.69742,0.0012431
2064.73304,0.0012411
2063.76866,0.0012392
2062.80429,0.0012372
2061.83991,0.0012353
2060.87553,0.0012334
2059.91115,0.0012314
2058.94677,0.0012295
2057.98240,0.0012276
2057.01802,0.0012256
2056.05364,0.0012237
2055.08926,0.0012217
2054.12488,0.0012198
2053.16051,0.0012179
2052.19613,0.0012159
2051.23175,0.0012140
2050.26737,0.0012120
2049.30300,0.0012101
2048.33862,0.0012082
2047.37424,0.0012062
2046.40986,0.0012043
2045.44548,0.0012024
2044.48111,0.0012004
2043.51673,0.0011985
2042.55235,0.0011965
2041.58797,0.0011946
2040.62359,0.0011927
2039.65922,0.0011907
2038.69484,0.0011888
2037.73046,0.0011868
2036.76608,0.0011849
2035.80171,0.0011830
2034.83733,0.0011810
2033.87295,0.0011791
2032.90857,0.0011772
2031.94419,0.0011752
2030.97982,0.0011733
2030.01544,0.0011713
2029.05106,0.0011694
2028.08668,0.0011675
2027.12230,0.0011655
2026.15793,0.0011636
2025.19355,0.0011616
2024.22917,0.0011597
2023.26479,0.0011578
2022.30041,0.0011558
2021.33604,0.0011539
2020.37166,0.0011520
2019.40728,0.0011500
2018.44290,0.0011481
2017.47853,0.0011461
2016.51415,0.0011442
2015.54977,0.0011423
2014.58539,0.0011403
2013.62101,0.0011384
2012.65664,0.0011364
2011.69226,0.0011345
2010.72788,0.0011326
2009.76350,0.0011306
2008.79912,0.0011287
2007.83475,0.0011268
2006.87037,0.0011248
2005.90599,0.0011229
2004.94161,0.0011209
2003.97724,0.0011190
2003.01286,0.0011171
2002.04848,0.0011151
2001.08410,0.0011132
2000.11972,0.0011112
1999.15535,0.0011093
1998.19097,0.0011074
1997.22659,0.0011054
1996.26221,0.0011035
1995.29783,0.0011016
1994.33346,0.0010996
1993.36908,0.0010977
1992.40470,0.0010957
1991.44032,0.0010938
1990.47594,0.0010919
1989.51157,0.0010899
1988.54719,0.0010880
1987.58281,0.0010860
1986.61843,0.0010841
1985.65406,0.0010822
1984.68968,0.0010802
1983.72530,0.0010783
1982.76092,0.0010764
1981.79654,0.0010744
1980.83217,0.0010725
1979.86779,0.0010705
1978.90341,0.0010686
1977.93903,0.0010667
1976.97465,0.0010647
1976.01028,0.0010628
1975.04590,0.0010608
1974.08152,0.0010589
1973.11714,0.0010570
1972.15276,0.0010550
1971.18839,0.0010531
1970.22401,0.0010511
1969.25963,0.0010492
1968.29525,0.0010473
1967.33088,0.0010453
1966.36650,0.0010434
1965.40212,0.0010415
1964.43774,0.0010395
1963.47336,0.0010376
1962.50899,0.0010356
1961.54461,0.0010337
1960.58023,0.0010318
1959.61585,0.0010298
1958.65147,0.0010279
1957.68710,0.0010259
1956.72272,0.0010240
1955.75834,0.0010221
1954.79396,0.0010201
1953.82959,0.0010182
1952.86521,0.0010163
1951.90083,0.0010143
1950.93645,0.0010124
1949.97207,0.0010104
1949.00770,0.0010085
1948.04332,0.0010066
1947.07894,0.0010046
1946.11456,0.0010027
1945.15018,0.0010007
1944.18581,0.0009988
1943.22143,0.0009969
1942.25705,0.0009949
1941.29267,0.0009930
1940.32829,0.0009911
1939.36392,0.0009891
1938.39954,0.0009872
1937.43516,0.0009778
1936.47078,0.0009654
1935.50641,0.0009508
1934.54203,0.0009932
1933.57765,0.0010597
1932.61327,0.0010559
1931.64889,0.0010662
1930.68452,0.0011415
1929.72014,0.0011827
1928.75576,0.0012064
1927.79138,0.0012344
1926.82700,0.0011477
1925.86263,0.0010600
1924.89825,0.0011047
1923.93387,0.0011876
1922.96949,0.0012897
1922.00512,0.0012788
1921.04074,0.0011767
1920.07636,0.0012008
1919.11198,0.0013183
1918.14760,0.0014705
1917.18323,0.0016989
1916.21885,0.0019048
1915.25447,0.0019623
1914.29009,0.0020579
1913.32571,0.0021791
1912.36134,0.0021386
1911.39696,0.0019948
1910.43258,0.0017584
1909.46820,0.0015457
1908.50382,0.0013991
1907.53945,0.0013228
1906.57507,0.0014133
1905.61069,0.0015513
1904.64631,0.0016670
1903.68194,0.0017124
1902.71756,0.0016940
1901.75318,0.0016592
1900.78880,0.0015668
1899.82442,0.0014564
1898.86005,0.0013699
1897.89567,0.0013174
1896.93129,0.0012617
1895.96691,0.0012789
1895.00253,0.0013932
1894.03816,0.0014693
1893.07378,0.0015053
1892.10940,0.0014720
1891.14502,0.0013999
1890.18065,0.0013552
1889.21627,0.0013104
1888.25189,0.0012567
1887.28751,0.0011901
1886.32313,0.0011491
1885.35876,0.0011354
1884.39438,0.0011798
1883.43000,0.0012671
1882.46562,0.0013295
1881.50124,0.0013945
1880.53687,0.0014384
1879.57249,0.0014852
1878.60811,0.0015802
1877.64373,0.0017027
1876.67935,0.0017951
1875.71498,0.0018280
1874.75060,0.0018702
1873.78622,0.0019158
1872.82184,0.0019761
1871.85747,0.0020463
1870.89309,0.0020668
1869.92871,0.0020544
1868.96433,0.0019990
1867.99995,0.0019467
1867.03558,0.0018983
1866.07120,0.0018067
1865.10682,0.0017255
1864.14244,0.0016590
1863.17806,0.0016318
1862.21369,0.0016688
1861.24931,0.0017414
1860.28493,0.0018295
1859.32055,0.0018978
1858.35618,0.0019615
1857.39180,0.0020537
1856.42742,0.0021661
1855.46304,0.0022320
1854.49866,0.0022336
1853.53429,0.0022295
1852.56991,0.0022282
1851.60553,0.0022617
1850.64115,0.0023138
1849.67677,0.0023384
1848.71240,0.0023752
1847.74802,0.0024085
1846.78364,0.0024173
1845.81926,0.0024234
1844.85488,0.0024383
1843.89051,0.0024656
1842.92613,0.0025017
1841.96175,0.0025533
1840.99737,0.0026060
1840.03300,0.0026682
1839.06862,0.0027438
1838.10424,0.0028118
1837.13986,0.0028941
1836.17548,0.0029557
1835.21111,0.0029739
1834.24673,0.0030038
1833.28235,0.0030570
1832.31797,0.0031369
1831.35359,0.0032187
1830.38922,0.0032573
1829.42484,0.0032619
1828.46046,0.0032499
1827.49608,0.0032544
1826.53171,0.0032942
1825.56733,0.0033447
1824.60295,0.0033814
1823.63857,0.0034295
1822.67419,0.0035187
1821.70982,0.0035900
1820.74544,0.0036322
1819.78106,0.0036781
1818.81668,0.0037142
1817.85230,0.0037471
1816.88793,0.0037746
1815.92355,0.0038186
1814.95917,0.0038916
1813.99479,0.0039545
1813.03041,0.0040029
1812.06604,0.0040537
1811.10166,0.0041006
1810.13728,0.0041144
1809.17290,0.0041122
1808.20853,0.0041279
1807.24415,0.0041447
1806.27977,0.0041427
1805.31539,0.0041315
1804.35101,0.0041388
1803.38664,0.0041760
1802.42226,0.0042333
1801.45788,0.0042833
1800.49350,0.0043309
1799.52912,0.0043941
1798.56475,0.0044422
1797.60037,0.0044695
1796.63599,0.0044889
1795.67161,0.0045015
1794.70724,0.0045151
1793.74286,0.0045362
1792.77848,0.0045569
1791.81410,0.0045756
1790.84972,0.0046038
1789.88535,0.0046242
1788.92097,0.0046535
1787.95659,0.0047058
1786.99221,0.0047577
1786.02783,0.0048145
1785.06346,0.0048722
1784.09908,0.0049292
1783.13470,0.0049825
1782.17032,0.0050266
1781.20594,0.0050704
1780.24157,0.0051194
1779.27719,0.0051828
1778.31281,0.0052531
1777.34843,0.0053373
1776.38406,0.0054369
1775.41968,0.0055382
1774.45530,0.0056329
1773.49092,0.0057067
1772.52654,0.0057729
1771.56217,0.0058460
1770.59779,0.0059347
1769.63341,0.0060413
1768.66903,0.0061555
1767.70465,0.0062704
1766.74028,0.0063710
1765.77590,0.0064674
1764.81152,0.0065713
1763.84714,0.0066782
1762.88276,0.0067955
1761.91839,0.0069201
1760.95401,0.0070409
1759.98963,0.0071622
1759.02525,0.0072889
1758.06088,0.0074176
1757.09650,0.0075407
1756.13212,0.0076439
1755.16774,0.0077402
1754.20336,0.0078581
1753.23899,0.0079784
1752.27461,0.0080821
1751.31023,0.0081867
1750.34585,0.0082920
1749.38147,0.0083855
1748.41710,0.0084717
1747.45272,0.0085516
1746.48834,0.0086293
1745.52396,0.0087044
1744.55959,0.0087785
1743.59521,0.0088680
1742.63083,0.0089567
1741.66645,0.0090254
1740.70207,0.0090916
1739.73770,0.0091589
1738.77332,0.0091955
1737.80894,0.0091939
1736.84456,0.0091730
1735.88018,0.0091400
1734.91581,0.0091071
1733.95143,0.0090754
1732.98705,0.0090391
1732.02267,0.0090181
1731.05829,0.0090164
1730.09392,0.0090270
1729.12954,0.0090385
1728.16516,0.0090263
1727.20078,0.0089920
1726.23641,0.0089546
1725.27203,0.0089096
1724.30765,0.0088530
1723.34327,0.0087816
1722.37889,0.0086891
1721.41452,0.0085896
1720.45014,0.0084934
1719.48576,0.0084030
1718.52138,0.0083257
1717.55700,0.0082590
1716.59263,0.0082040
1715.62825,0.0081669
1714.66387,0.0081306
1713.69949,0.0080973
1712.73512,0.0080844
1711.77074,0.0080508
1710.80636,0.0079777
1709.84198,0.0079018
1708.87760,0.0078213
1707.91323,0.0077378
1706.94885,0.0076799
1705.98447,0.0076308
1705.02009,0.0075509
1704.05571,0.0074598
1703.09134,0.0073940
1702.12696,0.0073624
1701.16258,0.0073341
1700.19820,0.0072732
1699.23382,0.0072094
1698.26945,0.0071804
1697.30507,0.0071723
1696.34069,0.0071800
1695.37631,0.0072070
1694.41194,0.0072397
1693.44756,0.0072764
1692.48318,0.0073324
1691.51880,0.0074173
1690.55442,0.0075085
1689.59005,0.0075578
1688.62567,0.0075858
1687.66129,0.0076372
1686.69691,0.0077097
1685.73253,0.0077910
1684.76816,0.0078770
1683.80378,0.0079709
1682.83940,0.0080945
1681.87502,0.0082593
1680.91065,0.0084275
1679.94627,0.0085758
1678.98189,0.0087213
1678.01751,0.0088612
1677.05313,0.0090078
1676.08876,0.0091738
1675.12438,0.0093463
1674.16000,0.0095203
1673.19562,0.0097065
1672.23124,0.0099147
1671.26687,0.0101467
1670.30249,0.0104004
1669.33811,0.0106530
1668.37373,0.0108828
1667.40935,0.0111170
1666.44498,0.0113629
1665.48060,0.0116042
1664.51622,0.0118483
1663.55184,0.0120810
1662.58747,0.0122918
1661.62309,0.0125069
1660.65871,0.0127322
1659.69433,0.0129570
1658.72995,0.0131793
1657.76558,0.0133776
1656.80120,0.0135479
1655.83682,0.0137287
1654.87244,0.0139351
1653.90806,0.0141655
1652.94369,0.0144146
1651.97931,0.0146535
1651.01493,0.0148741
1650.05055,0.0150903
1649.08618,0.0153096
1648.12180,0.0155241
1647.15742,0.0157198
1646.19304,0.0158902
1645.22866,0.0160640
1644.26429,0.0162648
1643.29991,0.0164724
1642.33553,0.0166771
1641.37115,0.0168666
1640.40677,0.0170115
1639.44240,0.0171073
1638.47802,0.0171859
1637.51364,0.0172799
1636.54926,0.0173804
1635.58488,0.0174818
1634.62051,0.0175876
1633.65613,0.0176890
1632.69175,0.0177663
1631.72737,0.0178172
1630.76300,0.0178514
1629.79862,0.0178540
1628.83424,0.0178169
1627.86986,0.0177510
1626.90548,0.0176827
1625.94111,0.0176166
1624.97673,0.0175393
1624.01235,0.0174498
1623.04797,0.0173436
1622.08359,0.0172098
1621.11922,0.0170193
1620.15484,0.0168001
1619.19046,0.0165804
1618.22608,0.0163438
1617.26171,0.0160927
1616.29733,0.0158298
1615.33295,0.0155643
1614.36857,0.0152947
1613.40419,0.0150215
1612.43982,0.0147504
1611.47544,0.0144842
1610.51106,0.0142154
1609.54668,0.0139168
1608.58230,0.0136179
1607.61793,0.0133322
1606.65355,0.0130363
1605.68917,0.0127437
1604.72479,0.0124705
1603.76041,0.0122112
1602.79604,0.0119564
1601.83166,0.0117100
1600.86728,0.0114749
1599.90290,0.0112489
1598.93853,0.0110204
1597.97415,0.0107838
1597.00977,0.0105526
1596.04539,0.0103286
1595.08101,0.0101091
1594.11664,0.0099057
1593.15226,0.0097236
1592.18788,0.0095496
1591.22350,0.0093830
1590.25912,0.0092260
1589.29475,0.0090703
1588.33037,0.0089153
1587.36599,0.0087619
1586.40161,0.0086148
1585.43724,0.0084731
1584.47286,0.0083349
1583.50848,0.0082043
1582.54410,0.0080869
1581.57972,0.0079709
1580.61535,0.0078289
1579.65097,0.0076670
1578.68659,0.0075040
1577.72221,0.0073570
1576.75783,0.0072372
1575.79346,0.0071308
1574.82908,0.0070214
1573.86470,0.0069143
1572.90032,0.0068263
1571.93594,0.0067629
1570.97157,0.0067200
1570.00719,0.0066649
1569.04281,0.0065744
1568.07843,0.0064809
1567.11406,0.0064036
1566.14968,0.0063397
1565.18530,0.0062748
1564.22092,0.0061845
1563.25654,0.0060618
1562.29217,0.0059268
1561.32779,0.0058062
1560.36341,0.0057105
1559.39903,0.0056389
1558.43465,0.0055863
1557.47028,0.0055507
1556.50590,0.0055357
1555.54152,0.0055294
1554.57714,0.0055263
1553.61276,0.0055321
1552.64839,0.0055306
1551.68401,0.0055030
1550.71963,0.0054599
1549.75525,0.0054135
1548.79088,0.0053658
1547.82650,0.0053158
1546.86212,0.0052629
1545.89774,0.0052131
1544.93336,0.0051513
1543.96899,0.0050663
1543.00461,0.0049876
1542.04023,0.0049419
1541.07585,0.0049235
1540.11147,0.0049142
1539.14710,0.0049069
1538.18272,0.0048910
1537.21834,0.0048697
1536.25396,0.0048604
1535.28959,0.0048641
1534.32521,0.0048802
1533.36083,0.0048896
1532.39645,0.0048794
1531.43207,0.0048709
1530.46770,0.0048727
1529.50332,0.0048776
1528.53894,0.0048755
1527.57456,0.0048694
1526.61018,0.0048544
1525.64581,0.0048189
1524.68143,0.0047848
1523.71705,0.0047715
1522.75267,0.0047760
1521.78829,0.0047877
1520.82392,0.0048011
1519.85954,0.0048171
1518.89516,0.0048363
1517.93078,0.0048577
1516.96641,0.0048768
1516.00203,0.0048987
1515.03765,0.0049154
1514.07327,0.0049141
1513.10889,0.0049157
1512.14452,0.0049263
1511.18014,0.0049157
1510.21576,0.0048840
1509.25138,0.0048674
1508.28700,0.0048756
1507.32263,0.0048970
1506.35825,0.0049307
1505.39387,0.0049848
1504.42949,0.0050561
1503.46512,0.0051302
1502.50074,0.0052130
1501.53636,0.0052927
1500.57198,0.0053473
1499.60760,0.0053832
1498.64323,0.0054103
1497.67885,0.0054429
1496.71447,0.0054837
1495.75009,0.0055259
1494.78571,0.0055787
1493.82134,0.0056479
1492.85696,0.0057182
1491.89258,0.0057713
1490.92820,0.0058211
1489.96382,0.0058738
1488.99945,0.0059316
1488.03507,0.0060065
1487.07069,0.0060786
1486.10631,0.0061471
1485.14194,0.0062262
1484.17756,0.0063031
1483.21318,0.0063780
1482.24880,0.0064594
1481.28442,0.0065362
1480.32005,0.0065969
1479.35567,0.0066624
1478.39129,0.0067484
1477.42691,0.0068269
1476.46253,0.0068925
1475.49816,0.0069730
1474.53378,0.0070682
1473.56940,0.0071654
1472.60502,0.0072653
1471.64065,0.0073745
1470.67627,0.0074911
1469.71189,0.0076005
1468.74751,0.0077115
1467.78313,0.0078321
1466.81876,0.0079464
1465.85438,0.0080482
1464.89000,0.0081539
1463.92562,0.0082838
1462.96124,0.0084094
1461.99687,0.0085060
1461.03249,0.0086036
1460.06811,0.0087054
1459.10373,0.0087963
1458.13935,0.0088761
1457.17498,0.0089652
1456.21060,0.0090692
1455.24622,0.0091735
1454.28184,0.0092917
1453.31747,0.0094294
1452.35309,0.0095673
1451.38871,0.0096823
1450.42433,0.0097739
1449.45995,0.0098733
1448.49558,0.0099856
1447.53120,0.0100941
1446.56682,0.0102010
1445.60244,0.0103216
1444.63806,0.0104425
1443.67369,0.0105499
1442.70931,0.0106574
1441.74493,0.0107590
1440.78055,0.0108420
1439.81618,0.0109195
1438.85180,0.0110111
1437.88742,0.0111204
1436.92304,0.0112436
1435.95866,0.0113711
1434.99429,0.0115014
1434.02991,0.0116371
1433.06553,0.0117638
1432.10115,0.0118841
1431.13677,0.0119986
1430.17240,0.0120976
1429.20802,0.0121914
1428.24364,0.0122914
1427.27926,0.0123996
1426.31488,0.0125137
1425.35051,0.0126359
1424.38613,0.0127566
1423.42175,0.0128771
1422.45737,0.0130020
1421.49300,0.0131194
1420.52862,0.0132355
1419.56424,0.0133537
1418.59986,0.0134794
1417.63548,0.0136215
1416.67111,0.0137732
1415.70673,0.0139280
1414.74235,0.0140845
1413.77797,0.0142403
1412.81359,0.0143781
1411.84922,0.0145056
1410.88484,0.0146311
1409.92046,0.0147412
1408.95608,0.0148425
1407.99171,0.0149312
1407.02733,0.0150113
1406.06295,0.0151094
1405.09857,0.0152162
1404.13419,0.0153026
1403.16982,0.0153737
1402.20544,0.0154408
1401.24106,0.0154940
1400.27668,0.0155398
1399.31230,0.0155854
1398.34793,0.0156236
1397.38355,0.0156496
1396.41917,0.0156569
1395.45479,0.0156572
1394.49041,0.0156757
1393.52604,0.0156989
1392.56166,0.0157015
1391.59728,0.0157011
1390.63290,0.0157036
1389.66853,0.0156996
1388.70415,0.0156951
1387.73977,0.0156935
1386.77539,0.0156902
1385.81101,0.0156657
1384.84664,0.0156298
1383.88226,0.0156012
1382.91788,0.0155759
1381.95350,0.0155544
1380.98912,0.0155350
1380.02475,0.0155250
1379.06037,0.0155177
1378.09599,0.0155089
1377.13161,0.0155032
1376.16724,0.0155002
1375.20286,0.0155013
1374.23848,0.0154882
1373.27410,0.0154764
1372.30972,0.0154765
1371.34535,0.0154642
1370.38097,0.0154475
1369.41659,0.0154339
1368.45221,0.0154129
1367.48783,0.0153744
1366.52346,0.0153295
1365.55908,0.0152805
1364.59470,0.0152238
1363.63032,0.0151715
1362.66594,0.0151218
1361.70157,0.0150850
1360.73719,0.0150551
1359.77281,0.0150162
1358.80843,0.0149781
1357.84406,0.0149446
1356.87968,0.0149038
1355.91530,0.0148460
1354.95092,0.0147919
1353.98654,0.0147382
1353.02217,0.0146685
1352.05779,0.0145963
1351.09341,0.0145299
1350.12903,0.0144618
1349.16465,0.0143798
1348.20028,0.0143026
1347.23590,0.0142314
1346.27152,0.0141531
1345.30714,0.0140757
1344.34276,0.0139937
1343.37839,0.0139184
1342.41401,0.0138453
1341.44963,0.0137640
1340.48525,0.0136827
1339.52088,0.0136058
1338.55650,0.0135427
1337.59212,0.0134873
1336.62774,0.0134432
1335.66336,0.0134072
1334.69899,0.0133762
1333.73461,0.0133528
1332.77023,0.0133205
1331.80585,0.0132831
1330.84147,0.0132404
1329.87710,0.0131948
1328.91272,0.0131487
1327.94834,0.0131005
1326.98396,0.0130585
1326.01959,0.0130121
1325.05521,0.0129715
1324.09083,0.0129481
1323.12645,0.0129292
1322.16207,0.0129005
1321.19770,0.0128595
1320.23332,0.0128189
1319.26894,0.0127688
1318.30456,0.0127135
1317.34018,0.0126557
1316.37581,0.0125926
1315.41143,0.0125410
1314.44705,0.0124947
1313.48267,0.0124599
1312.51829,0.0124451
1311.55392,0.0124342
1310.58954,0.0124142
1309.62516,0.0123890
1308.66078,0.0123752
1307.69641,0.0123684
1306.73203,0.0123622
1305.76765,0.0123589
1304.80327,0.0123650
1303.83889,0.0123796
1302.87452,0.0123838
1301.91014,0.0123899
1300.94576,0.0124103
1299.98138,0.0124301
1299.01700,0.0124441
1298.05263,0.0124531
1297.08825,0.0124632
1296.12387,0.0124744
1295.15949,0.0124835
1294.19512,0.0125004
1293.23074,0.0125278
1292.26636,0.0125556
1291.30198,0.0125800
1290.33760,0.0126009
1289.37323,0.0126190
1288.40885,0.0126390
1287.44447,0.0126506
1286.48009,0.0126439
1285.51571,0.0126227
1284.55134,0.0125999
1283.58696,0.0125962
1282.62258,0.0126058
1281.65820,0.0126065
1280.69382,0.0125971
1279.72945,0.0125885
1278.76507,0.0125759
1277.80069,0.0125509
1276.83631,0.0125236
1275.87194,0.0124997
1274.90756,0.0124774
1273.94318,0.0124583
1272.97880,0.0124499
1272.01442,0.0124557
1271.05005,0.0124658
1270.08567,0.0124751
1269.12129,0.0124886
1268.15691,0.0125114
1267.19253,0.0125300
1266.22816,0.0125360
1265.26378,0.0125435
1264.29940,0.0125547
1263.33502,0.0125660
1262.37065,0.0125721
1261.40627,0.0125712
1260.44189,0.0125685
1259.47751,0.0125714
1258.51313,0.0125874
1257.54876,0.0126076
1256.58438,0.0126210
1255.62000,0.0126192
1254.65562,0.0126100
1253.69124,0.0126039
1252.72687,0.0126032
1251.76249,0.0126117
1250.79811,0.0126125
1249.83373,0.0126082
1248.86935,0.0126099
1247.90498,0.0126119
1246.94060,0.0126210
1245.97622,0.0126290
1245.01184,0.0126186
1244.04747,0.0125916
1243.08309,0.0125686
1242.11871,0.0125597
1241.15433,0.0125645
1240.18995,0.0125735
1239.22558,0.0125650
1238.26120,0.0125532
1237.29682,0.0125554
1236.33244,0.0125611
1235.36806,0.0125610
1234.40369,0.0125523
1233.43931,0.0125342
1232.47493,0.0125088
1231.51055,0.0124937
1230.54618,0.0124922
1229.58180,0.0124890
1228.61742,0.0124631
1227.65304,0.0124134
1226.68866,0.0123670
1225.72429,0.0123223
1224.75991,0.0122718
1223.79553,0.0122182
1222.83115,0.0121682
1221.86677,0.0121224
1220.90240,0.0120742
1219.93802,0.0120418
1218.97364,0.0120304
1218.00926,0.0120245
1217.04488,0.0120085
1216.08051,0.0119873
1215.11613,0.0119677
1214.15175,0.0119383
1213.18737,0.0119131
1212.22300,0.0118875
1211.25862,0.0118492
1210.29424,0.0118036
1209.32986,0.0117534
1208.36548,0.0117142
1207.40111,0.0116834
1206.43673,0.0116610
1205.47235,0.0116519
1204.50797,0.0116487
1203.54359,0.0116444
1202.57922,0.0116326
1201.61484,0.0116267
1200.65046,0.0116206
1199.68608,0.0116022
1198.72171,0.0115809
1197.75733,0.0115670
1196.79295,0.0115654
1195.82857,0.0115553
1194.86419,0.0115394
1193.89982,0.0115410
1192.93544,0.0115563
1191.97106,0.0115743
1191.00668,0.0115861
1190.04230,0.0116036
1189.07793,0.0116278
1188.11355,0.0116300
1187.14917,0.0116189
1186.18479,0.0116250
1185.22041,0.0116403
1184.25604,0.0116474
1183.29166,0.0116572
1182.32728,0.0116833
1181.36290,0.0117197
1180.39853,0.0117511
1179.43415,0.0117757
1178.46977,0.0118017
1177.50539,0.0118191
1176.54101,0.0118179
1175.57664,0.0118172
1174.61226,0.0118314
1173.64788,0.0118533
1172.68350,0.0118799
1171.71912,0.0119099
1170.75475,0.0119450
1169.79037,0.0119892
1168.82599,0.0120365
1167.86161,0.0120881
1166.89724,0.0121426
1165.93286,0.0121960
1164.96848,0.0122468
1164.00410,0.0122873
1163.03972,0.0123230
1162.07535,0.0123513
1161.11097,0.0123632
1160.14659,0.0123739
1159.18221,0.0123934
1158.21783,0.0124138
1157.25346,0.0124277
1156.28908,0.0124461
1155.32470,0.0124748
1154.36032,0.0125064
1153.39594,0.0125435
1152.43157,0.0125934
1151.46719,0.0126549
1150.50281,0.0126987
1149.53843,0.0127247
1148.57406,0.0127594
1147.60968,0.0127945
1146.64530,0.0128316
1145.68092,0.0128865
1144.71654,0.0129632
1143.75217,0.0130362
1142.78779,0.0130927
1141.82341,0.0131536
1140.85903,0.0132076
1139.89465,0.0132522
1138.93028,0.0132847
1137.96590,0.0133046
1137.00152,0.0133328
1136.03714,0.0133652
1135.07276,0.0134095
1134.10839,0.0134657
1133.14401,0.0135278
1132.17963,0.0135924
1131.21525,0.0136466
1130.25088,0.0136947
1129.28650,0.0137294
1128.32212,0.0137649
1127.35774,0.0138118
1126.39336,0.0138540
1125.42899,0.0138958
1124.46461,0.0139317
1123.50023,0.0139573
1122.53585,0.0139775
1121.57147,0.0140050
1120.60710,0.0140380
1119.64272,0.0140519
1118.67834,0.0140548
1117.71396,0.0140552
1116.74959,0.0140570
1115.78521,0.0140770
1114.82083,0.0141209
1113.85645,0.0141812
1112.89207,0.0142308
1111.92770,0.0142643
1110.96332,0.0143034
1109.99894,0.0143455
1109.03456,0.0143726
1108.07018,0.0143801
1107.10581,0.0143822
1106.14143,0.0143838
1105.17705,0.0143768
1104.21267,0.0143741
1103.24829,0.0143894
1102.28392,0.0144041
1101.31954,0.0144038
1100.35516,0.0144143
1099.39078,0.0144601
1098.42641,0.0145225
1097.46203,0.0145837
1096.49765,0.0146414
1095.53327,0.0146920
1094.56889,0.0147428
1093.60452,0.0147909
1092.64014,0.0148261
1091.67576,0.0148386
1090.71138,0.0148134
1089.74700,0.0147602
1088.78263,0.0147106
1087.81825,0.0146750
1086.85387,0.0146265
1085.88949,0.0145608
1084.92512,0.0145089
1083.96074,0.0144811
1082.99636,0.0144838
1082.03198,0.0145023
1081.06760,0.0145103
1080.10323,0.0145208
1079.13885,0.0145298
1078.17447,0.0145247
1077.21009,0.0145183
1076.24571,0.0145020
1075.28134,0.0144635
1074.31696,0.0144171
1073.35258,0.0143681
1072.38820,0.0143076
1071.42382,0.0142413
1070.45945,0.0141579
1069.49507,0.0140629
1068.53069,0.0139965
1067.56631,0.0139464
1066.60194,0.0138948
1065.63756,0.0138550
1064.67318,0.0138276
1063.70880,0.0138006
1062.74442,0.0137455
1061.78005,0.0136581
1060.81567,0.0135669
1059.85129,0.0134842
1058.88691,0.0133987
1057.92253,0.0133127
1056.95816,0.0132409
1055.99378,0.0131831
1055.02940,0.0131448
1054.06502,0.0131127
1053.10065,0.0130632
1052.13627,0.0129897
1051.17189,0.0128920
1050.20751,0.0127944
1049.24313,0.0127132
1048.27876,0.0126462
1047.31438,0.0125865
1046.35000,0.0125321
1045.38562,0.0124840
1044.42124,0.0124330
1043.45687,0.0123898
1042.49249,0.0123552
1041.52811,0.0123253
1040.56373,0.0123112
1039.59935,0.0122907
1038.63498,0.0122416
1037.67060,0.0121839
1036.70622,0.0121313
1035.74184,0.0120705
1034.77747,0.0120109
1033.81309,0.0119437
1032.84871,0.0118490
1031.88433,0.0117661
1030.91995,0.0117189
1029.95558,0.0116999
1028.99120,0.0116975
1028.02682,0.0116868
1027.06244,0.0116604
1026.09806,0.0116320
1025.13369,0.0116177
1024.16931,0.0116137
1023.20493,0.0116017
1022.24055,0.0115661
1021.27618,0.0115062
1020.31180,0.0114428
1019.34742,0.0113873
1018.38304,0.0113359
1017.41866,0.0112952
1016.45429,0.0112740
1015.48991,0.0112590
1014.52553,0.0112448
1013.56115,0.0112487
1012.59677,0.0112774
1011.63240,0.0113035
1010.66802,0.0112996
1009.70364,0.0112788
1008.73926,0.0112540
1007.77488,0.0112269
1006.81051,0.0112081
1005.84613,0.0112042
1004.88175,0.0111926
1003.91737,0.0111492
1002.95300,0.0111074
1001.98862,0.0110948
1001.02424,0.0110883
1000.05986,0.0110596
999.09548,0.0110179
998.13111,0.0110056
997.16673,0.0110305
996.20235,0.0110654
995.23797,0.0110975
994.27359,0.0111159
993.30922,0.0111023
992.34484,0.0110674
991.38046,0.0110371
990.41608,0.0110016
989.45171,0.0109236
988.48733,0.0108236
987.52295,0.0107674
986.55857,0.0107407
985.59419,0.0107201
984.62982,0.0107280
983.66544,0.0107526
982.70106,0.0107706
981.73668,0.0107757
980.77230,0.0107827
979.80793,0.0107892
978.84355,0.0107644
977.87917,0.0106879
976.91479,0.0105911
975.95041,0.0105162
974.98604,0.0104308
974.02166,0.0103478
973.05728,0.0102994
972.09290,0.0102470
971.12853,0.0101808
970.16415,0.0101224
969.19977,0.0100856
968.23539,0.0100481
967.27101,0.0099986
966.30664,0.0099442
965.34226,0.0098790
964.37788,0.0098138
963.41350,0.0097530
962.44912,0.0097046
961.48475,0.0096575
960.52037,0.0096036
959.55599,0.0095596
958.59161,0.0095289
957.62724,0.0095050
956.66286,0.0094602
955.69848,0.0094068
954.73410,0.0093540
953.76972,0.0092848
952.80535,0.0092232
951.84097,0.0091802
950.87659,0.0091454
949.91221,0.0090935
948.94783,0.0090230
947.98346,0.0089599
947.01908,0.0089041
946.05470,0.0088545
945.09032,0.0087999
944.12594,0.0087312
943.16157,0.0086619
942.19719,0.0086130
941.23281,0.0085828
940.26843,0.0085610
939.30406,0.0085584
938.33968,0.0085563
937.37530,0.0085440
936.41092,0.0085351
935.44654,0.0085150
934.48217,0.0084851
933.51779,0.0084448
932.55341,0.0083748
931.58903,0.0083042
930.62465,0.0082526
929.66028,0.0082030
928.69590,0.0081801
927.73152,0.0081955
926.76714,0.0082292
925.80276,0.0082714
924.83839,0.0082959
923.87401,0.0082833
922.90963,0.0082513
921.94525,0.0082313
920.98088,0.0082252
920.01650,0.0082239
919.05212,0.0082172
918.08774,0.0081910
917.12336,0.0081561
916.15899,0.0081184
915.19461,0.0080965
914.23023,0.0081015
913.26585,0.0081042
912.30147,0.0080898
911.33710,0.0080587
910.37272,0.0080388
909.40834,0.0080406
908.44396,0.0080406
907.47959,0.0080259
906.51521,0.0079859
905.55083,0.0079419
904.58645,0.0079068
903.62207,0.0078805
902.65770,0.0078770
901.69332,0.0078739
900.72894,0.0078602
899.76456,0.0078435
898.80018,0.0078195
897.83581,0.0078223
896.87143,0.0078565
895.90705,0.0078770
894.94267,0.0078968
893.97829,0.0079204
893.01392,0.0079105
892.04954,0.0078832
891.08516,0.0078676
890.12078,0.0078581
889.15641,0.0078767
888.19203,0.0079314
887.22765,0.0079963
886.26327,0.0081169
885.29889,0.0082729
884.33452,0.0083729
883.37014,0.0084384
882.40576,0.0084703
881.44138,0.0084523
880.47700,0.0084240
879.51263,0.0084032
878.54825,0.0083840
877.58387,0.0083505
876.61949,0.0083409
875.65512,0.0083876
874.69074,0.0084824
873.72636,0.0085978
872.76198,0.0086898
871.79760,0.0087762
870.83323,0.0088493
869.86885,0.0088762
868.90447,0.0088885
867.94009,0.0089121
866.97571,0.0089129
866.01134,0.0088619
865.04696,0.0088086
864.08258,0.0087928
863.11820,0.0088320
862.15382,0.0089162
861.18945,0.0090024
860.22507,0.0091004
859.26069,0.0091946
858.29631,0.0092583
857.33194,0.0093193
856.36756,0.0093744
855.40318,0.0093917
854.43880,0.0093634
853.47442,0.0093074
852.51005,0.0092766
851.54567,0.0093139
850.58129,0.0093739
849.61691,0.0094169
848.65253,0.0094561
847.68816,0.0094972
846.72378,0.0095385
845.75940,0.0095520
844.79502,0.0095308
843.83065,0.0094932
842.86627,0.0094530
841.90189,0.0094324
840.93751,0.0094336
839.97313,0.0094546
839.00876,0.0094858
838.04438,0.0095172
837.08000,0.0095553
836.11562,0.0096093
835.15124,0.0096625
834.18687,0.0096910
833.22249,0.0097128
832.25811,0.0097183
831.29373,0.0097043
830.32935,0.0096945
829.36498,0.0096646
828.40060,0.0096285
827.43622,0.0096218
826.47184,0.0096222
825.50747,0.0096082
824.54309,0.0095949
823.57871,0.0095748
822.61433,0.0095288
821.64995,0.0094791
820.68558,0.0094259
819.72120,0.0093812
818.75682,0.0093758
817.79244,0.0093760
816.82806,0.0093716
815.86369,0.0093968
814.89931,0.0094244
813.93493,0.0094222
812.97055,0.0094179
812.00618,0.0094023
811.04180,0.0093584
810.07742,0.0093238
809.11304,0.0093248
808.14866,0.0093599
807.18429,0.0094154
806.21991,0.0094676
805.25553,0.0094868
804.29115,0.0094915
803.32677,0.0095020
802.36240,0.0094904
801.39802,0.0094667
800.43364,0.0094423
799.46926,0.0094302
798.50488,0.0094608
797.54051,0.0095187
796.57613,0.0095562
795.61175,0.0095606
794.64737,0.0095705
793.68300,0.0095552
792.71862,0.0095063
791.75424,0.0094904
790.78986,0.0094827
789.82548,0.0094621
788.86111,0.0094379
787.89673,0.0094041
786.93235,0.0093861
785.96797,0.0093769
785.00359,0.0093489
784.03922,0.0093316
783.07484,0.0093687
782.11046,0.0094265
781.14608,0.0094983
780.18171,0.0096192
779.21733,0.0097351
778.25295,0.0097933
777.28857,0.0097840
776.32419,0.0097172
775.35982,0.0096394
774.39544,0.0095349
773.43106,0.0093778
772.46668,0.0092360
771.50230,0.0091602
770.53793,0.0091432
769.57355,0.0091880
768.60917,0.0092948
767.64479,0.0094333
766.68041,0.0095593
765.71604,0.0096584
764.75166,0.0097305
763.78728,0.0097491
762.82290,0.0097126
761.85853,0.0096699
760.89415,0.0096340
759.92977,0.0095822
758.96539,0.0095587
758.00101,0.0095895
757.03664,0.0096389
756.07226,0.0096927
755.10788,0.0097257
754.14350,0.0097427
753.17912,0.0097609
752.21475,0.0097821
751.25037,0.0098323
750.28599,0.0098664
749.32161,0.0098214
748.35724,0.0097506
747.39286,0.0097501
746.42848,0.0097962
745.46410,0.0098211
744.49972,0.0098479
743.53535,0.0098553
742.57097,0.0098226
741.60659,0.0097996
740.64221,0.0098057
739.67783,0.0098256
738.71346,0.0098126
737.74908,0.0097790
736.78470,0.0097851
735.82032,0.0098483
734.85594,0.0099548
733.89157,0.0100566
732.92719,0.0101262
731.96281,0.0101549
730.99843,0.0101511
730.03406,0.0101377
729.06968,0.0101180
728.10530,0.0101180
727.14092,0.0101404
726.17654,0.0101573
725.21217,0.0101577
724.24779,0.0101616
723.28341,0.0102073
722.31903,0.0102775
721.35465,0.0103300
720.39028,0.0103680
719.42590,0.0104023
718.46152,0.0104169
717.49714,0.0104284
716.53276,0.0104702
715.56839,0.0105164
714.60401,0.0105375
713.63963,0.0105344
712.67525,0.0105486
711.71088,0.0106171
710.74650,0.0106913
709.78212,0.0107209
708.81774,0.0107386
707.85336,0.0107866
706.88899,0.0108277
705.92461,0.0108491
704.96023,0.0108967
703.99585,0.0109554
703.03147,0.0109926
702.06710,0.0110229
701.10272,0.0110810
700.13834,0.0111520
699.17396,0.0111934
698.20959,0.0112093
697.24521,0.0112283
696.28083,0.0112570
695.31645,0.0112626
694.35207,0.0112782
693.38770,0.0113112
692.42332,0.0112808
691.45894,0.0112232
690.49456,0.0112093
689.53018,0.0112314
688.56581,0.0112466
687.60143,0.0112469
686.63705,0.0112746
685.67267,0.0113295
684.70829,0.0113848
683.74392,0.0114396
682.77954,0.0115296
681.81516,0.0116036
680.85078,0.0116130
679.88641,0.0116434
678.92203,0.0117014
677.95765,0.0117322
676.99327,0.0117146
676.02889,0.0116814
675.06452,0.0116238
674.10014,0.0115067
673.13576,0.0115915
672.17138,0.0119265
671.20700,0.0122412
670.24263,0.0124409
669.27825,0.0125506
668.31387,0.0125961
667.34949,0.0125725
666.38512,0.0124610
665.42074,0.0122893
664.45636,0.0120849
663.49198,0.0118343
662.52760,0.0116395
661.56323,0.0117227
660.59885,0.0119125
659.63447,0.0119584
658.67009,0.0119585
657.70571,0.0119766
656.74134,0.0119507
655.77696,0.0118878
654.81258,0.0118193
653.84820,0.0117676
652.88382,0.0117359
651.91945,0.0117206
650.95507,0.0117303
649.99069,0.0117444
649.02631,0.0117541
648.06194,0.0117641
647.09756,0.0118002
646.13318,0.0118691
645.16880,0.0119240
644.20442,0.0119725
643.24005,0.0120206
642.27567,0.0120686
641.31129,0.0121455
640.34691,0.0122481
639.38253,0.0123700
638.41816,0.0124742
637.45378,0.0125352
636.48940,0.0125727
635.52502,0.0125903
634.56065,0.0125834
633.59627,0.0125582
632.63189,0.0125393
631.66751,0.0125644
630.70313,0.0126047
629.73876,0.0124763
628.77438,0.0122809
627.81000,0.0123220
626.84562,0.0120813
625.88124,0.0113012
624.91687,0.0104503
623.95249,0.0095542
622.98811,0.0087611
622.02373,0.0085105
621.05935,0.0086815
620.09498,0.0091992
619.13060,0.0099479
618.16622,0.0107530
617.20184,0.0116087
616.23747,0.0119936
615.27309,0.0112817
614.30871,0.0098128
613.34433,0.0087318
612.37995,0.0082148
611.41558,0.0084638
610.45120,0.0094361
609.48682,0.0100777
608.52244,0.0107269
607.55806,0.0114212
606.59369,0.0118040
605.62931,0.0120502
604.66493,0.0117952
603.70055,0.0112798
602.73618,0.0108635
601.77180,0.0109067
600.80742,0.0114744
599.84304,0.0123712
598.87866,0.0130769
597.91429,0.0132096
596.94991,0.0133139
595.98553,0.0131382
595.02115,0.0126653
594.05677,0.0124536
593.09240,0.0122889
592.12802,0.0121475
591.16364,0.0120252
590.19926,0.0118595
589.23488,0.0118700
588.27051,0.0120601
587.30613,0.0123000
586.34175,0.0125721
585.37737,0.0128028
584.41300,0.0128639
583.44862,0.0128628
582.48424,0.0129564
581.51986,0.0130862
580.55548,0.0131900
579.59111,0.0132614
578.62673,0.0133009
577.66235,0.0133211
576.69797,0.0133469
575.73359,0.0133518
574.76922,0.0133537
573.80484,0.0133769
572.84046,0.0133298
571.87608,0.0133378
570.91171,0.0134705
569.94733,0.0135797
568.98295,0.0136026
568.01857,0.0134702
567.05419,0.0133129
566.08982,0.0132504
565.12544,0.0131378
564.16106,0.0129833
563.19668,0.0129521
562.23230,0.0130054
561.26793,0.0129815
560.30355,0.0129576
559.33917,0.0129492
558.37479,0.0129065
557.41041,0.0128806
556.44604,0.0128105
555.48166,0.0128227
554.51728,0.0129084
553.55290,0.0128073
552.58853,0.0126597
551.62415,0.0127136
550.65977,0.0128074
549.69539,0.0127508
548.73101,0.0126929
547.76664,0.0126843
546.80226,0.0127224
545.83788,0.0128820
544.87350,0.0130371
543.90912,0.0130874
542.94475,0.0129934
541.98037,0.0128410
541.01599,0.0128090
540.05161,0.0129146
539.08724,0.0130427
538.12286,0.0131059
537.15848,0.0131491
536.19410,0.0131695
535.22972,0.0132144
534.26535,0.0132453
533.30097,0.0131151
532.33659,0.0128529
531.37221,0.0125822
530.40783,0.0124854
529.44346,0.0124884
528.47908,0.0125399
527.51470,0.0126930
526.55032,0.0127724
525.58594,0.0127906
524.62157,0.0128617
523.65719,0.0130075
522.69281,0.0130958
521.72843,0.0130873
520.76406,0.0131161
519.79968,0.0131524
518.83530,0.0131802
517.87092,0.0131321
516.90654,0.0130928
515.94217,0.0131138
514.97779,0.0130343
514.01341,0.0129612
513.04903,0.0129488
512.08465,0.0129412
511.12028,0.0129084
510.15590,0.0128931
509.19152,0.0129562
508.22714,0.0130438
507.26276,0.0131418
506.29839,0.0131531
505.33401,0.0130862
504.36963,0.0129938
503.40525,0.0128864
502.44088,0.0128789
501.47650,0.0129267
500.51212,0.0129554
499.54774,0.0129665
498.58336,0.0129552
497.61899,0.0128949
496.65461,0.0128118
495.69023,0.0127571
494.72585,0.0126580
493.76147,0.0125269
492.79710,0.0124419
491.83272,0.0124193
490.86834,0.0124210
489.90396,0.0124356
488.93959,0.0124767
487.97521,0.0124795
487.01083,0.0124413
486.04645,0.0123576
485.08207,0.0122689
484.11770,0.0122744
483.15332,0.0123463
482.18894,0.0124542
481.22456,0.0125370
480.26018,0.0125436
479.29581,0.0125398
478.33143,0.0125855
477.36705,0.0126634
476.40267,0.0126955
475.43829,0.0126893
474.47392,0.0126862
473.50954,0.0126348
472.54516,0.0125611
471.58078,0.0125037
470.61641,0.0123729
469.65203,0.0121918
468.68765,0.0120904
467.72327,0.0120749
466.75889,0.0121130
465.79452,0.0122232
464.83014,0.0123524
463.86576,0.0124478
462.90138,0.0125698
461.93700,0.0126602
460.97263,0.0126431
460.00825,0.0126081
459.04387,0.0125647
458.07949,0.0125101
457.11512,0.0124796
456.15074,0.0124354
455.18636,0.0124174
454.22198,0.0124472
453.25760,0.0124392
452.29323,0.0123739
451.32885,0.0122913
450.36447,0.0122066
449.40009,0.0121607
448.43571,0.0122476
447.47134,0.0123942
446.50696,0.0124616
445.54258,0.0125231
444.57820,0.0125682
443.61382,0.0125465
442.64945,0.0125212
441.68507,0.0124576
440.72069,0.0123309
439.75631,0.0121578
438.79194,0.0120274
437.82756,0.0120112
436.86318,0.0120270
435.89880,0.0120733
434.93442,0.0121732
433.97005,0.0122595
433.00567,0.0122681
432.04129,0.0122599
431.07691,0.0122835
430.11253,0.0122471
429.14816,0.0121718
428.18378,0.0120886
427.21940,0.0119691
426.25502,0.0118323
425.29065,0.0117091
424.32627,0.0116604
423.36189,0.0116467
422.39751,0.0116124
421.43313,0.0116034
420.46876,0.0116356
419.50438,0.0116418
418.54000,0.0116028
417.57562,0.0115829
416.61124,0.0115155
415.64687,0.0113544
414.68249,0.0112571
413.71811,0.0112734
412.75373,0.0112885
411.78935,0.0113120
410.82498,0.0113974
409.86060,0.0114915
408.89622,0.0115355
407.93184,0.0115011
406.96747,0.0114696
406.00309,0.0114548
405.03871,0.0113352
404.07433,0.0113352
403.10995,0.0113352
402.14558,0.0113352
401.18120,0.0113352
400.21682,0.0113352
399.25244,0.0113352
