3998.31069,0.0003429
3997.34631,0.0001879
3996.38194,0.0000777
3995.41756,0.0005183
3994.45318,0.0010701
3993.48880,0.0005663
3992.52442,0.0002197
3991.56005,0.0002283
3990.59567,0.0003163
3989.63129,0.0007018
3988.66691,0.0008323
3987.70253,0.0009537
3986.73816,0.0009301
3985.77378,0.0006253
3984.80940,0.0004660
3983.84502,0.0007728
3982.88065,0.0010605
3981.91627,0.0006813
3980.95189,0.0005582
3979.98751,0.0007718
3979.02313,0.0009407
3978.05876,0.0011802
3977.09438,0.0010389
3976.13000,0.0006134
3975.16562,0.0005318
3974.20124,0.0010485
3973.23687,0.0012957
3972.27249,0.0009425
3971.30811,0.0006185
3970.34373,0.0005312
3969.37935,0.0008576
3968.41498,0.0011401
3967.45060,0.0008892
3966.48622,0.0005292
3965.52184,0.0005566
3964.55747,0.0008097
3963.59309,0.0009912
3962.62871,0.0011334
3961.66433,0.0009818
3960.69995,0.0005540
3959.73558,0.0003742
3958.77120,0.0005678
3957.80682,0.0008610
3956.84244,0.0010456
3955.87806,0.0008551
3954.91369,0.0007406
3953.94931,0.0012973
3952.98493,0.0015390
3952.02055,0.0009422
3951.05618,0.0004095
3950.09180,0.0005101
3949.12742,0.0007314
3948.16304,0.0006421
3947.19866,0.0006718
3946.23429,0.0007358
3945.26991,0.0007178
3944.30553,0.0007306
3943.34115,0.0007271
3942.37677,0.0007826
3941.41240,0.0009778
3940.44802,0.0013773
3939.48364,0.0013915
3938.51926,0.0009879
3937.55488,0.0007112
3936.59051,0.0005996
3935.62613,0.0009626
3934.66175,0.0013607
3933.69737,0.0010982
3932.73300,0.0007516
3931.76862,0.0005631
3930.80424,0.0004828
3929.83986,0.0006636
3928.87548,0.0005196
3927.91111,0.0005315
3926.94673,0.0009280
3925.98235,0.0008769
3925.01797,0.0010571
3924.05359,0.0010850
3923.08922,0.0006622
3922.12484,0.0008010
3921.16046,0.0009788
3920.19608,0.0009966
3919.23171,0.0011052
3918.26733,0.0010796
3917.30295,0.0009585
3916.33857,0.0009607
3915.37419,0.0009719
3914.40982,0.0009959
3913.44544,0.0012364
3912.48106,0.0010603
3911.51668,0.0008040
3910.55230,0.0009490
3909.58793,0.0009031
3908.62355,0.0007446
3907.65917,0.0008288
3906.69479,0.0012552
3905.73041,0.0012904
3904.76604,0.0007746
3903.80166,0.0006625
3902.83728,0.0007742
3901.87290,0.0006832
3900.90853,0.0007966
3899.94415,0.0009888
3898.97977,0.0008087
3898.01539,0.0006308
3897.05101,0.0005599
3896.08664,0.0006389
3895.12226,0.0009215
3894.15788,0.0010428
3893.19350,0.0009567
3892.22912,0.0007931
3891.26475,0.0009964
3890.30037,0.0010540
3889.33599,0.0007921
3888.37161,0.0008440
3887.40724,0.0007628
3886.44286,0.0006890
3885.47848,0.0006525
3884.51410,0.0005526
3883.54972,0.0005997
3882.58535,0.0004518
3881.62097,0.0003139
3880.65659,0.0004379
3879.69221,0.0008951
3878.72783,0.0011396
3877.76346,0.0008229
3876.79908,0.0006712
3875.83470,0.0006059
3874.87032,0.0005014
3873.90594,0.0008827
3872.94157,0.0011341
3871.97719,0.0008485
3871.01281,0.0007607
3870.04843,0.0008013
3869.08406,0.0009150
3868.11968,0.0011105
3867.15530,0.0010905
3866.19092,0.0009924
3865.22654,0.0006680
3864.26217,0.0006874
3863.29779,0.0009958
3862.33341,0.0011240
3861.36903,0.0012799
3860.40465,0.0009324
3859.44028,0.0004444
3858.47590,0.0004949
3857.51152,0.0008980
3856.54714,0.0010964
3855.58276,0.0010164
3854.61839,0.0011351
3853.65401,0.0010812
3852.68963,0.0008420
3851.72525,0.0008507
3850.76088,0.0013035
3849.79650,0.0016419
3848.83212,0.0014239
3847.86774,0.0013438
3846.90336,0.0014142
3845.93899,0.0012977
3844.97461,0.0011733
3844.01023,0.0011315
3843.04585,0.0008890
3842.08147,0.0008950
3841.11710,0.0012075
3840.15272,0.0011823
3839.18834,0.0012413
3838.22396,0.0010461
3837.25959,0.0009092
3836.29521,0.0010708
3835.33083,0.0008796
3834.36645,0.0009188
3833.40207,0.0008699
3832.43770,0.0007116
3831.47332,0.0008607
3830.50894,0.0011341
3829.54456,0.0011891
3828.58018,0.0007563
3827.61581,0.0006095
3826.65143,0.0008306
3825.68705,0.0010462
3824.72267,0.0010113
3823.75829,0.0008770
3822.79392,0.0007793
3821.82954,0.0004306
3820.86516,0.0005817
3819.90078,0.0010336
3818.93641,0.0011737
3817.97203,0.0010199
3817.00765,0.0006755
3816.04327,0.0004316
3815.07889,0.0006121
3814.11452,0.0011945
3813.15014,0.0012406
3812.18576,0.0011874
3811.22138,0.0012926
3810.25700,0.0008827
3809.29263,0.0007387
3808.32825,0.0008611
3807.36387,0.0008303
3806.39949,0.0007945
3805.43512,0.0011164
3804.47074,0.0014374
3803.50636,0.0011733
3802.54198,0.0011244
3801.57760,0.0013853
3800.61323,0.0013580
3799.64885,0.0011730
3798.68447,0.0012651
3797.72009,0.0014407
3796.75571,0.0014762
3795.79134,0.0015952
3794.82696,0.0013995
3793.86258,0.0010818
3792.89820,0.0009509
3791.93382,0.0011821
3790.96945,0.0013884
3790.00507,0.0011392
3789.04069,0.0013135
3788.07631,0.0013512
3787.11194,0.0010511
3786.14756,0.0010674
3785.18318,0.0009325
3784.21880,0.0009049
3783.25442,0.0009979
3782.29005,0.0008968
3781.32567,0.0007983
3780.36129,0.0009337
3779.39691,0.0012126
3778.43253,0.0011663
3777.46816,0.0009973
3776.50378,0.0009786
3775.53940,0.0010709
3774.57502,0.0013042
3773.61065,0.0015057
3772.64627,0.0013113
3771.68189,0.0008164
3770.71751,0.0006566
3769.75313,0.0007325
3768.78876,0.0005999
3767.82438,0.0006427
3766.86000,0.0010742
3765.89562,0.0012836
3764.93124,0.0010562
3763.96687,0.0009824
3763.00249,0.0011530
3762.03811,0.0012549
3761.07373,0.0013686
3760.10935,0.0013681
3759.14498,0.0011620
3758.18060,0.0011729
3757.21622,0.0013925
3756.25184,0.0016509
3755.28747,0.0017725
3754.32309,0.0015208
3753.35871,0.0011369
3752.39433,0.0009022
3751.42995,0.0008443
3750.46558,0.0006466
3749.50120,0.0006791
3748.53682,0.0010531
3747.57244,0.0009541
3746.60806,0.0007935
3745.64369,0.0008485
3744.67931,0.0008296
3743.71493,0.0006963
3742.75055,0.0006335
3741.78618,0.0009026
3740.82180,0.0009556
3739.85742,0.0008821
3738.89304,0.0010215
3737.92866,0.0012553
3736.96429,0.0015746
3735.99991,0.0013223
3735.03553,0.0007783
3734.07115,0.0009569
3733.10677,0.0014510
3732.14240,0.0012341
3731.17802,0.0008355
3730.21364,0.0008876
3729.24926,0.0008242
3728.28488,0.0007323
3727.32051,0.0009713
3726.35613,0.0015489
3725.39175,0.0015527
3724.42737,0.0011212
3723.46300,0.0013413
3722.49862,0.0013769
3721.53424,0.0014568
3720.56986,0.0016578
3719.60548,0.0011803
3718.64111,0.0010926
3717.67673,0.0013747
3716.71235,0.0011955
3715.74797,0.0009684
3714.78359,0.0011793
3713.81922,0.0014180
3712.85484,0.0012321
3711.89046,0.0008464
3710.92608,0.0007493
3709.96171,0.0011651
3708.99733,0.0014747
3708.03295,0.0015125
3707.06857,0.0015888
3706.10419,0.0018278
3705.13982,0.0019905
3704.17544,0.0015103
3703.21106,0.0012431
3702.24668,0.0013428
3701.28230,0.0010314
3700.31793,0.0007504
3699.35355,0.0006847
3698.38917,0.0007720
3697.42479,0.0010572
3696.46041,0.0011666
3695.49604,0.0011806
3694.53166,0.0016211
3693.56728,0.0017295
3692.60290,0.0010169
3691.63853,0.0006362
3690.67415,0.0008878
3689.70977,0.0012081
3688.74539,0.0013319
3687.78101,0.0010378
3686.81664,0.0006926
3685.85226,0.0008969
3684.88788,0.0012223
3683.92350,0.0011672
3682.95912,0.0011492
3681.99475,0.0009595
3681.03037,0.0005565
3680.06599,0.0005588
3679.10161,0.0008535
3678.13724,0.0008851
3677.17286,0.0010716
3676.20848,0.0014770
3675.24410,0.0011576
3674.27972,0.0009196
3673.31535,0.0011986
3672.35097,0.0015472
3671.38659,0.0016194
3670.42221,0.0011105
3669.45783,0.0009642
3668.49346,0.0010618
3667.52908,0.0010745
3666.56470,0.0009348
3665.60032,0.0008408
3664.63594,0.0012285
3663.67157,0.0011336
3662.70719,0.0009716
3661.74281,0.0010816
3660.77843,0.0009847
3659.81406,0.0010295
3658.84968,0.0011104
3657.88530,0.0012100
3656.92092,0.0011239
3655.95654,0.0011606
3654.99217,0.0012366
3654.02779,0.0011626
3653.06341,0.0014396
3652.09903,0.0014448
3651.13465,0.0014436
3650.17028,0.0015061
3649.20590,0.0010739
3648.24152,0.0009225
3647.27714,0.0010822
3646.31276,0.0013187
3645.34839,0.0016336
3644.38401,0.0017439
3643.41963,0.0016536
3642.45525,0.0013409
3641.49088,0.0009129
3640.52650,0.0009944
3639.56212,0.0013888
3638.59774,0.0012157
3637.63336,0.0008529
3636.66899,0.0009826
3635.70461,0.0011860
3634.74023,0.0009776
3633.77585,0.0007311
3632.81147,0.0009267
3631.84710,0.0014125
3630.88272,0.0017879
3629.91834,0.0016904
3628.95396,0.0010341
3627.98959,0.0006385
3627.02521,0.0011444
3626.06083,0.0016410
3625.09645,0.0014896
3624.13207,0.0011639
3623.16770,0.0011178
3622.20332,0.0012858
3621.23894,0.0011442
3620.27456,0.0010962
3619.31018,0.0012986
3618.34581,0.0011077
3617.38143,0.0008853
3616.41705,0.0009676
3615.45267,0.0009149
3614.48829,0.0007922
3613.52392,0.0008220
3612.55954,0.0006990
3611.59516,0.0009728
3610.63078,0.0012775
3609.66641,0.0011007
3608.70203,0.0012642
3607.73765,0.0011876
3606.77327,0.0010045
3605.80889,0.0010717
3604.84452,0.0014349
3603.88014,0.0020534
3602.91576,0.0015177
3601.95138,0.0007145
3600.98700,0.0006989
3600.02263,0.0010453
3599.05825,0.0012352
3598.09387,0.0010721
3597.12949,0.0013460
3596.16512,0.0014465
3595.20074,0.0013404
3594.23636,0.0012598
3593.27198,0.0011403
3592.30760,0.0014691
3591.34323,0.0013597
3590.37885,0.0012499
3589.41447,0.0013998
3588.45009,0.0012532
3587.48571,0.0013686
3586.52134,0.0014176
3585.55696,0.0013813
3584.59258,0.0014475
3583.62820,0.0013854
3582.66382,0.0014206
3581.69945,0.0015489
3580.73507,0.0014562
3579.77069,0.0012865
3578.80631,0.0011411
3577.84194,0.0008290
3576.87756,0.0007319
3575.91318,0.0009684
3574.94880,0.0013864
3573.98442,0.0016223
3573.02005,0.0015866
3572.05567,0.0017232
3571.09129,0.0016035
3570.12691,0.0013478
3569.16253,0.0012768
3568.19816,0.0010788
3567.23378,0.0009171
3566.26940,0.0010839
3565.30502,0.0016776
3564.34065,0.0020234
3563.37627,0.0016852
3562.41189,0.0012966
3561.44751,0.0013719
3560.48313,0.0015234
3559.51876,0.0012148
3558.55438,0.0009224
3557.59000,0.0012544
3556.62562,0.0017543
3555.66124,0.0016912
3554.69687,0.0016233
3553.73249,0.0018068
3552.76811,0.0016660
3551.80373,0.0015885
3550.83935,0.0016850
3549.87498,0.0016664
3548.91060,0.0014669
3547.94622,0.0014191
3546.98184,0.0017865
3546.01747,0.0020171
3545.05309,0.0020768
3544.08871,0.0020660
3543.12433,0.0020871
3542.15995,0.0019923
3541.19558,0.0016043
3540.23120,0.0017133
3539.26682,0.0020021
3538.30244,0.0019617
3537.33806,0.0019579
3536.37369,0.0019056
3535.40931,0.0019379
3534.44493,0.0020889
3533.48055,0.0020989
3532.51618,0.0021027
3531.55180,0.0022740
3530.58742,0.0024158
3529.62304,0.0023638
3528.65866,0.0022562
3527.69429,0.0022539
3526.72991,0.0023062
3525.76553,0.0023659
3524.80115,0.0026922
3523.83677,0.0028804
3522.87240,0.0026475
3521.90802,0.0025078
3520.94364,0.0023691
3519.97926,0.0023665
3519.01488,0.0026185
3518.05051,0.0027820
3517.08613,0.0028105
3516.12175,0.0025758
3515.15737,0.0025102
3514.19300,0.0028043
3513.22862,0.0030092
3512.26424,0.0029784
3511.29986,0.0025904
3510.33548,0.0022381
3509.37111,0.0020659
3508.40673,0.0019273
3507.44235,0.0020733
3506.47797,0.0021398
3505.51359,0.0019366
3504.54922,0.0018621
3503.58484,0.0021122
3502.62046,0.0023103
3501.65608,0.0020950
3500.69171,0.0020223
3499.72733,0.0023176
3498.76295,0.0025032
3497.79857,0.0021996
3496.83419,0.0016714
3495.86982,0.0015883
3494.90544,0.0018427
3493.94106,0.0019794
3492.97668,0.0018206
3492.01230,0.0018491
3491.04793,0.0021352
3490.08355,0.0019752
3489.11917,0.0019418
3488.15479,0.0022630
3487.19041,0.0023040
3486.22604,0.0022149
3485.26166,0.0021046
3484.29728,0.0021346
3483.33290,0.0022946
3482.36853,0.0023211
3481.40415,0.0021686
3480.43977,0.0018869
3479.47539,0.0019266
3478.51101,0.0020948
3477.54664,0.0019203
3476.58226,0.0018083
3475.61788,0.0019073
3474.65350,0.0020866
3473.68912,0.0021777
3472.72475,0.0019796
3471.76037,0.0017799
3470.79599,0.0017788
3469.83161,0.0019686
3468.86724,0.0022308
3467.90286,0.0023204
3466.93848,0.0022994
3465.97410,0.0022665
3465.00972,0.0021491
3464.04535,0.0019621
3463.08097,0.0017794
3462.11659,0.0017110
3461.15221,0.0018939
3460.18783,0.0021322
3459.22346,0.0021907
3458.25908,0.0019591
3457.29470,0.0017259
3456.33032,0.0019552
3455.36594,0.0019282
3454.40157,0.0017647
3453.43719,0.0020405
3452.47281,0.0021760
3451.50843,0.0024476
3450.54406,0.0023973
3449.57968,0.0018680
3448.61530,0.0017946
3447.65092,0.0019320
3446.68654,0.0023081
3445.72217,0.0024393
3444.75779,0.0021375
3443.79341,0.0020542
3442.82903,0.0019227
3441.86465,0.0019818
3440.90028,0.0022775
3439.93590,0.0023630
3438.97152,0.0023404
3438.00714,0.0021955
3437.04276,0.0019251
3436.07839,0.0018637
3435.11401,0.0020006
3434.14963,0.0020807
3433.18525,0.0020257
3432.22088,0.0017522
3431.25650,0.0017228
3430.29212,0.0018120
3429.32774,0.0017191
3428.36336,0.0018886
3427.39899,0.0019986
3426.43461,0.0021229
3425.47023,0.0023665
3424.50585,0.0021833
3423.54147,0.0019051
3422.57710,0.0021079
3421.61272,0.0024306
3420.64834,0.0024185
3419.68396,0.0025427
3418.71959,0.0026243
3417.75521,0.0022936
3416.79083,0.0020335
3415.82645,0.0020307
3414.86207,0.0021350
3413.89770,0.0022110
3412.93332,0.0024684
3411.96894,0.0025960
3411.00456,0.0023417
3410.04018,0.0021693
3409.07581,0.0020666
3408.11143,0.0021571
3407.14705,0.0025292
3406.18267,0.0027861
3405.21829,0.0027725
3404.25392,0.0027612
3403.28954,0.0028030
3402.32516,0.0026977
3401.36078,0.0024493
3400.39641,0.0022950
3399.43203,0.0024293
3398.46765,0.0023585
3397.50327,0.0022883
3396.53889,0.0024925
3395.57452,0.0025715
3394.61014,0.0028561
3393.64576,0.0030224
3392.68138,0.0029202
3391.71700,0.0029216
3390.75263,0.0029327
3389.78825,0.0030306
3388.82387,0.0030721
3387.85949,0.0031633
3386.89512,0.0032765
3385.93074,0.0032349
3384.96636,0.0030798
3384.00198,0.0029766
3383.03760,0.0030947
3382.07323,0.0029684
3381.10885,0.0027669
3380.14447,0.0027436
3379.18009,0.0027847
3378.21571,0.0029187
3377.25134,0.0029362
3376.28696,0.0030946
3375.32258,0.0030807
3374.35820,0.0028710
3373.39382,0.0030040
3372.42945,0.0028737
3371.46507,0.0027294
3370.50069,0.0030324
3369.53631,0.0029479
3368.57194,0.0025115
3367.60756,0.0025296
3366.64318,0.0027421
3365.67880,0.0027633
3364.71442,0.0028900
3363.75005,0.0028417
3362.78567,0.0026529
3361.82129,0.0027339
3360.85691,0.0026483
3359.89253,0.0025131
3358.92816,0.0026119
3357.96378,0.0026984
3356.99940,0.0028731
3356.03502,0.0030062
3355.07065,0.0028770
3354.10627,0.0025299
3353.14189,0.0022675
3352.17751,0.0023979
3351.21313,0.0023392
3350.24876,0.0021347
3349.28438,0.0023549
3348.32000,0.0024112
3347.35562,0.0024469
3346.39124,0.0026930
3345.42687,0.0025882
3344.46249,0.0024486
3343.49811,0.0022955
3342.53373,0.0021958
3341.56935,0.0023577
3340.60498,0.0023824
3339.64060,0.0024003
3338.67622,0.0023449
3337.71184,0.0023080
3336.74747,0.0024554
3335.78309,0.0024643
3334.81871,0.0024619
3333.85433,0.0024141
3332.88995,0.0022521
3331.92558,0.0021647
3330.96120,0.0022785
3329.99682,0.0021899
3329.03244,0.0018479
3328.06806,0.0019237
3327.10369,0.0020284
3326.13931,0.0020267
3325.17493,0.0022043
3324.21055,0.0023762
3323.24618,0.0024070
3322.28180,0.0021956
3321.31742,0.0022508
3320.35304,0.0024475
3319.38866,0.0023844
3318.42429,0.0022972
3317.45991,0.0022474
3316.49553,0.0022588
3315.53115,0.0021571
3314.56677,0.0021831
3313.60240,0.0025145
3312.63802,0.0027599
3311.67364,0.0026259
3310.70926,0.0021780
3309.74488,0.0020061
3308.78051,0.0021820
3307.81613,0.0022721
3306.85175,0.0021326
3305.88737,0.0019751
3304.92300,0.0019196
3303.95862,0.0019215
3302.99424,0.0020611
3302.02986,0.0020756
3301.06548,0.0019578
3300.10111,0.0020839
3299.13673,0.0023851
3298.17235,0.0024221
3297.20797,0.0023217
3296.24359,0.0024096
3295.27922,0.0022103
3294.31484,0.0019158
3293.35046,0.0021100
3292.38608,0.0025246
3291.42171,0.0027016
3290.45733,0.0024555
3289.49295,0.0022434
3288.52857,0.0024120
3287.56419,0.0025078
3286.59982,0.0022014
3285.63544,0.0019217
3284.67106,0.0019323
3283.70668,0.0019554
3282.74230,0.0019285
3281.77793,0.0019211
3280.81355,0.0019823
3279.84917,0.0020760
3278.88479,0.0020964
3277.92041,0.0021535
3276.95604,0.0022288
3275.99166,0.0020570
3275.02728,0.0020493
3274.06290,0.0022845
3273.09853,0.0020563
3272.13415,0.0018672
3271.16977,0.0019719
3270.20539,0.0020404
3269.24101,0.0021250
3268.27664,0.0019458
3267.31226,0.0018337
3266.34788,0.0017488
3265.38350,0.0014960
3264.41912,0.0015506
3263.45475,0.0017329
3262.49037,0.0017701
3261.52599,0.0016983
3260.56161,0.0017674
3259.59724,0.0018507
3258.63286,0.0017185
3257.66848,0.0017283
3256.70410,0.0018602
3255.73972,0.0018191
3254.77535,0.0017191
3253.81097,0.0018168
3252.84659,0.0018139
3251.88221,0.0016998
3250.91783,0.0018457
3249.95346,0.0019567
3248.98908,0.0019488
3248.02470,0.0020149
3247.06032,0.0021005
3246.09594,0.0021096
3245.13157,0.0019604
3244.16719,0.0016227
3243.20281,0.0014540
3242.23843,0.0015707
3241.27406,0.0015634
3240.30968,0.0016967
3239.34530,0.0018688
3238.38092,0.0017916
3237.41654,0.0018924
3236.45217,0.0019885
3235.48779,0.0019481
3234.52341,0.0019395
3233.55903,0.0017411
3232.59465,0.0015040
3231.63028,0.0017054
3230.66590,0.0019429
3229.70152,0.0018595
3228.73714,0.0018941
3227.77276,0.0018886
3226.80839,0.0018516
3225.84401,0.0019575
3224.87963,0.0019290
3223.91525,0.0018814
3222.95088,0.0019323
3221.98650,0.0020083
3221.02212,0.0019635
3220.05774,0.0018436
3219.09336,0.0018569
3218.12899,0.0020171
3217.16461,0.0020459
3216.20023,0.0018981
3215.23585,0.0019823
3214.27147,0.0019907
3213.30710,0.0018458
3212.34272,0.0017635
3211.37834,0.0015534
3210.41396,0.0016354
3209.44959,0.0018721
3208.48521,0.0017489
3207.52083,0.0015687
3206.55645,0.0015744
3205.59207,0.0015544
3204.62770,0.0014371
3203.66332,0.0014863
3202.69894,0.0016927
3201.73456,0.0019067
3200.77018,0.0020221
3199.80581,0.0019889
3198.84143,0.0018655
3197.87705,0.0017705
3196.91267,0.0017826
3195.94829,0.0016953
3194.98392,0.0017510
3194.01954,0.0020415
3193.05516,0.0020954
3192.09078,0.0019159
3191.12641,0.0017791
3190.16203,0.0019213
3189.19765,0.0020659
3188.23327,0.0019695
3187.26889,0.0018673
3186.30452,0.0016843
3185.34014,0.0015862
3184.37576,0.0016861
3183.41138,0.0017285
3182.44700,0.0017932
3181.48263,0.0018324
3180.51825,0.0017763
3179.55387,0.0018387
3178.58949,0.0018971
3177.62512,0.0018066
3176.66074,0.0018130
3175.69636,0.0019138
3174.73198,0.0019436
3173.76760,0.0020073
3172.80323,0.0019605
3171.83885,0.0017444
3170.87447,0.0018535
3169.91009,0.0020068
3168.94571,0.0018264
3167.98134,0.0020044
3167.01696,0.0022718
3166.05258,0.0019897
3165.08820,0.0016620
3164.12382,0.0015083
3163.15945,0.0015494
3162.19507,0.0018744
3161.23069,0.0021115
3160.26631,0.0020469
3159.30194,0.0019266
3158.33756,0.0018149
3157.37318,0.0017183
3156.40880,0.0018923
3155.44442,0.0019025
3154.48005,0.0016422
3153.51567,0.0016592
3152.55129,0.0017478
3151.58691,0.0018982
3150.62253,0.0018761
3149.65816,0.0016655
3148.69378,0.0019027
3147.72940,0.0019403
3146.76502,0.0017611
3145.80065,0.0019065
3144.83627,0.0019506
3143.87189,0.0018874
3142.90751,0.0018244
3141.94313,0.0020778
3140.97876,0.0024139
3140.01438,0.0021879
3139.05000,0.0017657
3138.08562,0.0014685
3137.12124,0.0016487
3136.15687,0.0018655
3135.19249,0.0014915
3134.22811,0.0014246
3133.26373,0.0018115
3132.29935,0.0019278
3131.33498,0.0018349
3130.37060,0.0020324
3129.40622,0.0022675
3128.44184,0.0021041
3127.47747,0.0019554
3126.51309,0.0018853
3125.54871,0.0019247
3124.58433,0.0019984
3123.61995,0.0017781
3122.65558,0.0017022
3121.69120,0.0018350
3120.72682,0.0018500
3119.76244,0.0018045
3118.79806,0.0018168
3117.83369,0.0017600
3116.86931,0.0016681
3115.90493,0.0018192
3114.94055,0.0019355
3113.97618,0.0019435
3113.01180,0.0020373
3112.04742,0.0021613
3111.08304,0.0021679
3110.11866,0.0020961
3109.15429,0.0021626
3108.18991,0.0019422
3107.22553,0.0017460
3106.26115,0.0019671
3105.29677,0.0019611
3104.33240,0.0019141
3103.36802,0.0019567
3102.40364,0.0019550
3101.43926,0.0019758
3100.47488,0.0019746
3099.51051,0.0020714
3098.54613,0.0020752
3097.58175,0.0021055
3096.61737,0.0021967
3095.65300,0.0021053
3094.68862,0.0019845
3093.72424,0.0019484
3092.75986,0.0019887
3091.79548,0.0018994
3090.83111,0.0018054
3089.86673,0.0018442
3088.90235,0.0019805
3087.93797,0.0021839
3086.97359,0.0021804
3086.00922,0.0021610
3085.04484,0.0021076
3084.08046,0.0019846
3083.11608,0.0019925
3082.15171,0.0020301
3081.18733,0.0020964
3080.22295,0.0020876
3079.25857,0.0022884
3078.29419,0.0023798
3077.32982,0.0020566
3076.36544,0.0021723
3075.40106,0.0023962
3074.43668,0.0023609
3073.47230,0.0023531
3072.50793,0.0022959
3071.54355,0.0023018
3070.57917,0.0022974
3069.61479,0.0024136
3068.65041,0.0025313
3067.68604,0.0024468
3066.72166,0.0023735
3065.75728,0.0022319
3064.79290,0.0022516
3063.82853,0.0024131
3062.86415,0.0024720
3061.89977,0.0024577
3060.93539,0.0023065
3059.97101,0.0022289
3059.00664,0.0022172
3058.04226,0.0022887
3057.07788,0.0025120
3056.11350,0.0026302
3055.14912,0.0026005
3054.18475,0.0025519
3053.22037,0.0026725
3052.25599,0.0027295
3051.29161,0.0026457
3050.32724,0.0026762
3049.36286,0.0027686
3048.39848,0.0028870
3047.43410,0.0028019
3046.46972,0.0026886
3045.50535,0.0027493
3044.54097,0.0029522
3043.57659,0.0033054
3042.61221,0.0032291
3041.64783,0.0030911
3040.68346,0.0032930
3039.71908,0.0033976
3038.75470,0.0035183
3037.79032,0.0033749
3036.82594,0.0030755
3035.86157,0.0032453
3034.89719,0.0035619
3033.93281,0.0036124
3032.96843,0.0035403
3032.00406,0.0035968
3031.03968,0.0037968
3030.07530,0.0039569
3029.11092,0.0039489
3028.14654,0.0040417
3027.18217,0.0042447
3026.21779,0.0042312
3025.25341,0.0041794
3024.28903,0.0042480
3023.32465,0.0043028
3022.36028,0.0041779
3021.39590,0.0040202
3020.43152,0.0040486
3019.46714,0.0040933
3018.50276,0.0039566
3017.53839,0.0036420
3016.57401,0.0035393
3015.60963,0.0036740
3014.64525,0.0036749
3013.68088,0.0036053
3012.71650,0.0036184
3011.75212,0.0036846
3010.78774,0.0035934
3009.82336,0.0034298
3008.85899,0.0035381
3007.89461,0.0038279
3006.93023,0.0039440
3005.96585,0.0037650
3005.00147,0.0035546
3004.03710,0.0035727
3003.07272,0.0036421
3002.10834,0.0036122
3001.14396,0.0037768
3000.17959,0.0038483
2999.21521,0.0036404
2998.25083,0.0037236
2997.28645,0.0037947
2996.32207,0.0036703
2995.35770,0.0036765
2994.39332,0.0036443
2993.42894,0.0036414
2992.46456,0.0037272
2991.50018,0.0037700
2990.53581,0.0036926
2989.57143,0.0035802
2988.60705,0.0035852
2987.64267,0.0035656
2986.67829,0.0034586
2985.71392,0.0033723
2984.74954,0.0035050
2983.78516,0.0036747
2982.82078,0.0035463
2981.85641,0.0034698
2980.89203,0.0035620
2979.92765,0.0035562
2978.96327,0.0034742
2977.99889,0.0035052
2977.03452,0.0037316
2976.07014,0.0037753
2975.10576,0.0036082
2974.14138,0.0035662
2973.17700,0.0035014
2972.21263,0.0034157
2971.24825,0.0034169
2970.28387,0.0034784
2969.31949,0.0035726
2968.35512,0.0035455
2967.39074,0.0034319
2966.42636,0.0033373
2965.46198,0.0033333
2964.49760,0.0033789
2963.53323,0.0033987
2962.56885,0.0034178
2961.60447,0.0033243
2960.64009,0.0031952
2959.67571,0.0031917
2958.71134,0.0033087
2957.74696,0.0033761
2956.78258,0.0032495
2955.81820,0.0031678
2954.85382,0.0032022
2953.88945,0.0031463
2952.92507,0.0030005
2951.96069,0.0029252
2950.99631,0.0029889
2950.03194,0.0031838
2949.06756,0.0033276
2948.10318,0.0032528
2947.13880,0.0032154
2946.17442,0.0031573
2945.21005,0.0029511
2944.24567,0.0028944
2943.28129,0.0029861
2942.31691,0.0030342
2941.35253,0.0030121
2940.38816,0.0030929
2939.42378,0.0031776
2938.45940,0.0031155
2937.49502,0.0031570
2936.53065,0.0032498
2935.56627,0.0031067
2934.60189,0.0027936
2933.63751,0.0027806
2932.67313,0.0030068
2931.70876,0.0030800
2930.74438,0.0031687
2929.78000,0.0031586
2928.81562,0.0029970
2927.85124,0.0029356
2926.88687,0.0030155
2925.92249,0.0031148
2924.95811,0.0030388
2923.99373,0.0030816
2923.02935,0.0030689
2922.06498,0.0028433
2921.10060,0.0029040
2920.13622,0.0028879
2919.17184,0.0028512
2918.20747,0.0030549
2917.24309,0.0030205
2916.27871,0.0029005
2915.31433,0.0028763
2914.34995,0.0029410
2913.38558,0.0030213
2912.42120,0.0030506
2911.45682,0.0030726
2910.49244,0.0029608
2909.52806,0.0030616
2908.56369,0.0031651
2907.59931,0.0029294
2906.63493,0.0028072
2905.67055,0.0028410
2904.70618,0.0029920
2903.74180,0.0030273
2902.77742,0.0029031
2901.81304,0.0029504
2900.84866,0.0029398
2899.88429,0.0028162
2898.91991,0.0027926
2897.95553,0.0029129
2896.99115,0.0029495
2896.02677,0.0029102
2895.06240,0.0029875
2894.09802,0.0028877
2893.13364,0.0027532
2892.16926,0.0028545
2891.20488,0.0030027
2890.24051,0.0030083
2889.27613,0.0028404
2888.31175,0.0027694
2887.34737,0.0028067
2886.38300,0.0027715
2885.41862,0.0027727
2884.45424,0.0029456
2883.48986,0.0030969
2882.52548,0.0030076
2881.56111,0.0028681
2880.59673,0.0028683
2879.63235,0.0029498
2878.66797,0.0028388
2877.70359,0.0026536
2876.73922,0.0027235
2875.77484,0.0027421
2874.81046,0.0027154
2873.84608,0.0028321
2872.88171,0.0029052
2871.91733,0.0029385
2870.95295,0.0028670
2869.98857,0.0026968
2869.02419,0.0025868
2868.05982,0.0026175
2867.09544,0.0026989
2866.13106,0.0026163
2865.16668,0.0025817
2864.20230,0.0026200
2863.23793,0.0025613
2862.27355,0.0026128
2861.30917,0.0026887
2860.34479,0.0027084
2859.38041,0.0027360
2858.41604,0.0027443
2857.45166,0.0028327
2856.48728,0.0028858
2855.52290,0.0028003
2854.55853,0.0027297
2853.59415,0.0027662
2852.62977,0.0027790
2851.66539,0.0027155
2850.70101,0.0027003
2849.73664,0.0026535
2848.77226,0.0026304
2847.80788,0.0027424
2846.84350,0.0027907
2845.87912,0.0026661
2844.91475,0.0025813
2843.95037,0.0027056
2842.98599,0.0028168
2842.02161,0.0028868
2841.05724,0.0029263
2840.09286,0.0027097
2839.12848,0.0025397
2838.16410,0.0025818
2837.19972,0.0025537
2836.23535,0.0025550
2835.27097,0.0026129
2834.30659,0.0025691
2833.34221,0.0025865
2832.37783,0.0027001
2831.41346,0.0027630
2830.44908,0.0027886
2829.48470,0.0027839
2828.52032,0.0027467
2827.55594,0.0026521
2826.59157,0.0025387
2825.62719,0.0025687
2824.66281,0.0026386
2823.69843,0.0025449
2822.73406,0.0024316
2821.76968,0.0024016
2820.80530,0.0023871
2819.84092,0.0024631
2818.87654,0.0025313
2817.91217,0.0025369
2816.94779,0.0025779
2815.98341,0.0025637
2815.01903,0.0025719
2814.05465,0.0025914
2813.09028,0.0025407
2812.12590,0.0025876
2811.16152,0.0026652
2810.19714,0.0025828
2809.23276,0.0025155
2808.26839,0.0027320
2807.30401,0.0028507
2806.33963,0.0026193
2805.37525,0.0025616
2804.41088,0.0026686
2803.44650,0.0025894
2802.48212,0.0025414
2801.51774,0.0026874
2800.55336,0.0027064
2799.58899,0.0024842
2798.62461,0.0025118
2797.66023,0.0027701
2796.69585,0.0027895
2795.73147,0.0027458
2794.76710,0.0027664
2793.80272,0.0027552
2792.83834,0.0027748
2791.87396,0.0027330
2790.90959,0.0026743
2789.94521,0.0026645
2788.98083,0.0026743
2788.01645,0.0026949
2787.05207,0.0026183
2786.08770,0.0025555
2785.12332,0.0026056
2784.15894,0.0027089
2783.19456,0.0027475
2782.23018,0.0026311
2781.26581,0.0025875
2780.30143,0.0026993
2779.33705,0.0027786
2778.37267,0.0026920
2777.40829,0.0025373
2776.44392,0.0025653
2775.47954,0.0027319
2774.51516,0.0028415
2773.55078,0.0028372
2772.58641,0.0027707
2771.62203,0.0026486
2770.65765,0.0024999
2769.69327,0.0024948
2768.72889,0.0026168
2767.76452,0.0027008
2766.80014,0.0027220
2765.83576,0.0026972
2764.87138,0.0027378
2763.90700,0.0028917
2762.94263,0.0028391
2761.97825,0.0027265
2761.01387,0.0028666
2760.04949,0.0029292
2759.08512,0.0028708
2758.12074,0.0027375
2757.15636,0.0026346
2756.19198,0.0027945
2755.22760,0.0028976
2754.26323,0.0027969
2753.29885,0.0026647
2752.33447,0.0027003
2751.37009,0.0027876
2750.40571,0.0027891
2749.44134,0.0029349
2748.47696,0.0029393
2747.51258,0.0028083
2746.54820,0.0028228
2745.58382,0.0027347
2744.61945,0.0026538
2743.65507,0.0027362
2742.69069,0.0027761
2741.72631,0.0027420
2740.76194,0.0027954
2739.79756,0.0028351
2738.83318,0.0027744
2737.86880,0.0028180
2736.90442,0.0028824
2735.94005,0.0028119
2734.97567,0.0026531
2734.01129,0.0025720
2733.04691,0.0026423
2732.08253,0.0026568
2731.11816,0.0025937
2730.15378,0.0025714
2729.18940,0.0026313
2728.22502,0.0027234
2727.26065,0.0027609
2726.29627,0.0028037
2725.33189,0.0028034
2724.36751,0.0026668
2723.40313,0.0025349
2722.43876,0.0025733
2721.47438,0.0027412
2720.51000,0.0028253
2719.54562,0.0027749
2718.58124,0.0027644
2717.61687,0.0027412
2716.65249,0.0026158
2715.68811,0.0026168
2714.72373,0.0027940
2713.75935,0.0028823
2712.79498,0.0027876
2711.83060,0.0026700
2710.86622,0.0026316
2709.90184,0.0026950
2708.93747,0.0027568
2707.97309,0.0026628
2707.00871,0.0026178
2706.04433,0.0026514
2705.07995,0.0025773
2704.11558,0.0025184
2703.15120,0.0025035
2702.18682,0.0025420
2701.22244,0.0026041
2700.25806,0.0026454
2699.29369,0.0027572
2698.32931,0.0027476
2697.36493,0.0026138
2696.40055,0.0025943
2695.43618,0.0026398
2694.47180,0.0026883
2693.50742,0.0027515
2692.54304,0.0027493
2691.57866,0.0026120
2690.61429,0.0025604
2689.64991,0.0027401
2688.68553,0.0028591
2687.72115,0.0027727
2686.75677,0.0026303
2685.79240,0.0026094
2684.82802,0.0027680
2683.86364,0.0028620
2682.89926,0.0027605
2681.93488,0.0026613
2680.97051,0.0026262
2680.00613,0.0027115
2679.04175,0.0028892
2678.07737,0.0028317
2677.11300,0.0026602
2676.14862,0.0026141
2675.18424,0.0025783
2674.21986,0.0025751
2673.25548,0.0025571
2672.29111,0.0025683
2671.32673,0.0026600
2670.36235,0.0026399
2669.39797,0.0026423
2668.43359,0.0027126
2667.46922,0.0026456
2666.50484,0.0025689
2665.54046,0.0026472
2664.57608,0.0027502
2663.61171,0.0026983
2662.64733,0.0025827
2661.68295,0.0025711
2660.71857,0.0025646
2659.75419,0.0025062
2658.78982,0.0025313
2657.82544,0.0025892
2656.86106,0.0026177
2655.89668,0.0026286
2654.93230,0.0025995
2653.96793,0.0027334
2653.00355,0.0029076
2652.03917,0.0028255
2651.07479,0.0026968
2650.11041,0.0025771
2649.14604,0.0024684
2648.18166,0.0025514
2647.21728,0.0026697
2646.25290,0.0026592
2645.28853,0.0026543
2644.32415,0.0027587
2643.35977,0.0027863
2642.39539,0.0026598
2641.43101,0.0026561
2640.46664,0.0027337
2639.50226,0.0026893
2638.53788,0.0026462
2637.57350,0.0026421
2636.60912,0.0025994
2635.64475,0.0024435
2634.68037,0.0024173
2633.71599,0.0026727
2632.75161,0.0026562
2631.78724,0.0024660
2630.82286,0.0024719
2629.85848,0.0024433
2628.89410,0.0024136
2627.92972,0.0023886
2626.96535,0.0023758
2626.00097,0.0023757
2625.03659,0.0023458
2624.07221,0.0023926
2623.10783,0.0024473
2622.14346,0.0024724
2621.17908,0.0023869
2620.21470,0.0023690
2619.25032,0.0024851
2618.28594,0.0024947
2617.32157,0.0024033
2616.35719,0.0021570
2615.39281,0.0021188
2614.42843,0.0023658
2613.46406,0.0024671
2612.49968,0.0025075
2611.53530,0.0026237
2610.57092,0.0027952
2609.60654,0.0028037
2608.64217,0.0026124
2607.67779,0.0024951
2606.71341,0.0025464
2605.74903,0.0025407
2604.78465,0.0024345
2603.82028,0.0026389
2602.85590,0.0028123
2601.89152,0.0026955
2600.92714,0.0027455
2599.96276,0.0027916
2598.99839,0.0027304
2598.03401,0.0027197
2597.06963,0.0026159
2596.10525,0.0024897
2595.14088,0.0023646
2594.17650,0.0022263
2593.21212,0.0024734
2592.24774,0.0028554
2591.28336,0.0026885
2590.31899,0.0023289
2589.35461,0.0023180
2588.39023,0.0024878
2587.42585,0.0026281
2586.46147,0.0026698
2585.49710,0.0024426
2584.53272,0.0022731
2583.56834,0.0024801
2582.60396,0.0026203
2581.63959,0.0024435
2580.67521,0.0021289
2579.71083,0.0021216
2578.74645,0.0022834
2577.78207,0.0022150
2576.81770,0.0023346
2575.85332,0.0024618
2574.88894,0.0024377
2573.92456,0.0026381
2572.96018,0.0026597
2571.99581,0.0024104
2571.03143,0.0022418
2570.06705,0.0020004
2569.10267,0.0020744
2568.13829,0.0025726
2567.17392,0.0025424
2566.20954,0.0022301
2565.24516,0.0021153
2564.28078,0.0019562
2563.31641,0.0020862
2562.35203,0.0024784
2561.38765,0.0025611
2560.42327,0.0021949
2559.45889,0.0018616
2558.49452,0.0018225
2557.53014,0.0020158
2556.56576,0.0021286
2555.60138,0.0020939
2554.63700,0.0024057
2553.67263,0.0025564
2552.70825,0.0024425
2551.74387,0.0024712
2550.77949,0.0024713
2549.81512,0.0022916
2548.85074,0.0018251
2547.88636,0.0019947
2546.92198,0.0026398
2545.95760,0.0025872
2544.99323,0.0021278
2544.02885,0.0020692
2543.06447,0.0024849
2542.10009,0.0024148
2541.13571,0.0020139
2540.17134,0.0020999
2539.20696,0.0024170
2538.24258,0.0025879
2537.27820,0.0026520
2536.31382,0.0026001
2535.34945,0.0023828
2534.38507,0.0023429
2533.42069,0.0020108
2532.45631,0.0015264
2531.49194,0.0015209
2530.52756,0.0017859
2529.56318,0.0021697
2528.59880,0.0019763
2527.63442,0.0018878
2526.67005,0.0024741
2525.70567,0.0029794
2524.74129,0.0030300
2523.77691,0.0023940
2522.81253,0.0021983
2521.84816,0.0024534
2520.88378,0.0024584
2519.91940,0.0026201
2518.95502,0.0025795
2517.99065,0.0022236
2517.02627,0.0019196
2516.06189,0.0020616
2515.09751,0.0024410
2514.13313,0.0025813
2513.16876,0.0025150
2512.20438,0.0023860
2511.24000,0.0024049
2510.27562,0.0024079
2509.31124,0.0023169
2508.34687,0.0021069
2507.38249,0.0019670
2506.41811,0.0021574
2505.45373,0.0024463
2504.48935,0.0023646
2503.52498,0.0020867
2502.56060,0.0024023
2501.59622,0.0026425
2500.63184,0.0023647
2499.66747,0.0020143
2498.70309,0.0019512
2497.73871,0.0024540
2496.77433,0.0024443
2495.80995,0.0019912
2494.84558,0.0020180
2493.88120,0.0021875
2492.91682,0.0022095
2491.95244,0.0020692
2490.98806,0.0020001
2490.02369,0.0020188
2489.05931,0.0020115
2488.09493,0.0020086
2487.13055,0.0020399
2486.16618,0.0022060
2485.20180,0.0025502
2484.23742,0.0026710
2483.27304,0.0022760
2482.30866,0.0019931
2481.34429,0.0020935
2480.37991,0.0023868
2479.41553,0.0023913
2478.45115,0.0021971
2477.48677,0.0023559
2476.52240,0.0024312
2475.55802,0.0024997
2474.59364,0.0023861
2473.62926,0.0019753
2472.66488,0.0018542
2471.70051,0.0018799
2470.73613,0.0020143
2469.77175,0.0022347
2468.80737,0.0025662
2467.84300,0.0026346
2466.87862,0.0023426
2465.91424,0.0022861
2464.94986,0.0022557
2463.98548,0.0021849
2463.02111,0.0020614
2462.05673,0.0017739
2461.09235,0.0015510
2460.12797,0.0017759
2459.16359,0.0021081
2458.19922,0.0018531
2457.23484,0.0017486
2456.27046,0.0020206
2455.30608,0.0021926
2454.34171,0.0022790
2453.37733,0.0021827
2452.41295,0.0019277
2451.44857,0.0017137
2450.48419,0.0019125
2449.51982,0.0021075
2448.55544,0.0020263
2447.59106,0.0021508
2446.62668,0.0022145
2445.66230,0.0021581
2444.69793,0.0022539
2443.73355,0.0022553
2442.76917,0.0021755
2441.80479,0.0022254
2440.84041,0.0020974
2439.87604,0.0019880
2438.91166,0.0023224
2437.94728,0.0026256
2436.98290,0.0025833
2436.01853,0.0022945
2435.05415,0.0020172
2434.08977,0.0020541
2433.12539,0.0023912
2432.16101,0.0025609
2431.19664,0.0023196
2430.23226,0.0020278
2429.26788,0.0019011
2428.30350,0.0021464
2427.33912,0.0022904
2426.37475,0.0021571
2425.41037,0.0022909
2424.44599,0.0022358
2423.48161,0.0022067
2422.51724,0.0023242
2421.55286,0.0019389
2420.58848,0.0017105
2419.62410,0.0019064
2418.65972,0.0020872
2417.69535,0.0024281
2416.73097,0.0025479
2415.76659,0.0022283
2414.80221,0.0022411
2413.83783,0.0022785
2412.87346,0.0020569
2411.90908,0.0021777
2410.94470,0.0023465
2409.98032,0.0024749
2409.01594,0.0024687
2408.05157,0.0023386
2407.08719,0.0025441
2406.12281,0.0025346
2405.15843,0.0024188
2404.19406,0.0025173
2403.22968,0.0025098
2402.26530,0.0025795
2401.30092,0.0024607
2400.33654,0.0021761
2399.37217,0.0021615
2398.40779,0.0022346
2397.44341,0.0023119
2396.47903,0.0023838
2395.51465,0.0023735
2394.55028,0.0022736
2393.58590,0.0022637
2392.62152,0.0023751
2391.65714,0.0022769
2390.69276,0.0021362
2389.72839,0.0022019
2388.76401,0.0022952
2387.79963,0.0023855
2386.83525,0.0024414
2385.87088,0.0022992
2384.90650,0.0020977
2383.94212,0.0020646
2382.97774,0.0021402
2382.01336,0.0023123
2381.04899,0.0024087
2380.08461,0.0022948
2379.12023,0.0022760
2378.15585,0.0023623
2377.19147,0.0025337
2376.22710,0.0027551
2375.26272,0.0027371
2374.29834,0.0026714
2373.33396,0.0027018
2372.36959,0.0026623
2371.40521,0.0025063
2370.44083,0.0023250
2369.47645,0.0024903
2368.51207,0.0028167
2367.54770,0.0028140
2366.58332,0.0027979
2365.61894,0.0028158
2364.65456,0.0027226
2363.69018,0.0027603
2362.72581,0.0027623
2361.76143,0.0027699
2360.79705,0.0028879
2359.83267,0.0028469
2358.86829,0.0027258
2357.90392,0.0027291
2356.93954,0.0027868
2355.97516,0.0027041
2355.01078,0.0025951
2354.04641,0.0026098
2353.08203,0.0027398
2352.11765,0.0028328
2351.15327,0.0027205
2350.18889,0.0026675
2349.22452,0.0026425
2348.26014,0.0026004
2347.29576,0.0027037
2346.33138,0.0027425
2345.36700,0.0027232
2344.40263,0.0027259
2343.43825,0.0027111
2342.47387,0.0026357
2341.50949,0.0026094
2340.54512,0.0027462
2339.58074,0.0028556
2338.61636,0.0028915
2337.65198,0.0027781
2336.68760,0.0027171
2335.72323,0.0028691
2334.75885,0.0029559
2333.79447,0.0029953
2332.83009,0.0030082
2331.86571,0.0028699
2330.90134,0.0026692
2329.93696,0.0026991
2328.97258,0.0027737
2328.00820,0.0026486
2327.04382,0.0025641
2326.07945,0.0026155
2325.11507,0.0028107
2324.15069,0.0029166
2323.18631,0.0029186
2322.22194,0.0029339
2321.25756,0.0028014
2320.29318,0.0026976
2319.32880,0.0026365
2318.36442,0.0025996
2317.40005,0.0025652
2316.43567,0.0026034
2315.47129,0.0027969
2314.50691,0.0028534
2313.54253,0.0026747
2312.57816,0.0025223
2311.61378,0.0026738
2310.64940,0.0026259
2309.68502,0.0024596
2308.72065,0.0025156
2307.75627,0.0024615
2306.79189,0.0025656
2305.82751,0.0025831
2304.86313,0.0025464
2303.89876,0.0025996
2302.93438,0.0024279
2301.97000,0.0023422
2301.00562,0.0023407
2300.04124,0.0023837
2299.07687,0.0021982
2298.11249,0.0021992
2297.14811,0.0026628
2296.18373,0.0026915
2295.21935,0.0026853
2294.25498,0.0028498
2293.29060,0.0027857
2292.32622,0.0025781
2291.36184,0.0023522
2290.39747,0.0024518
2289.43309,0.0028777
2288.46871,0.0029720
2287.50433,0.0024743
2286.53995,0.0024155
2285.57558,0.0029125
2284.61120,0.0030810
2283.64682,0.0025906
2282.68244,0.0020116
2281.71806,0.0022397
2280.75369,0.0025799
2279.78931,0.0027904
2278.82493,0.0028805
2277.86055,0.0028064
2276.89618,0.0031505
2275.93180,0.0029269
2274.96742,0.0025363
2274.00304,0.0030209
2273.03866,0.0031476
2272.07429,0.0025578
2271.10991,0.0022939
2270.14553,0.0025405
2269.18115,0.0029114
2268.21677,0.0030090
2267.25240,0.0024679
2266.28802,0.0023870
2265.32364,0.0027476
2264.35926,0.0024020
2263.39488,0.0022859
2262.43051,0.0024199
2261.46613,0.0018763
2260.50175,0.0015025
2259.53737,0.0022255
2258.57300,0.0030125
2257.60862,0.0029953
2256.64424,0.0024805
2255.67986,0.0014526
2254.71548,0.0010375
2253.75111,0.0016035
2252.78673,0.0018313
2251.82235,0.0021029
2250.85797,0.0027292
2249.89359,0.0029518
2248.92922,0.0032462
2247.96484,0.0032367
2247.00046,0.0019615
2246.03608,0.0013237
2245.07171,0.0020368
2244.10733,0.0024121
2243.14295,0.0023548
2242.17857,0.0023547
2241.21419,0.0024895
2240.24982,0.0025356
2239.28544,0.0023235
2238.32106,0.0025493
2237.35668,0.0030324
2236.39230,0.0021144
2235.42793,0.0011683
2234.46355,0.0025448
2233.49917,0.0037476
2232.53479,0.0032057
2231.57041,0.0022996
2230.60604,0.0020873
2229.64166,0.0028049
2228.67728,0.0028680
2227.71290,0.0022856
2226.74853,0.0020259
2225.78415,0.0017701
2224.81977,0.0017729
2223.85539,0.0027237
2222.89101,0.0035734
2221.92664,0.0021859
2220.96226,0.0003408
2219.99788,0.0004810
2219.03350,0.0019828
2218.06912,0.0026199
2217.10475,0.0012250
2216.14037,0.0011094
2215.17599,0.0020786
2214.21161,0.0015040
2213.24724,0.0017744
2212.28286,0.0032812
2211.31848,0.0036177
2210.35410,0.0023446
2209.38972,0.0015654
2208.42535,0.0017153
2207.46097,0.0011247
2206.49659,0.0017196
2205.53221,0.0034869
2204.56783,0.0035714
2203.60346,0.0034043
2202.63908,0.0035431
2201.67470,0.0024796
2200.71032,0.0020686
2199.74594,0.0024364
2198.78157,0.0014302
2197.81719,0.0004403
2196.85281,0.0005422
2195.88843,0.0005437
2194.92406,0.0004329
2193.95968,0.0014813
2192.99530,0.0026720
2192.03092,0.0020765
2191.06654,0.0019890
2190.10217,0.0032147
2189.13779,0.0031232
2188.17341,0.0015367
2187.20903,-0.0004681
2186.24465,-0.0011350
2185.28028,0.0009953
2184.31590,0.0021628
2183.35152,0.0003416
2182.38714,0.0013414
2181.42276,0.0045415
2180.45839,0.0038121
2179.49401,0.0011490
2178.52963,0.0014072
2177.56525,0.0039279
2176.60088,0.0045094
2175.63650,0.0040672
2174.67212,0.0031503
2173.70774,0.0016034
2172.74336,0.0027668
2171.77899,0.0046138
2170.81461,0.0045005
2169.85023,0.0021474
2168.88585,-0.0001641
2167.92147,-0.0000104
2166.95710,0.0003084
2165.99272,0.0008862
2165.02834,0.0003438
2164.06396,-0.0014870
2163.09959,-0.0015716
2162.13521,-0.0007865
2161.17083,0.0008499
2160.20645,0.0028852
2159.24207,0.0043318
2158.27770,0.0044964
2157.31332,0.0023878
2156.34894,0.0010166
2155.38456,0.0030109
2154.42018,0.0036166
2153.45581,0.0012534
2152.49143,0.0006200
2151.52705,0.0018980
2150.56267,0.0039257
2149.59829,0.0046893
2148.63392,0.0033713
2147.66954,0.0012064
2146.70516,-0.0011782
2145.74078,-0.0019671
2144.77641,-0.0022213
2143.81203,-0.0023170
2142.84765,-0.0013055
2141.88327,0.0005422
2140.91889,0.0018702
2139.95452,0.0022047
2138.99014,0.0035977
2138.02576,0.0040892
2137.06138,0.0026516
2136.09700,0.0011415
2135.13263,0.0005098
2134.16825,0.0014680
2133.20387,0.0023480
2132.23949,0.0026267
2131.27512,0.0030039
2130.31074,0.0029789
2129.34636,0.0018907
2128.38198,0.0016774
2127.41760,0.0029971
2126.45323,0.0028494
2125.48885,0.0021303
2124.52447,0.0024845
2123.56009,0.0028032
2122.59571,0.0022516
2121.63134,0.0016855
2120.66696,0.0016592
2119.70258,0.0010409
2118.73820,0.0009798
2117.77382,0.0014039
2116.80945,0.0020566
2115.84507,0.0030547
2114.88069,0.0023805
2113.91631,0.0015467
2112.95194,0.0016273
2111.98756,0.0019264
2111.02318,0.0016365
2110.05880,0.0008349
2109.09442,0.0011785
2108.13005,0.0009608
2107.16567,0.0007818
2106.20129,0.0015414
2105.23691,0.0016879
2104.27253,0.0021474
2103.30816,0.0023935
2102.34378,0.0020725
2101.37940,0.0019993
2100.41502,0.0024420
2099.45065,0.0023564
2098.48627,0.0013134
2097.52189,0.0016358
2096.55751,0.0023443
2095.59313,0.0023827
2094.62876,0.0027932
2093.66438,0.0027492
2092.70000,0.0024251
2091.73562,0.0024471
2090.77124,0.0023734
2089.80687,0.0016537
2088.84249,0.0013349
2087.87811,0.0019461
2086.91373,0.0017464
2085.94935,0.0017803
2084.98498,0.0027853
2084.02060,0.0024940
2083.05622,0.0019609
2082.09184,0.0022906
2081.12747,0.0018108
2080.16309,0.0016412
2079.19871,0.0026390
2078.23433,0.0024104
2077.26995,0.0011803
2076.30558,0.0007007
2075.34120,0.0005933
2074.37682,0.0013728
2073.41244,0.0025058
2072.44806,0.0022847
2071.48369,0.0019278
2070.51931,0.0015976
2069.55493,0.0008243
2068.59055,0.0007168
2067.62618,0.0011302
2066.66180,0.0018104
2065.69742,0.0016076
2064.73304,0.0005408
2063.76866,0.0013004
2062.80429,0.0028515
2061.83991,0.0024254
2060.87553,0.0011128
2059.91115,0.0005653
2058.94677,0.0004777
2057.98240,0.0011504
2057.01802,0.0025742
2056.05364,0.0038418
2055.08926,0.0046940
2054.12488,0.0042368
2053.16051,0.0031116
2052.19613,0.0024944
2051.23175,0.0020646
2050.26737,0.0019887
2049.30300,0.0017057
2048.33862,0.0024148
2047.37424,0.0041403
2046.40986,0.0041473
2045.44548,0.0040984
2044.48111,0.0040923
2043.51673,0.0021699
2042.55235,-0.0001372
2041.58797,-0.0025350
2040.62359,-0.0036526
2039.65922,-0.0005002
2038.69484,0.0022992
2037.73046,0.0001673
2036.76608,-0.0019471
2035.80171,-0.0004958
2034.83733,0.0028360
2033.87295,0.0029615
2032.90857,0.0003852
2031.94419,0.0010081
2030.97982,0.0008399
2030.01544,0.0006981
2029.05106,0.0030777
2028.08668,0.0027195
2027.12230,0.0011326
2026.15793,-0.0003258
2025.19355,-0.0011413
2024.22917,-0.0001146
2023.26479,0.0011896
2022.30041,0.0022259
2021.33604,0.0035800
2020.37166,0.0045477
2019.40728,0.0043308
2018.44290,0.0042711
2017.47853,0.0001235
2016.51415,-0.0032296
2015.54977,0.0008091
2014.58539,0.0029998
2013.62101,0.0035233
2012.65664,0.0035615
2011.69226,0.0023905
2010.72788,0.0034343
2009.76350,0.0041417
2008.79912,0.0053172
2007.83475,0.0046702
2006.87037,0.0021446
2005.90599,0.0010343
2004.94161,-0.0005979
2003.97724,-0.0002012
2003.01286,0.0023665
2002.04848,0.0034161
2001.08410,0.0017909
2000.11972,-0.0000912
1999.15535,-0.0002246
1998.19097,0.0006445
1997.22659,0.0011330
1996.26221,0.0013830
1995.29783,0.0026638
1994.33346,0.0015229
1993.36908,-0.0002917
1992.40470,0.0012322
1991.44032,0.0015234
1990.47594,0.0007486
1989.51157,0.0009918
1988.54719,0.0008979
1987.58281,0.0013754
1986.61843,0.0018169
1985.65406,0.0007169
1984.68968,0.0000521
1983.72530,0.0001711
1982.76092,-0.0002618
1981.79654,0.0004089
1980.83217,0.0013602
1979.86779,0.0014669
1978.90341,0.0000405
1977.93903,-0.0024865
1976.97465,-0.0010355
1976.01028,0.0023607
1975.04590,0.0031485
1974.08152,0.0013318
1973.11714,0.0007014
1972.15276,0.0020896
1971.18839,0.0015721
1970.22401,0.0011891
1969.25963,0.0038390
1968.29525,0.0063947
1967.33088,0.0037182
1966.36650,0.0000936
1965.40212,0.0015584
1964.43774,0.0022472
1963.47336,0.0013681
1962.50899,0.0023329
1961.54461,0.0025254
1960.58023,0.0027971
1959.61585,0.0033922
1958.65147,0.0032257
1957.68710,0.0037686
1956.72272,0.0035511
1955.75834,0.0022695
1954.79396,0.0007089
1953.82959,-0.0001233
1952.86521,0.0016066
1951.90083,0.0026782
1950.93645,0.0027222
1949.97207,0.0032842
1949.00770,0.0027206
1948.04332,0.0023116
1947.07894,0.0017037
1946.11456,0.0010247
1945.15018,0.0018737
1944.18581,0.0028493
1943.22143,0.0024669
1942.25705,0.0010884
1941.29267,0.0012096
1940.32829,0.0022845
1939.36392,0.0023610
1938.39954,0.0019086
1937.43516,0.0020342
1936.47078,0.0025605
1935.50641,0.0019656
1934.54203,0.0015974
1933.57765,0.0017753
1932.61327,0.0018066
1931.64889,0.0023074
1930.68452,0.0020775
1929.72014,0.0014043
1928.75576,0.0012078
1927.79138,0.0014016
1926.82700,0.0014073
1925.86263,0.0012827
1924.89825,0.0021050
1923.93387,0.0026988
1922.96949,0.0023052
1922.00512,0.0019546
1921.04074,0.0022668
1920.07636,0.0027171
1919.11198,0.0025352
1918.14760,0.0021830
1917.18323,0.0021419
1916.21885,0.0023650
1915.25447,0.0021719
1914.29009,0.0015820
1913.32571,0.0015808
1912.36134,0.0021863
1911.39696,0.0025122
1910.43258,0.0019637
1909.46820,0.0014023
1908.50382,0.0014522
1907.53945,0.0019979
1906.57507,0.0025156
1905.61069,0.0022963
1904.64631,0.0021211
1903.68194,0.0022069
1902.71756,0.0017889
1901.75318,0.0014329
1900.78880,0.0018679
1899.82442,0.0022479
1898.86005,0.0019862
1897.89567,0.0017685
1896.93129,0.0019310
1895.96691,0.0022743
1895.00253,0.0021647
1894.03816,0.0018962
1893.07378,0.0019440
1892.10940,0.0018861
1891.14502,0.0020544
1890.18065,0.0020707
1889.21627,0.0017382
1888.25189,0.0016285
1887.28751,0.0015378
1886.32313,0.0017839
1885.35876,0.0020604
1884.39438,0.0017363
1883.43000,0.0014315
1882.46562,0.0014017
1881.50124,0.0015061
1880.53687,0.0017868
1879.57249,0.0019170
1878.60811,0.0018594
1877.64373,0.0018851
1876.67935,0.0019548
1875.71498,0.0021080
1874.75060,0.0021106
1873.78622,0.0019035
1872.82184,0.0018018
1871.85747,0.0018509
1870.89309,0.0020085
1869.92871,0.0018499
1868.96433,0.0015980
1867.99995,0.0017293
1867.03558,0.0016805
1866.07120,0.0014432
1865.10682,0.0014520
1864.14244,0.0015680
1863.17806,0.0015895
1862.21369,0.0016070
1861.24931,0.0016883
1860.28493,0.0017140
1859.32055,0.0018690
1858.35618,0.0023322
1857.39180,0.0024129
1856.42742,0.0017901
1855.46304,0.0014268
1854.49866,0.0014839
1853.53429,0.0015826
1852.56991,0.0019192
1851.60553,0.0020932
1850.64115,0.0019832
1849.67677,0.0019664
1848.71240,0.0019762
1847.74802,0.0020763
1846.78364,0.0021579
1845.81926,0.0019945
1844.85488,0.0018714
1843.89051,0.0018187
1842.92613,0.0017001
1841.96175,0.0017370
1840.99737,0.0019037
1840.03300,0.0020247
1839.06862,0.0020178
1838.10424,0.0018813
1837.13986,0.0016984
1836.17548,0.0016958
1835.21111,0.0018649
1834.24673,0.0018292
1833.28235,0.0018919
1832.31797,0.0019754
1831.35359,0.0017916
1830.38922,0.0018103
1829.42484,0.0017389
1828.46046,0.0016652
1827.49608,0.0019396
1826.53171,0.0020785
1825.56733,0.0019574
1824.60295,0.0017263
1823.63857,0.0017852
1822.67419,0.0020529
1821.70982,0.0020519
1820.74544,0.0019388
1819.78106,0.0018927
1818.81668,0.0019564
1817.85230,0.0020215
1816.88793,0.0019365
1815.92355,0.0017259
1814.95917,0.0015779
1813.99479,0.0016860
1813.03041,0.0018276
1812.06604,0.0018526
1811.10166,0.0018071
1810.13728,0.0017050
1809.17290,0.0016873
1808.20853,0.0017489
1807.24415,0.0018274
1806.27977,0.0019060
1805.31539,0.0018934
1804.35101,0.0018474
1803.38664,0.0018072
1802.42226,0.0017271
1801.45788,0.0017356
1800.49350,0.0018233
1799.52912,0.0018242
1798.56475,0.0018094
1797.60037,0.0017976
1796.63599,0.0017189
1795.67161,0.0017918
1794.70724,0.0020004
1793.74286,0.0020675
1792.77848,0.0019672
1791.81410,0.0017163
1790.84972,0.0015221
1789.88535,0.0015853
1788.92097,0.0017628
1787.95659,0.0018373
1786.99221,0.0017474
1786.02783,0.0016873
1785.06346,0.0017430
1784.09908,0.0018002
1783.13470,0.0017596
1782.17032,0.0016626
1781.20594,0.0016419
1780.24157,0.0016137
1779.27719,0.0015234
1778.31281,0.0014990
1777.34843,0.0016112
1776.38406,0.0016902
1775.41968,0.0016658
1774.45530,0.0016913
1773.49092,0.0017223
1772.52654,0.0017254
1771.56217,0.0017343
1770.59779,0.0017799
1769.63341,0.0017909
1768.66903,0.0017419
1767.70465,0.0018104
1766.74028,0.0018431
1765.77590,0.0017837
1764.81152,0.0017935
1763.84714,0.0017730
1762.88276,0.0016509
1761.91839,0.0015814
1760.95401,0.0016637
1759.98963,0.0017447
1759.02525,0.0017546
1758.06088,0.0016885
1757.09650,0.0016406
1756.13212,0.0016965
1755.16774,0.0017000
1754.20336,0.0016235
1753.23899,0.0015712
1752.27461,0.0016337
1751.31023,0.0016743
1750.34585,0.0016082
1749.38147,0.0015692
1748.41710,0.0015530
1747.45272,0.0016358
1746.48834,0.0016798
1745.52396,0.0015655
1744.55959,0.0015332
1743.59521,0.0016074
1742.63083,0.0016328
1741.66645,0.0015738
1740.70207,0.0015022
1739.73770,0.0014635
1738.77332,0.0014833
1737.80894,0.0015445
1736.84456,0.0015938
1735.88018,0.0016498
1734.91581,0.0016599
1733.95143,0.0015518
1732.98705,0.0014833
1732.02267,0.0015235
1731.05829,0.0015510
1730.09392,0.0015920
1729.12954,0.0016071
1728.16516,0.0015997
1727.20078,0.0016404
1726.23641,0.0016044
1725.27203,0.0015733
1724.30765,0.0015355
1723.34327,0.0014702
1722.37889,0.0015123
1721.41452,0.0015327
1720.45014,0.0015192
1719.48576,0.0014581
1718.52138,0.0013559
1717.55700,0.0013466
1716.59263,0.0014377
1715.62825,0.0015545
1714.66387,0.0015210
1713.69949,0.0014123
1712.73512,0.0013382
1711.77074,0.0012745
1710.80636,0.0013026
1709.84198,0.0013557
1708.87760,0.0014279
1707.91323,0.0015066
1706.94885,0.0014809
1705.98447,0.0014428
1705.02009,0.0014934
1704.05571,0.0015121
1703.09134,0.0014634
1702.12696,0.0014464
1701.16258,0.0014009
1700.19820,0.0013850
1699.23382,0.0014488
1698.26945,0.0014599
1697.30507,0.0014539
1696.34069,0.0014687
1695.37631,0.0015482
1694.41194,0.0016039
1693.44756,0.0015914
1692.48318,0.0016481
1691.51880,0.0016780
1690.55442,0.0016744
1689.59005,0.0017595
1688.62567,0.0018417
1687.66129,0.0019417
1686.69691,0.0020995
1685.73253,0.0022354
1684.76816,0.0023198
1683.80378,0.0024279
1682.83940,0.0026957
1681.87502,0.0029763
1680.91065,0.0031742
1679.94627,0.0035023
1678.98189,0.0038712
1678.01751,0.0041398
1677.05313,0.0044533
1676.08876,0.0048944
1675.12438,0.0053234
1674.16000,0.0056568
1673.19562,0.0059967
1672.23124,0.0062254
1671.26687,0.0062912
1670.30249,0.0063321
1669.33811,0.0062959
1668.37373,0.0062005
1667.40935,0.0061453
1666.44498,0.0059682
1665.48060,0.0056958
1664.51622,0.0054137
1663.55184,0.0050488
1662.58747,0.0047674
1661.62309,0.0045580
1660.65871,0.0043549
1659.69433,0.0041946
1658.72995,0.0040079
1657.76558,0.0038901
1656.80120,0.0038223
1655.83682,0.0037630
1654.87244,0.0037904
1653.90806,0.0037738
1652.94369,0.0037242
1651.97931,0.0038246
1651.01493,0.0040563
1650.05055,0.0043026
1649.08618,0.0045678
1648.12180,0.0049022
1647.15742,0.0052404
1646.19304,0.0056571
1645.22866,0.0061296
1644.26429,0.0066568
1643.29991,0.0071919
1642.33553,0.0076329
1641.37115,0.0081509
1640.40677,0.0087915
1639.44240,0.0095512
1638.47802,0.0103162
1637.51364,0.0111142
1636.54926,0.0120235
1635.58488,0.0129573
1634.62051,0.0139485
1633.65613,0.0148497
1632.69175,0.0155713
1631.72737,0.0161710
1630.76300,0.0167123
1629.79862,0.0170458
1628.83424,0.0171807
1627.86986,0.0173785
1626.90548,0.0176288
1625.94111,0.0177776
1624.97673,0.0178683
1624.01235,0.0180522
1623.04797,0.0183020
1622.08359,0.0185969
1621.11922,0.0188922
1620.15484,0.0191044
1619.19046,0.0193220
1618.22608,0.0196038
1617.26171,0.0198539
1616.29733,0.0200091
1615.33295,0.0202925
1614.36857,0.0206173
1613.40419,0.0207551
1612.43982,0.0208191
1611.47544,0.0208957
1610.51106,0.0209191
1609.54668,0.0208099
1608.58230,0.0207336
1607.61793,0.0207012
1606.65355,0.0205336
1605.68917,0.0202567
1604.72479,0.0200180
1603.76041,0.0198613
1602.79604,0.0196717
1601.83166,0.0194379
1600.86728,0.0191005
1599.90290,0.0187530
1598.93853,0.0185045
1597.97415,0.0182553
1597.00977,0.0179779
1596.04539,0.0177227
1595.08101,0.0176158
1594.11664,0.0176024
1593.15226,0.0176023
1592.18788,0.0176147
1591.22350,0.0176136
1590.25912,0.0175246
1589.29475,0.0172833
1588.33037,0.0170124
1587.36599,0.0167223
1586.40161,0.0163915
1585.43724,0.0160200
1584.47286,0.0156114
1583.50848,0.0152211
1582.54410,0.0148883
1581.57972,0.0145970
1580.61535,0.0142908
1579.65097,0.0140150
1578.68659,0.0137705
1577.72221,0.0135995
1576.75783,0.0134012
1575.79346,0.0131600
1574.82908,0.0130257
1573.86470,0.0128013
1572.90032,0.0124918
1571.93594,0.0122412
1570.97157,0.0121016
1570.00719,0.0119477
1569.04281,0.0116867
1568.07843,0.0115325
1567.11406,0.0114154
1566.14968,0.0112412
1565.18530,0.0110226
1564.22092,0.0108150
1563.25654,0.0106643
1562.29217,0.0105172
1561.32779,0.0104337
1560.36341,0.0103075
1559.39903,0.0100638
1558.43465,0.0098182
1557.47028,0.0096391
1556.50590,0.0095268
1555.54152,0.0093728
1554.57714,0.0091739
1553.61276,0.0090322
1552.64839,0.0089589
1551.68401,0.0088418
1550.71963,0.0086664
1549.75525,0.0085351
1548.79088,0.0084506
1547.82650,0.0083117
1546.86212,0.0081509
1545.89774,0.0080462
1544.93336,0.0079188
1543.96899,0.0078551
1543.00461,0.0078105
1542.04023,0.0076368
1541.07585,0.0075195
1540.11147,0.0074458
1539.14710,0.0072502
1538.18272,0.0070567
1537.21834,0.0070033
1536.25396,0.0070022
1535.28959,0.0069380
1534.32521,0.0068235
1533.36083,0.0067002
1532.39645,0.0065821
1531.43207,0.0064966
1530.46770,0.0064795
1529.50332,0.0064067
1528.53894,0.0063075
1527.57456,0.0062911
1526.61018,0.0061902
1525.64581,0.0060661
1524.68143,0.0060486
1523.71705,0.0059936
1522.75267,0.0058922
1521.78829,0.0058230
1520.82392,0.0057252
1519.85954,0.0056381
1518.89516,0.0056297
1517.93078,0.0055981
1516.96641,0.0055277
1516.00203,0.0054502
1515.03765,0.0053967
1514.07327,0.0054028
1513.10889,0.0053703
1512.14452,0.0052537
1511.18014,0.0050893
1510.21576,0.0049597
1509.25138,0.0049514
1508.28700,0.0050076
1507.32263,0.0049937
1506.35825,0.0048713
1505.39387,0.0047778
1504.42949,0.0047376
1503.46512,0.0046628
1502.50074,0.0045944
1501.53636,0.0045383
1500.57198,0.0044604
1499.60760,0.0044223
1498.64323,0.0043752
1497.67885,0.0042623
1496.71447,0.0041779
1495.75009,0.0041419
1494.78571,0.0040983
1493.82134,0.0039708
1492.85696,0.0038234
1491.89258,0.0038032
1490.92820,0.0038095
1489.96382,0.0037717
1488.99945,0.0037512
1488.03507,0.0037385
1487.07069,0.0036568
1486.10631,0.0035323
1485.14194,0.0035521
1484.17756,0.0036440
1483.21318,0.0036584
1482.24880,0.0036978
1481.28442,0.0038762
1480.32005,0.0042524
1479.35567,0.0049163
1478.39129,0.0061444
1477.42691,0.0080197
1476.46253,0.0101387
1475.49816,0.0116872
1474.53378,0.0120428
1473.56940,0.0113371
1472.60502,0.0100426
1471.64065,0.0086733
1470.67627,0.0075616
1469.71189,0.0067030
1468.74751,0.0060141
1467.78313,0.0055515
1466.81876,0.0051917
1465.85438,0.0048359
1464.89000,0.0045476
1463.92562,0.0043322
1462.96124,0.0041358
1461.99687,0.0040011
1461.03249,0.0039544
1460.06811,0.0038636
1459.10373,0.0036675
1458.13935,0.0034440
1457.17498,0.0032973
1456.21060,0.0032586
1455.24622,0.0032543
1454.28184,0.0032172
1453.31747,0.0031994
1452.35309,0.0032545
1451.38871,0.0032245
1450.42433,0.0030759
1449.45995,0.0029870
1448.49558,0.0030558
1447.53120,0.0031920
1446.56682,0.0033220
1445.60244,0.0035764
1444.63806,0.0038994
1443.67369,0.0040941
1442.70931,0.0040960
1441.74493,0.0039372
1440.78055,0.0037630
1439.81618,0.0035748
1438.85180,0.0033470
1437.88742,0.0031995
1436.92304,0.0030951
1435.95866,0.0030012
1434.99429,0.0028882
1434.02991,0.0027791
1433.06553,0.0029121
1432.10115,0.0030917
1431.13677,0.0031218
1430.17240,0.0032095
1429.20802,0.0033180
1428.24364,0.0034655
1427.27926,0.0037208
1426.31488,0.0040562
1425.35051,0.0044569
1424.38613,0.0049952
1423.42175,0.0057354
1422.45737,0.0064429
1421.49300,0.0072020
1420.52862,0.0080936
1419.56424,0.0088849
1418.59986,0.0095494
1417.63548,0.0101490
1416.67111,0.0107749
1415.70673,0.0113271
1414.74235,0.0116547
1413.77797,0.0118227
1412.81359,0.0118569
1411.84922,0.0119003
1410.88484,0.0121807
1409.92046,0.0126588
1408.95608,0.0132623
1407.99171,0.0141069
1407.02733,0.0150427
1406.06295,0.0158128
1405.09857,0.0163147
1404.13419,0.0165466
1403.16982,0.0168160
1402.20544,0.0171122
1401.24106,0.0173042
1400.27668,0.0175773
1399.31230,0.0180513
1398.34793,0.0188342
1397.38355,0.0198577
1396.41917,0.0210533
1395.45479,0.0223744
1394.49041,0.0235209
1393.52604,0.0242487
1392.56166,0.0246178
1391.59728,0.0247224
1390.63290,0.0245278
1389.66853,0.0240311
1388.70415,0.0233765
1387.73977,0.0226121
1386.77539,0.0217633
1385.81101,0.0209467
1384.84664,0.0200750
1383.88226,0.0191463
1382.91788,0.0182874
1381.95350,0.0173504
1380.98912,0.0162338
1380.02475,0.0150770
1379.06037,0.0139347
1378.09599,0.0128752
1377.13161,0.0119245
1376.16724,0.0110453
1375.20286,0.0103726
1374.23848,0.0098972
1373.27410,0.0095316
1372.30972,0.0094406
1371.34535,0.0097035
1370.38097,0.0101601
1369.41659,0.0108663
1368.45221,0.0119621
1367.48783,0.0133355
1366.52346,0.0148005
1365.55908,0.0161292
1364.59470,0.0172225
1363.63032,0.0181025
1362.66594,0.0188401
1361.70157,0.0194679
1360.73719,0.0199267
1359.77281,0.0202442
1358.80843,0.0204667
1357.84406,0.0207743
1356.87968,0.0211691
1355.91530,0.0214186
1354.95092,0.0215437
1353.98654,0.0215077
1353.02217,0.0212502
1352.05779,0.0208104
1351.09341,0.0201614
1350.12903,0.0193993
1349.16465,0.0186460
1348.20028,0.0179353
1347.23590,0.0172500
1346.27152,0.0166026
1345.30714,0.0160217
1344.34276,0.0154468
1343.37839,0.0149077
1342.41401,0.0144903
1341.44963,0.0140966
1340.48525,0.0136324
1339.52088,0.0131803
1338.55650,0.0128405
1337.59212,0.0125784
1336.62774,0.0123835
1335.66336,0.0125323
1334.69899,0.0130818
1333.73461,0.0137577
1332.77023,0.0142982
1331.80585,0.0144060
1330.84147,0.0142172
1329.87710,0.0139892
1328.91272,0.0138271
1327.94834,0.0138694
1326.98396,0.0140048
1326.01959,0.0143483
1325.05521,0.0149649
1324.09083,0.0156061
1323.12645,0.0162063
1322.16207,0.0167208
1321.19770,0.0172336
1320.23332,0.0178379
1319.26894,0.0185283
1318.30456,0.0193169
1317.34018,0.0201274
1316.37581,0.0209795
1315.41143,0.0219003
1314.44705,0.0227344
1313.48267,0.0232169
1312.51829,0.0232684
1311.55392,0.0230573
1310.58954,0.0227172
1309.62516,0.0222416
1308.66078,0.0215846
1307.69641,0.0208802
1306.73203,0.0201420
1305.76765,0.0192892
1304.80327,0.0184390
1303.83889,0.0176330
1302.87452,0.0168590
1301.91014,0.0161737
1300.94576,0.0157002
1299.98138,0.0154478
1299.01700,0.0153672
1298.05263,0.0154699
1297.08825,0.0157834
1296.12387,0.0164035
1295.15949,0.0171619
1294.19512,0.0178585
1293.23074,0.0185028
1292.26636,0.0190699
1291.30198,0.0195141
1290.33760,0.0197835
1289.37323,0.0199312
1288.40885,0.0199296
1287.44447,0.0198244
1286.48009,0.0196993
1285.51571,0.0194590
1284.55134,0.0192118
1283.58696,0.0189820
1282.62258,0.0187496
1281.65820,0.0185340
1280.69382,0.0182868
1279.72945,0.0181126
1278.76507,0.0179425
1277.80069,0.0177045
1276.83631,0.0174756
1275.87194,0.0172573
1274.90756,0.0170447
1273.94318,0.0168676
1272.97880,0.0166813
1272.01442,0.0163981
1271.05005,0.0161884
1270.08567,0.0160716
1269.12129,0.0159102
1268.15691,0.0157619
1267.19253,0.0155959
1266.22816,0.0154129
1265.26378,0.0152417
1264.29940,0.0151195
1263.33502,0.0150398
1262.37065,0.0149083
1261.40627,0.0147234
1260.44189,0.0145358
1259.47751,0.0144406
1258.51313,0.0143100
1257.54876,0.0140835
1256.58438,0.0139186
1255.62000,0.0138079
1254.65562,0.0137331
1253.69124,0.0136476
1252.72687,0.0135526
1251.76249,0.0134239
1250.79811,0.0133224
1249.83373,0.0133184
1248.86935,0.0131563
1247.90498,0.0129442
1246.94060,0.0128460
1245.97622,0.0127277
1245.01184,0.0126140
1244.04747,0.0124704
1243.08309,0.0123131
1242.11871,0.0121681
1241.15433,0.0120181
1240.18995,0.0119394
1239.22558,0.0118539
1238.26120,0.0116401
1237.29682,0.0114268
1236.33244,0.0113705
1235.36806,0.0113028
1234.40369,0.0111901
1233.43931,0.0111329
1232.47493,0.0110070
1231.51055,0.0109431
1230.54618,0.0110701
1229.58180,0.0112646
1228.61742,0.0114648
1227.65304,0.0116472
1226.68866,0.0118816
1225.72429,0.0121389
1224.75991,0.0123814
1223.79553,0.0126148
1222.83115,0.0126648
1221.86677,0.0125385
1220.90240,0.0123271
1219.93802,0.0120903
1218.97364,0.0118838
1218.00926,0.0116066
1217.04488,0.0113707
1216.08051,0.0112304
1215.11613,0.0110280
1214.15175,0.0107883
1213.18737,0.0105838
1212.22300,0.0104300
1211.25862,0.0102168
1210.29424,0.0100186
1209.32986,0.0099039
1208.36548,0.0096641
1207.40111,0.0094565
1206.43673,0.0093868
1205.47235,0.0093153
1204.50797,0.0092722
1203.54359,0.0092693
1202.57922,0.0093771
1201.61484,0.0096080
1200.65046,0.0100137
1199.68608,0.0107038
1198.72171,0.0115770
1197.75733,0.0125125
1196.79295,0.0133709
1195.82857,0.0141544
1194.86419,0.0148914
1193.89982,0.0154045
1192.93544,0.0156386
1191.97106,0.0156236
1191.00668,0.0154853
1190.04230,0.0152849
1189.07793,0.0148939
1188.11355,0.0144817
1187.14917,0.0141809
1186.18479,0.0138174
1185.22041,0.0134041
1184.25604,0.0130939
1183.29166,0.0129309
1182.32728,0.0127764
1181.36290,0.0125734
1180.39853,0.0123702
1179.43415,0.0121238
1178.46977,0.0119305
1177.50539,0.0117283
1176.54101,0.0114602
1175.57664,0.0113621
1174.61226,0.0113754
1173.64788,0.0113610
1172.68350,0.0112694
1171.71912,0.0110567
1170.75475,0.0109229
1169.79037,0.0109391
1168.82599,0.0109191
1167.86161,0.0108345
1166.89724,0.0107270
1165.93286,0.0105773
1164.96848,0.0105356
1164.00410,0.0105824
1163.03972,0.0105104
1162.07535,0.0103480
1161.11097,0.0101852
1160.14659,0.0101209
1159.18221,0.0101203
1158.21783,0.0100683
1157.25346,0.0099923
1156.28908,0.0099722
1155.32470,0.0099894
1154.36032,0.0098862
1153.39594,0.0097916
1152.43157,0.0097703
1151.46719,0.0096911
1150.50281,0.0096381
1149.53843,0.0095955
1148.57406,0.0095771
1147.60968,0.0095698
1146.64530,0.0095466
1145.68092,0.0094995
1144.71654,0.0093202
1143.75217,0.0092705
1142.78779,0.0093626
1141.82341,0.0092851
1140.85903,0.0091850
1139.89465,0.0091623
1138.93028,0.0091155
1137.96590,0.0090532
1137.00152,0.0089682
1136.03714,0.0088782
1135.07276,0.0088298
1134.10839,0.0088169
1133.14401,0.0088214
1132.17963,0.0087844
1131.21525,0.0087556
1130.25088,0.0087460
1129.28650,0.0086481
1128.32212,0.0086271
1127.35774,0.0086818
1126.39336,0.0086507
1125.42899,0.0086353
1124.46461,0.0085784
1123.50023,0.0084542
1122.53585,0.0084258
1121.57147,0.0084494
1120.60710,0.0084053
1119.64272,0.0083494
1118.67834,0.0083812
1117.71396,0.0083871
1116.74959,0.0082475
1115.78521,0.0081619
1114.82083,0.0081817
1113.85645,0.0080803
1112.89207,0.0079667
1111.92770,0.0079797
1110.96332,0.0080098
1109.99894,0.0079571
1109.03456,0.0078000
1108.07018,0.0077352
1107.10581,0.0077684
1106.14143,0.0078022
1105.17705,0.0078990
1104.21267,0.0078861
1103.24829,0.0077042
1102.28392,0.0075677
1101.31954,0.0075527
1100.35516,0.0074963
1099.39078,0.0073327
1098.42641,0.0072478
1097.46203,0.0072468
1096.49765,0.0072494
1095.53327,0.0073011
1094.56889,0.0073664
1093.60452,0.0073031
1092.64014,0.0071288
1091.67576,0.0070955
1090.71138,0.0071602
1089.74700,0.0071159
1088.78263,0.0070988
1087.81825,0.0071344
1086.85387,0.0070435
1085.88949,0.0069166
1084.92512,0.0068771
1083.96074,0.0068367
1082.99636,0.0067277
1082.03198,0.0066227
1081.06760,0.0066265
1080.10323,0.0066728
1079.13885,0.0066862
1078.17447,0.0066919
1077.21009,0.0066231
1076.24571,0.0064367
1075.28134,0.0063156
1074.31696,0.0064391
1073.35258,0.0065133
1072.38820,0.0063656
1071.42382,0.0062561
1070.45945,0.0062290
1069.49507,0.0063307
1068.53069,0.0064128
1067.56631,0.0063332
1066.60194,0.0062984
1065.63756,0.0061824
1064.67318,0.0060746
1063.70880,0.0061460
1062.74442,0.0062480
1061.78005,0.0064065
1060.81567,0.0065785
1059.85129,0.0069249
1058.88691,0.0076759
1057.92253,0.0086530
1056.95816,0.0095496
1055.99378,0.0102474
1055.02940,0.0108249
1054.06502,0.0112089
1053.10065,0.0113572
1052.13627,0.0111350
1051.17189,0.0105350
1050.20751,0.0100045
1049.24313,0.0095920
1048.27876,0.0092009
1047.31438,0.0088864
1046.35000,0.0085844
1045.38562,0.0083090
1044.42124,0.0080141
1043.45687,0.0076931
1042.49249,0.0074242
1041.52811,0.0072890
1040.56373,0.0072728
1039.59935,0.0071767
1038.63498,0.0069965
1037.67060,0.0067849
1036.70622,0.0065337
1035.74184,0.0063326
1034.77747,0.0061715
1033.81309,0.0060914
1032.84871,0.0061125
1031.88433,0.0060428
1030.91995,0.0058812
1029.95558,0.0058287
1028.99120,0.0058527
1028.02682,0.0057317
1027.06244,0.0055205
1026.09806,0.0054323
1025.13369,0.0055872
1024.16931,0.0060448
1023.20493,0.0067410
1022.24055,0.0079420
1021.27618,0.0097985
1020.31180,0.0117204
1019.34742,0.0130942
1018.38304,0.0135858
1017.41866,0.0133996
1016.45429,0.0129639
1015.48991,0.0123803
1014.52553,0.0117488
1013.56115,0.0111591
1012.59677,0.0106575
1011.63240,0.0101384
1010.66802,0.0096590
1009.70364,0.0093475
1008.73926,0.0089868
1007.77488,0.0087249
1006.81051,0.0085979
1005.84613,0.0083975
1004.88175,0.0083318
1003.91737,0.0082040
1002.95300,0.0078081
1001.98862,0.0075820
1001.02424,0.0075431
1000.05986,0.0074960
999.09548,0.0075689
998.13111,0.0074912
997.16673,0.0071758
996.20235,0.0070272
995.23797,0.0069836
994.27359,0.0068847
993.30922,0.0068491
992.34484,0.0068945
991.38046,0.0069154
990.41608,0.0068329
989.45171,0.0067309
988.48733,0.0067121
987.52295,0.0065906
986.55857,0.0062781
985.59419,0.0061684
984.62982,0.0062879
983.66544,0.0062251
982.70106,0.0060663
981.73668,0.0060668
980.77230,0.0060728
979.80793,0.0059555
978.84355,0.0058956
977.87917,0.0058818
976.91479,0.0057665
975.95041,0.0056467
974.98604,0.0056476
974.02166,0.0056966
973.05728,0.0056267
972.09290,0.0054721
971.12853,0.0053017
970.16415,0.0051888
969.19977,0.0051449
968.23539,0.0050349
967.27101,0.0050345
966.30664,0.0050496
965.34226,0.0049180
964.37788,0.0050590
963.41350,0.0053923
962.44912,0.0056610
961.48475,0.0062188
960.52037,0.0073607
959.55599,0.0091843
958.59161,0.0114977
957.62724,0.0136430
956.66286,0.0148562
955.69848,0.0147085
954.73410,0.0136190
953.76972,0.0124656
952.80535,0.0115082
951.84097,0.0106036
950.87659,0.0098462
949.91221,0.0091924
948.94783,0.0086263
947.98346,0.0084723
947.01908,0.0086430
946.05470,0.0088787
945.09032,0.0093002
944.12594,0.0100047
943.16157,0.0109602
942.19719,0.0119320
941.23281,0.0127595
940.26843,0.0134164
939.30406,0.0136981
938.33968,0.0136361
937.37530,0.0133394
936.41092,0.0129141
935.44654,0.0125136
934.48217,0.0119035
933.51779,0.0111086
932.55341,0.0105338
931.58903,0.0102017
930.62465,0.0098955
929.66028,0.0095270
928.69590,0.0092807
927.73152,0.0092313
926.76714,0.0091753
925.80276,0.0092351
924.83839,0.0097428
923.87401,0.0109191
922.90963,0.0129131
921.94525,0.0155868
920.98088,0.0184334
920.01650,0.0204170
919.05212,0.0206868
918.08774,0.0196760
917.12336,0.0180113
916.15899,0.0161153
915.19461,0.0147137
914.23023,0.0135800
913.26585,0.0124074
912.30147,0.0116336
911.33710,0.0111134
910.37272,0.0108080
909.40834,0.0106013
908.44396,0.0102871
907.47959,0.0104073
906.51521,0.0110070
905.55083,0.0118424
904.58645,0.0128009
903.62207,0.0139425
902.65770,0.0154759
901.69332,0.0170079
900.72894,0.0183803
899.76456,0.0195776
898.80018,0.0204479
897.83581,0.0209714
896.87143,0.0209148
895.90705,0.0202932
894.94267,0.0192714
893.97829,0.0182005
893.01392,0.0173089
892.04954,0.0164076
891.08516,0.0155672
890.12078,0.0148416
889.15641,0.0141751
888.19203,0.0135434
887.22765,0.0129253
886.26327,0.0123533
885.29889,0.0120281
884.33452,0.0119288
883.37014,0.0116212
882.40576,0.0112969
881.44138,0.0110225
880.47700,0.0106564
879.51263,0.0105234
878.54825,0.0104692
877.58387,0.0103855
876.61949,0.0101829
875.65512,0.0098720
874.69074,0.0097090
873.72636,0.0095819
872.76198,0.0095699
871.79760,0.0094031
870.83323,0.0090871
869.86885,0.0090222
868.90447,0.0089962
867.94009,0.0089943
866.97571,0.0088858
866.01134,0.0087376
865.04696,0.0087102
864.08258,0.0085047
863.11820,0.0083543
862.15382,0.0084755
861.18945,0.0085516
860.22507,0.0084398
859.26069,0.0084441
858.29631,0.0084724
857.33194,0.0083236
856.36756,0.0083507
855.40318,0.0084097
854.43880,0.0083285
853.47442,0.0081837
852.51005,0.0079531
851.54567,0.0079016
850.58129,0.0079666
849.61691,0.0079562
848.65253,0.0078520
847.68816,0.0076123
846.72378,0.0074890
845.75940,0.0075449
844.79502,0.0075966
843.83065,0.0076795
842.86627,0.0077023
841.90189,0.0076700
840.93751,0.0076525
839.97313,0.0075237
839.00876,0.0074217
838.04438,0.0073209
837.08000,0.0071631
836.11562,0.0071198
835.15124,0.0071970
834.18687,0.0073430
833.22249,0.0072654
832.25811,0.0069998
831.29373,0.0068988
830.32935,0.0069631
829.36498,0.0070720
828.40060,0.0071462
827.43622,0.0071478
826.47184,0.0070444
825.50747,0.0072239
824.54309,0.0076680
823.57871,0.0079934
822.61433,0.0083963
821.64995,0.0088993
820.68558,0.0097535
819.72120,0.0111685
818.75682,0.0130198
817.79244,0.0149994
816.82806,0.0165518
815.86369,0.0176123
814.89931,0.0179200
813.93493,0.0173360
812.97055,0.0162585
812.00618,0.0151269
811.04180,0.0142369
810.07742,0.0134116
809.11304,0.0127200
808.14866,0.0122613
807.18429,0.0116827
806.21991,0.0111643
805.25553,0.0109999
804.29115,0.0106286
803.32677,0.0101718
802.36240,0.0100183
801.39802,0.0096641
800.43364,0.0093779
799.46926,0.0093350
798.50488,0.0091824
797.54051,0.0089863
796.57613,0.0088172
795.61175,0.0087860
794.64737,0.0086255
793.68300,0.0084143
792.71862,0.0083812
791.75424,0.0082747
790.78986,0.0081045
789.82548,0.0078668
788.86111,0.0078912
787.89673,0.0080886
786.93235,0.0079545
785.96797,0.0078202
785.00359,0.0078914
784.03922,0.0078895
783.07484,0.0077173
782.11046,0.0075753
781.14608,0.0075447
780.18171,0.0075188
779.21733,0.0075020
778.25295,0.0074736
777.28857,0.0074439
776.32419,0.0074606
775.35982,0.0074322
774.39544,0.0073713
773.43106,0.0073277
772.46668,0.0072980
771.50230,0.0072870
770.53793,0.0071874
769.57355,0.0073241
768.60917,0.0075544
767.64479,0.0073380
766.68041,0.0070943
765.71604,0.0069829
764.75166,0.0069654
763.78728,0.0070013
762.82290,0.0070610
761.85853,0.0071660
760.89415,0.0069994
759.92977,0.0069882
758.96539,0.0070077
758.00101,0.0069366
757.03664,0.0070942
756.07226,0.0071263
755.10788,0.0073261
754.14350,0.0072535
753.17912,0.0068647
752.21475,0.0070119
751.25037,0.0072784
750.28599,0.0074438
749.32161,0.0073088
748.35724,0.0069909
747.39286,0.0069590
746.42848,0.0069944
745.46410,0.0070057
744.49972,0.0069271
743.53535,0.0069210
742.57097,0.0071122
741.60659,0.0073649
740.64221,0.0074005
739.67783,0.0070472
738.71346,0.0070745
737.74908,0.0074963
736.78470,0.0077115
735.82032,0.0079509
734.85594,0.0080570
733.89157,0.0081091
732.92719,0.0085339
731.96281,0.0087146
730.99843,0.0086490
730.03406,0.0090050
729.06968,0.0095445
728.10530,0.0099577
727.14092,0.0101599
726.17654,0.0103175
725.21217,0.0106383
724.24779,0.0108732
723.28341,0.0109372
722.31903,0.0110947
721.35465,0.0115307
720.39028,0.0119424
719.42590,0.0121057
718.46152,0.0123380
717.49714,0.0129483
716.53276,0.0139875
715.56839,0.0151527
714.60401,0.0163447
713.63963,0.0176007
712.67525,0.0187520
711.71088,0.0198887
710.74650,0.0210200
709.78212,0.0220116
708.81774,0.0225926
707.85336,0.0226596
706.88899,0.0227715
705.92461,0.0230248
704.96023,0.0232720
703.99585,0.0236582
703.03147,0.0239623
702.06710,0.0239614
701.10272,0.0237458
700.13834,0.0234160
699.17396,0.0229285
698.20959,0.0223416
697.24521,0.0216434
696.28083,0.0208321
695.31645,0.0200197
694.35207,0.0192116
693.38770,0.0186685
692.42332,0.0182317
691.45894,0.0176038
690.49456,0.0170881
689.53018,0.0167158
688.56581,0.0163541
687.60143,0.0160284
686.63705,0.0159190
685.67267,0.0159731
684.70829,0.0158693
683.74392,0.0158553
682.77954,0.0158834
681.81516,0.0157164
680.85078,0.0157729
679.88641,0.0160576
678.92203,0.0162196
677.95765,0.0162507
676.99327,0.0162523
676.02889,0.0162315
675.06452,0.0163334
674.10014,0.0166791
673.13576,0.0169623
672.17138,0.0171835
671.20700,0.0174822
670.24263,0.0177695
669.27825,0.0181329
668.31387,0.0183188
667.34949,0.0182787
666.38512,0.0184460
665.42074,0.0186239
664.45636,0.0187579
663.49198,0.0189544
662.52760,0.0192765
661.56323,0.0195316
660.59885,0.0196588
659.63447,0.0199265
658.67009,0.0201226
657.70571,0.0202659
656.74134,0.0204172
655.77696,0.0205209
654.81258,0.0205885
653.84820,0.0205179
652.88382,0.0207552
651.91945,0.0211523
650.95507,0.0213617
649.99069,0.0214977
649.02631,0.0215208
648.06194,0.0216358
647.09756,0.0217207
646.13318,0.0217005
645.16880,0.0216755
644.20442,0.0217805
643.24005,0.0220481
642.27567,0.0220673
641.31129,0.0218727
640.34691,0.0216630
639.38253,0.0217036
638.41816,0.0219533
637.45378,0.0221739
636.48940,0.0222933
635.52502,0.0220713
634.56065,0.0218839
633.59627,0.0218102
632.63189,0.0218577
631.66751,0.0222501
630.70313,0.0225522
629.73876,0.0227379
628.77438,0.0229547
627.81000,0.0232591
626.84562,0.0237749
625.88124,0.0240686
624.91687,0.0236644
623.95249,0.0225731
622.98811,0.0219357
622.02373,0.0220782
621.05935,0.0205071
620.09498,0.0175794
619.13060,0.0199273
618.16622,0.0234489
617.20184,0.0208130
616.23747,0.0188927
615.27309,0.0204566
614.30871,0.0199955
613.34433,0.0155838
612.37995,0.0128064
611.41558,0.0144275
610.45120,0.0195098
609.48682,0.0235484
608.52244,0.0203555
607.55806,0.0182038
606.59369,0.0202755
605.62931,0.0224748
604.66493,0.0225933
603.70055,0.0209215
602.73618,0.0201203
601.77180,0.0190297
600.80742,0.0195701
599.84304,0.0209190
598.87866,0.0206944
597.91429,0.0207086
596.94991,0.0211555
595.98553,0.0208435
595.02115,0.0199230
594.05677,0.0195581
593.09240,0.0193130
592.12802,0.0183643
591.16364,0.0177571
590.19926,0.0175363
589.23488,0.0167341
588.27051,0.0158413
587.30613,0.0157859
586.34175,0.0159511
585.37737,0.0159677
584.41300,0.0159869
583.44862,0.0156143
582.48424,0.0154206
581.51986,0.0156536
580.55548,0.0158024
579.59111,0.0157592
578.62673,0.0155062
577.66235,0.0154990
576.69797,0.0156660
575.73359,0.0154341
574.76922,0.0150152
573.80484,0.0147908
572.84046,0.0149265
571.87608,0.0152116
570.91171,0.0151747
569.94733,0.0149527
568.98295,0.0148599
568.01857,0.0148793
567.05419,0.0149359
566.08982,0.0149371
565.12544,0.0153756
564.16106,0.0158409
563.19668,0.0153766
562.23230,0.0151341
561.26793,0.0154493
560.30355,0.0154935
559.33917,0.0156065
558.37479,0.0158330
557.41041,0.0164061
556.44604,0.0173715
555.48166,0.0185989
554.51728,0.0209369
553.55290,0.0240306
552.58853,0.0268267
551.62415,0.0294585
550.65977,0.0318872
549.69539,0.0329942
548.73101,0.0329038
547.76664,0.0328648
546.80226,0.0324679
545.83788,0.0315943
544.87350,0.0306121
543.90912,0.0291544
542.94475,0.0277142
541.98037,0.0264424
541.01599,0.0253621
540.05161,0.0244905
539.08724,0.0234352
538.12286,0.0225959
537.15848,0.0222423
536.19410,0.0223085
535.22972,0.0223375
534.26535,0.0217198
533.30097,0.0206009
532.33659,0.0198956
531.37221,0.0197314
530.40783,0.0192559
529.44346,0.0187384
528.47908,0.0181842
527.51470,0.0179676
526.55032,0.0182675
525.58594,0.0180445
524.62157,0.0180987
523.65719,0.0179505
522.69281,0.0172918
521.72843,0.0175151
520.76406,0.0174519
519.79968,0.0167862
518.83530,0.0163458
517.87092,0.0162609
516.90654,0.0163957
515.94217,0.0161369
514.97779,0.0159607
514.01341,0.0157925
513.04903,0.0156768
512.08465,0.0158846
511.12028,0.0153054
510.15590,0.0146271
509.19152,0.0147207
508.22714,0.0148085
507.26276,0.0146976
506.29839,0.0145624
505.33401,0.0145107
504.36963,0.0143709
503.40525,0.0144268
502.44088,0.0148304
501.47650,0.0148530
500.51212,0.0147947
499.54774,0.0154044
498.58336,0.0164812
497.61899,0.0177751
496.65461,0.0200184
495.69023,0.0228111
494.72585,0.0245545
493.76147,0.0252650
492.79710,0.0250528
491.83272,0.0242718
490.86834,0.0234819
489.90396,0.0221485
488.93959,0.0207539
487.97521,0.0200813
487.01083,0.0199432
486.04645,0.0195904
485.08207,0.0189150
484.11770,0.0181606
483.15332,0.0170769
482.18894,0.0162592
481.22456,0.0159072
480.26018,0.0154667
479.29581,0.0147737
478.33143,0.0141723
477.36705,0.0139020
476.40267,0.0137709
475.43829,0.0136990
474.47392,0.0132866
473.50954,0.0132920
472.54516,0.0139401
471.58078,0.0137084
470.61641,0.0130101
469.65203,0.0126201
468.68765,0.0125364
467.72327,0.0126870
466.75889,0.0126814
465.79452,0.0127012
464.83014,0.0125463
463.86576,0.0122037
462.90138,0.0122894
461.93700,0.0122991
460.97263,0.0118773
460.00825,0.0117040
459.04387,0.0118037
458.07949,0.0120057
457.11512,0.0123208
456.15074,0.0124706
455.18636,0.0123888
454.22198,0.0124629
453.25760,0.0132319
452.29323,0.0137426
451.32885,0.0136553
450.36447,0.0144870
449.40009,0.0162577
448.43571,0.0186790
447.47134,0.0221117
446.50696,0.0267042
445.54258,0.0322349
444.57820,0.0371722
443.61382,0.0398448
442.64945,0.0399016
441.68507,0.0380604
440.72069,0.0353537
439.75631,0.0327447
438.79194,0.0303820
437.82756,0.0280041
436.86318,0.0260290
435.89880,0.0246962
434.93442,0.0234958
433.97005,0.0224833
433.00567,0.0218164
432.04129,0.0212095
431.07691,0.0206964
430.11253,0.0202848
429.14816,0.0201275
428.18378,0.0201470
427.21940,0.0198797
426.25502,0.0197529
425.29065,0.0195350
424.32627,0.0189224
423.36189,0.0187886
422.39751,0.0188507
421.43313,0.0188598
420.46876,0.0190520
419.50438,0.0190777
418.54000,0.0190366
417.57562,0.0190315
416.61124,0.0192400
415.64687,0.0194705
414.68249,0.0193736
413.71811,0.0196481
412.75373,0.0202271
411.78935,0.0205137
410.82498,0.0207855
409.86060,0.0211970
408.89622,0.0215899
407.93184,0.0218163
406.96747,0.0221805
406.00309,0.0229115
405.03871,0.0237941
404.07433,0.0250495
403.10995,0.0262676
402.14558,0.0272039
401.18120,0.0286100
400.21682,0.0304550
399.25244,0.0325951
