3998.31069,0.0018128
3997.34631,0.0022121
3996.38194,0.0025056
3995.41756,0.0023382
3994.45318,0.0021141
3993.48880,0.0018914
3992.52442,0.0018926
3991.56005,0.0018403
3990.59567,0.0018216
3989.63129,0.0019427
3988.66691,0.0018108
3987.70253,0.0016338
3986.73816,0.0017394
3985.77378,0.0021667
3984.80940,0.0023364
3983.84502,0.0022088
3982.88065,0.0021135
3981.91627,0.0021478
3980.95189,0.0022710
3979.98751,0.0020315
3979.02313,0.0018157
3978.05876,0.0015167
3977.09438,0.0011540
3976.13000,0.0015298
3975.16562,0.0020814
3974.20124,0.0022667
3973.23687,0.0022526
3972.27249,0.0024209
3971.30811,0.0024577
3970.34373,0.0021076
3969.37935,0.0020562
3968.41498,0.0019917
3967.45060,0.0018299
3966.48622,0.0019956
3965.52184,0.0023529
3964.55747,0.0023042
3963.59309,0.0016856
3962.62871,0.0015328
3961.66433,0.0016284
3960.69995,0.0016628
3959.73558,0.0018150
3958.77120,0.0016836
3957.80682,0.0017588
3956.84244,0.0017678
3955.87806,0.0018193
3954.91369,0.0021445
3953.94931,0.0019032
3952.98493,0.0018792
3952.02055,0.0019644
3951.05618,0.0016748
3950.09180,0.0016275
3949.12742,0.0014841
3948.16304,0.0015327
3947.19866,0.0018057
3946.23429,0.0016037
3945.26991,0.0012958
3944.30553,0.0014700
3943.34115,0.0017983
3942.37677,0.0018296
3941.41240,0.0019479
3940.44802,0.0019582
3939.48364,0.0016863
3938.51926,0.0016849
3937.55488,0.0017312
3936.59051,0.0016073
3935.62613,0.0016976
3934.66175,0.0018439
3933.69737,0.0017399
3932.73300,0.0018889
3931.76862,0.0019885
3930.80424,0.0016854
3929.83986,0.0018041
3928.87548,0.0020125
3927.91111,0.0019361
3926.94673,0.0018801
3925.98235,0.0017227
3925.01797,0.0017304
3924.05359,0.0018756
3923.08922,0.0018951
3922.12484,0.0020315
3921.16046,0.0022384
3920.19608,0.0021321
3919.23171,0.0017977
3918.26733,0.0014182
3917.30295,0.0009902
3916.33857,0.0011525
3915.37419,0.0019126
3914.40982,0.0022668
3913.44544,0.0021092
3912.48106,0.0019939
3911.51668,0.0021063
3910.55230,0.0020671
3909.58793,0.0017442
3908.62355,0.0016587
3907.65917,0.0017516
3906.69479,0.0017526
3905.73041,0.0015440
3904.76604,0.0013160
3903.80166,0.0012911
3902.83728,0.0007429
3901.87290,0.0005663
3900.90853,0.0013362
3899.94415,0.0012792
3898.97977,0.0009621
3898.01539,0.0012451
3897.05101,0.0014246
3896.08664,0.0017158
3895.12226,0.0018152
3894.15788,0.0016204
3893.19350,0.0015031
3892.22912,0.0010829
3891.26475,0.0010005
3890.30037,0.0015674
3889.33599,0.0017515
3888.37161,0.0016142
3887.40724,0.0013551
3886.44286,0.0008540
3885.47848,0.0007510
3884.51410,0.0012027
3883.54972,0.0015256
3882.58535,0.0012271
3881.62097,0.0005134
3880.65659,0.0001322
3879.69221,0.0006595
3878.72783,0.0013491
3877.76346,0.0014811
3876.79908,0.0013041
3875.83470,0.0009139
3874.87032,0.0008741
3873.90594,0.0010752
3872.94157,0.0009790
3871.97719,0.0010066
3871.01281,0.0009053
3870.04843,0.0008129
3869.08406,0.0012183
3868.11968,0.0015787
3867.15530,0.0015959
3866.19092,0.0013784
3865.22654,0.0010747
3864.26217,0.0012088
3863.29779,0.0014554
3862.33341,0.0013335
3861.36903,0.0014592
3860.40465,0.0013019
3859.44028,0.0012384
3858.47590,0.0016926
3857.51152,0.0015457
3856.54714,0.0012863
3855.58276,0.0003989
3854.61839,-0.0005175
3853.65401,0.0000496
3852.68963,0.0004210
3851.72525,0.0008100
3850.76088,0.0011673
3849.79650,0.0012653
3848.83212,0.0016619
3847.86774,0.0017438
3846.90336,0.0014549
3845.93899,0.0015096
3844.97461,0.0018822
3844.01023,0.0016080
3843.04585,0.0012963
3842.08147,0.0013241
3841.11710,0.0010108
3840.15272,0.0007741
3839.18834,0.0004369
3838.22396,0.0003791
3837.25959,0.0009577
3836.29521,0.0010484
3835.33083,0.0008338
3834.36645,0.0014102
3833.40207,0.0019835
3832.43770,0.0014749
3831.47332,0.0012045
3830.50894,0.0014896
3829.54456,0.0016344
3828.58018,0.0018166
3827.61581,0.0016392
3826.65143,0.0013199
3825.68705,0.0013176
3824.72267,0.0012500
3823.75829,0.0010535
3822.79392,0.0008026
3821.82954,0.0004252
3820.86516,0.0005857
3819.90078,0.0011778
3818.93641,0.0014172
3817.97203,0.0014108
3817.00765,0.0009992
3816.04327,0.0006500
3815.07889,0.0012381
3814.11452,0.0019031
3813.15014,0.0017831
3812.18576,0.0015529
3811.22138,0.0013702
3810.25700,0.0007805
3809.29263,0.0008215
3808.32825,0.0009944
3807.36387,0.0007506
3806.39949,0.0011930
3805.43512,0.0018279
3804.47074,0.0020799
3803.50636,0.0014266
3802.54198,0.0004096
3801.57760,0.0003274
3800.61323,0.0010277
3799.64885,0.0017432
3798.68447,0.0017233
3797.72009,0.0014964
3796.75571,0.0017357
3795.79134,0.0019677
3794.82696,0.0015719
3793.86258,0.0009670
3792.89820,0.0011444
3791.93382,0.0014289
3790.96945,0.0014714
3790.00507,0.0014167
3789.04069,0.0012887
3788.07631,0.0011286
3787.11194,0.0007627
3786.14756,0.0008844
3785.18318,0.0011368
3784.21880,0.0014659
3783.25442,0.0019418
3782.29005,0.0020006
3781.32567,0.0021512
3780.36129,0.0016906
3779.39691,0.0010190
3778.43253,0.0011784
3777.46816,0.0010870
3776.50378,0.0007443
3775.53940,0.0009010
3774.57502,0.0014257
3773.61065,0.0016160
3772.64627,0.0015541
3771.68189,0.0015799
3770.71751,0.0015167
3769.75313,0.0013781
3768.78876,0.0012572
3767.82438,0.0014289
3766.86000,0.0013549
3765.89562,0.0011252
3764.93124,0.0013885
3763.96687,0.0014956
3763.00249,0.0013759
3762.03811,0.0014580
3761.07373,0.0018166
3760.10935,0.0019430
3759.14498,0.0017488
3758.18060,0.0014544
3757.21622,0.0012545
3756.25184,0.0016969
3755.28747,0.0018602
3754.32309,0.0015258
3753.35871,0.0008548
3752.39433,0.0005466
3751.42995,0.0013481
3750.46558,0.0006971
3749.50120,-0.0001973
3748.53682,0.0008136
3747.57244,0.0016039
3746.60806,0.0016456
3745.64369,0.0006462
3744.67931,-0.0000425
3743.71493,0.0010386
3742.75055,0.0016088
3741.78618,0.0014317
3740.82180,0.0014677
3739.85742,0.0016489
3738.89304,0.0017604
3737.92866,0.0015152
3736.96429,0.0010300
3735.99991,0.0010681
3735.03553,0.0014758
3734.07115,0.0014182
3733.10677,0.0008505
3732.14240,0.0006004
3731.17802,0.0010744
3730.21364,0.0015753
3729.24926,0.0018147
3728.28488,0.0016358
3727.32051,0.0015367
3726.35613,0.0017120
3725.39175,0.0014592
3724.42737,0.0012630
3723.46300,0.0011731
3722.49862,0.0012813
3721.53424,0.0015349
3720.56986,0.0014181
3719.60548,0.0015089
3718.64111,0.0017801
3717.67673,0.0020257
3716.71235,0.0018927
3715.74797,0.0015136
3714.78359,0.0013705
3713.81922,0.0008876
3712.85484,0.0005960
3711.89046,0.0011756
3710.92608,0.0015930
3709.96171,0.0013166
3708.99733,0.0015127
3708.03295,0.0019548
3707.06857,0.0017499
3706.10419,0.0018542
3705.13982,0.0019726
3704.17544,0.0019458
3703.21106,0.0020008
3702.24668,0.0015696
3701.28230,0.0015038
3700.31793,0.0020985
3699.35355,0.0025244
3698.38917,0.0022694
3697.42479,0.0017943
3696.46041,0.0019233
3695.49604,0.0022203
3694.53166,0.0020616
3693.56728,0.0018701
3692.60290,0.0018343
3691.63853,0.0017287
3690.67415,0.0018213
3689.70977,0.0014795
3688.74539,0.0009293
3687.78101,0.0014288
3686.81664,0.0020772
3685.85226,0.0022618
3684.88788,0.0022216
3683.92350,0.0022039
3682.95912,0.0021927
3681.99475,0.0020870
3681.03037,0.0021568
3680.06599,0.0022157
3679.10161,0.0021312
3678.13724,0.0018152
3677.17286,0.0010704
3676.20848,0.0003762
3675.24410,0.0008102
3674.27972,0.0018315
3673.31535,0.0020245
3672.35097,0.0012404
3671.38659,0.0004469
3670.42221,0.0008852
3669.45783,0.0015165
3668.49346,0.0018960
3667.52908,0.0023614
3666.56470,0.0021161
3665.60032,0.0021869
3664.63594,0.0025745
3663.67157,0.0023785
3662.70719,0.0020547
3661.74281,0.0019643
3660.77843,0.0023694
3659.81406,0.0026444
3658.84968,0.0025968
3657.88530,0.0021851
3656.92092,0.0018939
3655.95654,0.0025827
3654.99217,0.0030022
3654.02779,0.0030596
3653.06341,0.0034726
3652.09903,0.0035190
3651.13465,0.0028528
3650.17028,0.0023984
3649.20590,0.0025036
3648.24152,0.0027716
3647.27714,0.0038088
3646.31276,0.0052237
3645.34839,0.0056287
3644.38401,0.0052863
3643.41963,0.0052076
3642.45525,0.0051981
3641.49088,0.0050962
3640.52650,0.0052202
3639.56212,0.0052272
3638.59774,0.0054365
3637.63336,0.0054629
3636.66899,0.0054240
3635.70461,0.0063407
3634.74023,0.0068586
3633.77585,0.0067897
3632.81147,0.0070377
3631.84710,0.0072957
3630.88272,0.0074024
3629.91834,0.0070836
3628.95396,0.0070765
3627.98959,0.0080531
3627.02521,0.0089963
3626.06083,0.0091258
3625.09645,0.0088978
3624.13207,0.0089569
3623.16770,0.0094533
3622.20332,0.0100856
3621.23894,0.0102267
3620.27456,0.0100929
3619.31018,0.0100779
3618.34581,0.0103763
3617.38143,0.0107510
3616.41705,0.0107083
3615.45267,0.0108539
3614.48829,0.0110234
3613.52392,0.0110206
3612.55954,0.0115967
3611.59516,0.0121900
3610.63078,0.0120793
3609.66641,0.0119421
3608.70203,0.0124429
3607.73765,0.0129170
3606.77327,0.0132262
3605.80889,0.0135845
3604.84452,0.0136811
3603.88014,0.0138520
3602.91576,0.0140446
3601.95138,0.0142952
3600.98700,0.0147120
3600.02263,0.0147817
3599.05825,0.0148802
3598.09387,0.0151711
3597.12949,0.0153223
3596.16512,0.0153877
3595.20074,0.0154847
3594.23636,0.0158682
3593.27198,0.0162892
3592.30760,0.0164166
3591.34323,0.0164849
3590.37885,0.0166972
3589.41447,0.0171140
3588.45009,0.0173361
3587.48571,0.0172415
3586.52134,0.0174207
3585.55696,0.0178057
3584.59258,0.0181115
3583.62820,0.0184000
3582.66382,0.0188979
3581.69945,0.0193998
3580.73507,0.0193100
3579.77069,0.0194062
3578.80631,0.0200149
3577.84194,0.0203738
3576.87756,0.0204325
3575.91318,0.0203964
3574.94880,0.0207079
3573.98442,0.0209917
3573.02005,0.0210583
3572.05567,0.0213871
3571.09129,0.0217021
3570.12691,0.0221212
3569.16253,0.0223195
3568.19816,0.0220939
3567.23378,0.0220648
3566.26940,0.0223913
3565.30502,0.0228531
3564.34065,0.0228731
3563.37627,0.0228387
3562.41189,0.0231938
3561.44751,0.0237845
3560.48313,0.0244868
3559.51876,0.0247471
3558.55438,0.0249865
3557.59000,0.0254436
3556.62562,0.0255693
3555.66124,0.0255964
3554.69687,0.0258086
3553.73249,0.0260606
3552.76811,0.0261912
3551.80373,0.0264624
3550.83935,0.0270132
3549.87498,0.0274254
3548.91060,0.0275046
3547.94622,0.0277097
3546.98184,0.0280989
3546.01747,0.0281034
3545.05309,0.0281282
3544.08871,0.0285958
3543.12433,0.0290598
3542.15995,0.0292944
3541.19558,0.0292910
3540.23120,0.0292842
3539.26682,0.0296718
3538.30244,0.0302520
3537.33806,0.0303719
3536.37369,0.0304530
3535.40931,0.0310360
3534.44493,0.0313086
3533.48055,0.0313905
3532.51618,0.0317754
3531.55180,0.0318978
3530.58742,0.0320027
3529.62304,0.0322609
3528.65866,0.0323994
3527.69429,0.0328100
3526.72991,0.0332956
3525.76553,0.0335838
3524.80115,0.0337299
3523.83677,0.0337227
3522.87240,0.0339791
3521.90802,0.0340951
3520.94364,0.0339131
3519.97926,0.0343697
3519.01488,0.0348888
3518.05051,0.0348682
3517.08613,0.0351875
3516.12175,0.0357217
3515.15737,0.0360196
3514.19300,0.0363194
3513.22862,0.0363559
3512.26424,0.0361773
3511.29986,0.0364340
3510.33548,0.0370247
3509.37111,0.0372856
3508.40673,0.0376010
3507.44235,0.0381452
3506.47797,0.0379959
3505.51359,0.0378989
3504.54922,0.0384726
3503.58484,0.0388338
3502.62046,0.0389001
3501.65608,0.0389226
3500.69171,0.0392374
3499.72733,0.0395379
3498.76295,0.0396483
3497.79857,0.0399949
3496.83419,0.0401049
3495.86982,0.0401807
3494.90544,0.0404046
3493.94106,0.0405689
3492.97668,0.0409305
3492.01230,0.0411444
3491.04793,0.0414644
3490.08355,0.0419698
3489.11917,0.0418767
3488.15479,0.0416373
3487.19041,0.0419704
3486.22604,0.0423747
3485.26166,0.0424646
3484.29728,0.0426681
3483.33290,0.0429669
3482.36853,0.0430343
3481.40415,0.0430692
3480.43977,0.0432784
3479.47539,0.0437699
3478.51101,0.0444049
3477.54664,0.0448292
3476.58226,0.0449352
3475.61788,0.0448142
3474.65350,0.0449460
3473.68912,0.0452765
3472.72475,0.0452795
3471.76037,0.0452976
3470.79599,0.0454092
3469.83161,0.0454994
3468.86724,0.0457237
3467.90286,0.0460099
3466.93848,0.0463801
3465.97410,0.0464362
3465.00972,0.0464402
3464.04535,0.0468521
3463.08097,0.0470217
3462.11659,0.0470494
3461.15221,0.0473661
3460.18783,0.0477818
3459.22346,0.0479840
3458.25908,0.0479991
3457.29470,0.0482669
3456.33032,0.0485502
3455.36594,0.0485428
3454.40157,0.0485017
3453.43719,0.0485932
3452.47281,0.0488677
3451.50843,0.0490756
3450.54406,0.0490898
3449.57968,0.0491854
3448.61530,0.0493568
3447.65092,0.0495963
3446.68654,0.0497890
3445.72217,0.0498336
3444.75779,0.0502458
3443.79341,0.0506807
3442.82903,0.0507444
3441.86465,0.0509755
3440.90028,0.0511470
3439.93590,0.0510689
3438.97152,0.0510389
3438.00714,0.0512983
3437.04276,0.0515225
3436.07839,0.0512488
3435.11401,0.0512461
3434.14963,0.0516379
3433.18525,0.0519535
3432.22088,0.0521628
3431.25650,0.0521015
3430.29212,0.0521937
3429.32774,0.0525075
3428.36336,0.0527957
3427.39899,0.0529588
3426.43461,0.0528440
3425.47023,0.0528985
3424.50585,0.0530073
3423.54147,0.0530973
3422.57710,0.0535720
3421.61272,0.0538238
3420.64834,0.0536043
3419.68396,0.0534537
3418.71959,0.0534618
3417.75521,0.0535260
3416.79083,0.0536069
3415.82645,0.0538224
3414.86207,0.0542752
3413.89770,0.0546024
3412.93332,0.0544565
3411.96894,0.0542325
3411.00456,0.0543974
3410.04018,0.0545364
3409.07581,0.0544164
3408.11143,0.0544558
3407.14705,0.0544680
3406.18267,0.0542305
3405.21829,0.0542603
3404.25392,0.0546395
3403.28954,0.0548441
3402.32516,0.0549477
3401.36078,0.0551399
3400.39641,0.0552015
3399.43203,0.0553081
3398.46765,0.0554343
3397.50327,0.0554180
3396.53889,0.0554410
3395.57452,0.0554307
3394.61014,0.0554536
3393.64576,0.0554711
3392.68138,0.0553563
3391.71700,0.0553246
3390.75263,0.0553839
3389.78825,0.0554531
3388.82387,0.0554301
3387.85949,0.0552010
3386.89512,0.0549476
3385.93074,0.0550136
3384.96636,0.0552861
3384.00198,0.0554520
3383.03760,0.0555948
3382.07323,0.0556953
3381.10885,0.0557837
3380.14447,0.0558428
3379.18009,0.0558454
3378.21571,0.0557877
3377.25134,0.0552703
3376.28696,0.0549036
3375.32258,0.0552613
3374.35820,0.0556192
3373.39382,0.0557758
3372.42945,0.0556779
3371.46507,0.0554438
3370.50069,0.0554947
3369.53631,0.0554003
3368.57194,0.0551637
3367.60756,0.0550424
3366.64318,0.0548123
3365.67880,0.0547112
3364.71442,0.0546863
3363.75005,0.0546436
3362.78567,0.0547588
3361.82129,0.0549093
3360.85691,0.0551068
3359.89253,0.0550555
3358.92816,0.0547409
3357.96378,0.0545613
3356.99940,0.0545116
3356.03502,0.0545422
3355.07065,0.0544130
3354.10627,0.0542236
3353.14189,0.0541148
3352.17751,0.0540177
3351.21313,0.0540982
3350.24876,0.0540013
3349.28438,0.0537749
3348.32000,0.0537315
3347.35562,0.0535827
3346.39124,0.0535611
3345.42687,0.0537949
3344.46249,0.0537229
3343.49811,0.0534378
3342.53373,0.0533995
3341.56935,0.0532962
3340.60498,0.0529377
3339.64060,0.0526792
3338.67622,0.0526575
3337.71184,0.0526506
3336.74747,0.0525049
3335.78309,0.0524180
3334.81871,0.0522146
3333.85433,0.0518899
3332.88995,0.0519807
3331.92558,0.0522629
3330.96120,0.0522394
3329.99682,0.0520620
3329.03244,0.0519259
3328.06806,0.0517172
3327.10369,0.0516747
3326.13931,0.0518427
3325.17493,0.0517674
3324.21055,0.0515202
3323.24618,0.0513185
3322.28180,0.0512592
3321.31742,0.0512381
3320.35304,0.0511856
3319.38866,0.0510793
3318.42429,0.0508387
3317.45991,0.0509055
3316.49553,0.0509579
3315.53115,0.0508505
3314.56677,0.0509257
3313.60240,0.0506819
3312.63802,0.0505107
3311.67364,0.0505545
3310.70926,0.0504336
3309.74488,0.0503739
3308.78051,0.0502543
3307.81613,0.0503758
3306.85175,0.0507742
3305.88737,0.0509309
3304.92300,0.0506307
3303.95862,0.0500275
3302.99424,0.0497309
3302.02986,0.0497382
3301.06548,0.0496954
3300.10111,0.0496099
3299.13673,0.0496147
3298.17235,0.0495980
3297.20797,0.0494487
3296.24359,0.0494394
3295.27922,0.0495117
3294.31484,0.0495961
3293.35046,0.0494799
3292.38608,0.0492135
3291.42171,0.0491860
3290.45733,0.0489340
3289.49295,0.0487495
3288.52857,0.0488754
3287.56419,0.0486494
3286.59982,0.0484575
3285.63544,0.0484642
3284.67106,0.0482288
3283.70668,0.0478983
3282.74230,0.0476787
3281.77793,0.0476737
3280.81355,0.0481103
3279.84917,0.0484199
3278.88479,0.0481198
3277.92041,0.0480234
3276.95604,0.0478324
3275.99166,0.0472997
3275.02728,0.0472787
3274.06290,0.0473078
3273.09853,0.0474145
3272.13415,0.0478850
3271.16977,0.0479703
3270.20539,0.0475390
3269.24101,0.0470942
3268.27664,0.0470615
3267.31226,0.0469849
3266.34788,0.0467000
3265.38350,0.0467168
3264.41912,0.0467106
3263.45475,0.0465178
3262.49037,0.0465517
3261.52599,0.0465568
3260.56161,0.0461340
3259.59724,0.0460701
3258.63286,0.0464351
3257.66848,0.0463631
3256.70410,0.0461989
3255.73972,0.0459492
3254.77535,0.0454599
3253.81097,0.0451358
3252.84659,0.0448828
3251.88221,0.0447593
3250.91783,0.0448534
3249.95346,0.0448982
3248.98908,0.0448149
3248.02470,0.0449810
3247.06032,0.0452130
3246.09594,0.0450166
3245.13157,0.0447095
3244.16719,0.0444668
3243.20281,0.0442984
3242.23843,0.0441557
3241.27406,0.0438597
3240.30968,0.0436080
3239.34530,0.0434090
3238.38092,0.0431439
3237.41654,0.0430921
3236.45217,0.0431882
3235.48779,0.0431565
3234.52341,0.0434108
3233.55903,0.0435879
3232.59465,0.0431990
3231.63028,0.0428280
3230.66590,0.0425247
3229.70152,0.0422971
3228.73714,0.0420863
3227.77276,0.0418783
3226.80839,0.0418798
3225.84401,0.0417132
3224.87963,0.0414928
3223.91525,0.0412956
3222.95088,0.0411263
3221.98650,0.0410118
3221.02212,0.0406414
3220.05774,0.0405755
3219.09336,0.0407709
3218.12899,0.0404938
3217.16461,0.0402627
3216.20023,0.0403967
3215.23585,0.0402576
3214.27147,0.0399245
3213.30710,0.0398124
3212.34272,0.0396112
3211.37834,0.0393685
3210.41396,0.0393905
3209.44959,0.0393089
3208.48521,0.0390305
3207.52083,0.0388609
3206.55645,0.0387355
3205.59207,0.0386382
3204.62770,0.0385909
3203.66332,0.0385908
3202.69894,0.0385400
3201.73456,0.0382188
3200.77018,0.0380840
3199.80581,0.0382503
3198.84143,0.0381343
3197.87705,0.0377303
3196.91267,0.0374781
3195.94829,0.0374195
3194.98392,0.0372780
3194.01954,0.0371899
3193.05516,0.0370078
3192.09078,0.0367236
3191.12641,0.0366085
3190.16203,0.0365992
3189.19765,0.0368091
3188.23327,0.0367108
3187.26889,0.0363478
3186.30452,0.0361419
3185.34014,0.0357755
3184.37576,0.0355696
3183.41138,0.0355941
3182.44700,0.0355791
3181.48263,0.0354319
3180.51825,0.0353895
3179.55387,0.0354463
3178.58949,0.0351232
3177.62512,0.0348585
3176.66074,0.0346982
3175.69636,0.0345035
3174.73198,0.0344733
3173.76760,0.0343979
3172.80323,0.0344121
3171.83885,0.0345380
3170.87447,0.0346155
3169.91009,0.0344103
3168.94571,0.0340149
3167.98134,0.0338020
3167.01696,0.0336296
3166.05258,0.0334584
3165.08820,0.0333640
3164.12382,0.0333206
3163.15945,0.0332460
3162.19507,0.0332432
3161.23069,0.0332722
3160.26631,0.0331649
3159.30194,0.0332362
3158.33756,0.0332481
3157.37318,0.0330794
3156.40880,0.0331221
3155.44442,0.0330475
3154.48005,0.0328067
3153.51567,0.0329147
3152.55129,0.0330965
3151.58691,0.0328328
3150.62253,0.0325976
3149.65816,0.0326997
3148.69378,0.0327893
3147.72940,0.0328118
3146.76502,0.0326815
3145.80065,0.0324234
3144.83627,0.0323541
3143.87189,0.0325785
3142.90751,0.0327356
3141.94313,0.0325850
3140.97876,0.0325478
3140.01438,0.0327213
3139.05000,0.0328688
3138.08562,0.0328843
3137.12124,0.0327479
3136.15687,0.0326798
3135.19249,0.0326192
3134.22811,0.0325717
3133.26373,0.0326256
3132.29935,0.0326522
3131.33498,0.0327369
3130.37060,0.0326421
3129.40622,0.0323612
3128.44184,0.0323274
3127.47747,0.0324547
3126.51309,0.0326653
3125.54871,0.0328776
3124.58433,0.0329287
3123.61995,0.0329693
3122.65558,0.0331781
3121.69120,0.0335572
3120.72682,0.0336797
3119.76244,0.0334114
3118.79806,0.0333094
3117.83369,0.0335159
3116.86931,0.0337438
3115.90493,0.0337522
3114.94055,0.0334977
3113.97618,0.0334302
3113.01180,0.0337214
3112.04742,0.0339090
3111.08304,0.0340166
3110.11866,0.0343029
3109.15429,0.0344769
3108.18991,0.0345141
3107.22553,0.0344818
3106.26115,0.0344457
3105.29677,0.0347434
3104.33240,0.0350305
3103.36802,0.0353071
3102.40364,0.0356572
3101.43926,0.0355689
3100.47488,0.0356082
3099.51051,0.0359928
3098.54613,0.0363040
3097.58175,0.0365270
3096.61737,0.0365203
3095.65300,0.0365554
3094.68862,0.0367164
3093.72424,0.0369262
3092.75986,0.0371217
3091.79548,0.0372616
3090.83111,0.0377201
3089.86673,0.0381690
3088.90235,0.0383326
3087.93797,0.0384406
3086.97359,0.0385956
3086.00922,0.0388216
3085.04484,0.0389666
3084.08046,0.0392751
3083.11608,0.0396936
3082.15171,0.0399238
3081.18733,0.0401009
3080.22295,0.0401557
3079.25857,0.0402911
3078.29419,0.0407437
3077.32982,0.0411188
3076.36544,0.0412166
3075.40106,0.0413534
3074.43668,0.0416120
3073.47230,0.0417224
3072.50793,0.0418313
3071.54355,0.0421008
3070.57917,0.0423003
3069.61479,0.0425903
3068.65041,0.0430806
3067.68604,0.0435270
3066.72166,0.0437416
3065.75728,0.0437279
3064.79290,0.0439148
3063.82853,0.0441778
3062.86415,0.0444308
3061.89977,0.0449378
3060.93539,0.0451284
3059.97101,0.0452323
3059.00664,0.0456244
3058.04226,0.0458299
3057.07788,0.0459822
3056.11350,0.0462150
3055.14912,0.0465152
3054.18475,0.0468302
3053.22037,0.0471189
3052.25599,0.0474636
3051.29161,0.0477420
3050.32724,0.0479605
3049.36286,0.0481101
3048.39848,0.0483359
3047.43410,0.0487229
3046.46972,0.0491938
3045.50535,0.0496560
3044.54097,0.0498674
3043.57659,0.0502239
3042.61221,0.0507543
3041.64783,0.0508136
3040.68346,0.0508550
3039.71908,0.0514141
3038.75470,0.0518979
3037.79032,0.0520577
3036.82594,0.0522969
3035.86157,0.0527377
3034.89719,0.0533261
3033.93281,0.0538274
3032.96843,0.0542068
3032.00406,0.0546589
3031.03968,0.0549318
3030.07530,0.0551695
3029.11092,0.0557133
3028.14654,0.0561613
3027.18217,0.0564430
3026.21779,0.0568125
3025.25341,0.0570774
3024.28903,0.0573526
3023.32465,0.0578383
3022.36028,0.0582154
3021.39590,0.0583781
3020.43152,0.0586510
3019.46714,0.0591308
3018.50276,0.0594869
3017.53839,0.0596269
3016.57401,0.0597131
3015.60963,0.0597934
3014.64525,0.0599880
3013.68088,0.0601354
3012.71650,0.0600484
3011.75212,0.0598951
3010.78774,0.0598157
3009.82336,0.0598761
3008.85899,0.0597215
3007.89461,0.0591919
3006.93023,0.0587719
3005.96585,0.0582839
3005.00147,0.0575438
3004.03710,0.0569435
3003.07272,0.0563090
3002.10834,0.0555575
3001.14396,0.0548587
3000.17959,0.0541290
2999.21521,0.0535460
2998.25083,0.0530587
2997.28645,0.0523951
2996.32207,0.0517649
2995.35770,0.0512594
2994.39332,0.0506314
2993.42894,0.0499182
2992.46456,0.0493987
2991.50018,0.0490160
2990.53581,0.0484926
2989.57143,0.0478554
2988.60705,0.0470211
2987.64267,0.0462257
2986.67829,0.0458032
2985.71392,0.0452260
2984.74954,0.0443050
2983.78516,0.0422255
2982.82078,0.0389252
2981.85641,0.0371367
2980.89203,0.0374369
2979.92765,0.0381399
2978.96327,0.0387923
2977.99889,0.0396337
2977.03452,0.0405324
2976.07014,0.0410031
2975.10576,0.0410806
2974.14138,0.0407471
2973.17700,0.0403949
2972.21263,0.0398565
2971.24825,0.0389469
2970.28387,0.0393901
2969.31949,0.0406921
2968.35512,0.0412712
2967.39074,0.0413358
2966.42636,0.0412360
2965.46198,0.0413795
2964.49760,0.0416210
2963.53323,0.0417768
2962.56885,0.0418432
2961.60447,0.0418383
2960.64009,0.0418967
2959.67571,0.0418326
2958.71134,0.0416512
2957.74696,0.0414747
2956.78258,0.0414744
2955.81820,0.0413629
2954.85382,0.0411366
2953.88945,0.0411639
2952.92507,0.0411703
2951.96069,0.0410093
2950.99631,0.0406233
2950.03194,0.0402779
2949.06756,0.0399831
2948.10318,0.0396847
2947.13880,0.0395853
2946.17442,0.0391592
2945.21005,0.0385733
2944.24567,0.0381349
2943.28129,0.0378217
2942.31691,0.0376242
2941.35253,0.0370186
2940.38816,0.0363401
2939.42378,0.0360110
2938.45940,0.0357907
2937.49502,0.0355188
2936.53065,0.0350620
2935.56627,0.0345568
2934.60189,0.0342038
2933.63751,0.0340251
2932.67313,0.0337244
2931.70876,0.0332752
2930.74438,0.0329989
2929.78000,0.0328102
2928.81562,0.0326624
2927.85124,0.0323641
2926.88687,0.0318804
2925.92249,0.0317668
2924.95811,0.0318178
2923.99373,0.0315630
2923.02935,0.0313680
2922.06498,0.0313159
2921.10060,0.0310152
2920.13622,0.0307278
2919.17184,0.0306629
2918.20747,0.0304883
2917.24309,0.0303809
2916.27871,0.0303030
2915.31433,0.0301164
2914.34995,0.0301035
2913.38558,0.0298911
2912.42120,0.0295462
2911.45682,0.0294368
2910.49244,0.0292522
2909.52806,0.0290245
2908.56369,0.0288508
2907.59931,0.0287409
2906.63493,0.0287123
2905.67055,0.0285881
2904.70618,0.0284076
2903.74180,0.0283485
2902.77742,0.0282795
2901.81304,0.0280132
2900.84866,0.0278509
2899.88429,0.0278110
2898.91991,0.0276800
2897.95553,0.0275805
2896.99115,0.0274061
2896.02677,0.0272445
2895.06240,0.0272287
2894.09802,0.0270542
2893.13364,0.0268566
2892.16926,0.0268112
2891.20488,0.0265357
2890.24051,0.0262157
2889.27613,0.0262536
2888.31175,0.0263630
2887.34737,0.0263271
2886.38300,0.0261730
2885.41862,0.0260032
2884.45424,0.0259267
2883.48986,0.0258864
2882.52548,0.0258612
2881.56111,0.0259807
2880.59673,0.0263376
2879.63235,0.0267918
2878.66797,0.0270586
2877.70359,0.0268860
2876.73922,0.0266475
2875.77484,0.0267378
2874.81046,0.0269548
2873.84608,0.0272240
2872.88171,0.0273374
2871.91733,0.0272499
2870.95295,0.0270891
2869.98857,0.0269837
2869.02419,0.0272010
2868.05982,0.0273310
2867.09544,0.0272327
2866.13106,0.0272647
2865.16668,0.0273735
2864.20230,0.0274426
2863.23793,0.0274243
2862.27355,0.0274066
2861.30917,0.0274750
2860.34479,0.0276237
2859.38041,0.0277663
2858.41604,0.0277885
2857.45166,0.0277009
2856.48728,0.0276585
2855.52290,0.0277845
2854.55853,0.0279042
2853.59415,0.0279840
2852.62977,0.0280363
2851.66539,0.0280019
2850.70101,0.0280098
2849.73664,0.0280825
2848.77226,0.0282450
2847.80788,0.0284371
2846.84350,0.0284676
2845.87912,0.0284059
2844.91475,0.0283693
2843.95037,0.0283441
2842.98599,0.0284312
2842.02161,0.0285150
2841.05724,0.0284698
2840.09286,0.0285255
2839.12848,0.0286311
2838.16410,0.0287724
2837.19972,0.0288295
2836.23535,0.0286035
2835.27097,0.0283958
2834.30659,0.0282548
2833.34221,0.0282607
2832.37783,0.0284273
2831.41346,0.0285038
2830.44908,0.0284834
2829.48470,0.0283764
2828.52032,0.0282842
2827.55594,0.0281398
2826.59157,0.0280310
2825.62719,0.0280762
2824.66281,0.0280685
2823.69843,0.0280152
2822.73406,0.0278936
2821.76968,0.0278039
2820.80530,0.0277487
2819.84092,0.0276650
2818.87654,0.0277049
2817.91217,0.0277964
2816.94779,0.0277908
2815.98341,0.0275197
2815.01903,0.0272879
2814.05465,0.0273378
2813.09028,0.0273315
2812.12590,0.0272288
2811.16152,0.0271037
2810.19714,0.0270310
2809.23276,0.0269529
2808.26839,0.0268293
2807.30401,0.0268337
2806.33963,0.0268548
2805.37525,0.0268204
2804.41088,0.0267940
2803.44650,0.0268069
2802.48212,0.0267546
2801.51774,0.0266490
2800.55336,0.0267120
2799.58899,0.0267324
2798.62461,0.0266011
2797.66023,0.0264736
2796.69585,0.0263396
2795.73147,0.0262919
2794.76710,0.0263666
2793.80272,0.0264776
2792.83834,0.0264047
2791.87396,0.0261693
2790.90959,0.0261228
2789.94521,0.0260965
2788.98083,0.0260059
2788.01645,0.0260338
2787.05207,0.0260042
2786.08770,0.0259583
2785.12332,0.0259278
2784.15894,0.0258876
2783.19456,0.0259292
2782.23018,0.0259123
2781.26581,0.0258410
2780.30143,0.0257744
2779.33705,0.0257291
2778.37267,0.0257226
2777.40829,0.0257222
2776.44392,0.0257181
2775.47954,0.0256926
2774.51516,0.0257265
2773.55078,0.0256954
2772.58641,0.0256360
2771.62203,0.0257489
2770.65765,0.0258312
2769.69327,0.0257874
2768.72889,0.0256439
2767.76452,0.0254133
2766.80014,0.0253351
2765.83576,0.0255767
2764.87138,0.0257578
2763.90700,0.0256901
2762.94263,0.0256997
2761.97825,0.0256700
2761.01387,0.0255063
2760.04949,0.0253349
2759.08512,0.0252873
2758.12074,0.0254615
2757.15636,0.0254846
2756.19198,0.0252840
2755.22760,0.0251900
2754.26323,0.0252293
2753.29885,0.0253060
2752.33447,0.0254341
2751.37009,0.0254641
2750.40571,0.0253798
2749.44134,0.0254353
2748.47696,0.0254150
2747.51258,0.0253019
2746.54820,0.0253265
2745.58382,0.0253047
2744.61945,0.0252409
2743.65507,0.0252418
2742.69069,0.0252055
2741.72631,0.0250758
2740.76194,0.0250398
2739.79756,0.0250353
2738.83318,0.0249128
2737.86880,0.0249058
2736.90442,0.0249486
2735.94005,0.0249225
2734.97567,0.0248673
2734.01129,0.0246921
2733.04691,0.0245276
2732.08253,0.0244995
2731.11816,0.0245019
2730.15378,0.0245642
2729.18940,0.0245817
2728.22502,0.0243748
2727.26065,0.0242226
2726.29627,0.0241290
2725.33189,0.0240347
2724.36751,0.0241008
2723.40313,0.0240467
2722.43876,0.0238628
2721.47438,0.0237604
2720.51000,0.0237164
2719.54562,0.0236645
2718.58124,0.0235578
2717.61687,0.0234219
2716.65249,0.0232797
2715.68811,0.0232993
2714.72373,0.0234076
2713.75935,0.0233714
2712.79498,0.0232589
2711.83060,0.0231784
2710.86622,0.0230781
2709.90184,0.0229764
2708.93747,0.0230328
2707.97309,0.0229933
2707.00871,0.0227384
2706.04433,0.0225475
2705.07995,0.0224325
2704.11558,0.0224545
2703.15120,0.0226251
2702.18682,0.0226766
2701.22244,0.0225022
2700.25806,0.0223812
2699.29369,0.0224234
2698.32931,0.0223756
2697.36493,0.0222381
2696.40055,0.0221399
2695.43618,0.0220631
2694.47180,0.0220379
2693.50742,0.0221173
2692.54304,0.0221784
2691.57866,0.0221126
2690.61429,0.0218781
2689.64991,0.0216753
2688.68553,0.0218155
2687.72115,0.0219127
2686.75677,0.0217553
2685.79240,0.0217131
2684.82802,0.0217930
2683.86364,0.0217704
2682.89926,0.0216604
2681.93488,0.0216613
2680.97051,0.0216983
2680.00613,0.0216539
2679.04175,0.0215553
2678.07737,0.0215226
2677.11300,0.0216065
2676.14862,0.0215867
2675.18424,0.0215477
2674.21986,0.0214877
2673.25548,0.0213269
2672.29111,0.0213292
2671.32673,0.0214495
2670.36235,0.0214721
2669.39797,0.0213919
2668.43359,0.0212883
2667.46922,0.0212388
2666.50484,0.0212909
2665.54046,0.0213118
2664.57608,0.0212544
2663.61171,0.0212308
2662.64733,0.0212570
2661.68295,0.0213005
2660.71857,0.0212084
2659.75419,0.0211560
2658.78982,0.0211982
2657.82544,0.0211551
2656.86106,0.0211643
2655.89668,0.0211613
2654.93230,0.0211871
2653.96793,0.0211877
2653.00355,0.0210817
2652.03917,0.0209782
2651.07479,0.0208402
2650.11041,0.0208194
2649.14604,0.0207533
2648.18166,0.0207174
2647.21728,0.0209025
2646.25290,0.0209449
2645.28853,0.0208779
2644.32415,0.0208254
2643.35977,0.0206971
2642.39539,0.0205308
2641.43101,0.0205453
2640.46664,0.0205981
2639.50226,0.0205386
2638.53788,0.0206362
2637.57350,0.0206228
2636.60912,0.0204999
2635.64475,0.0204947
2634.68037,0.0204293
2633.71599,0.0204390
2632.75161,0.0204767
2631.78724,0.0203687
2630.82286,0.0203086
2629.85848,0.0203591
2628.89410,0.0203041
2627.92972,0.0202178
2626.96535,0.0202494
2626.00097,0.0203008
2625.03659,0.0203609
2624.07221,0.0203063
2623.10783,0.0201728
2622.14346,0.0201423
2621.17908,0.0200721
2620.21470,0.0199891
2619.25032,0.0200030
2618.28594,0.0198677
2617.32157,0.0198015
2616.35719,0.0200741
2615.39281,0.0202043
2614.42843,0.0201373
2613.46406,0.0199583
2612.49968,0.0197435
2611.53530,0.0197787
2610.57092,0.0198656
2609.60654,0.0199203
2608.64217,0.0198561
2607.67779,0.0197936
2606.71341,0.0197940
2605.74903,0.0196393
2604.78465,0.0196360
2603.82028,0.0197629
2602.85590,0.0198368
2601.89152,0.0196140
2600.92714,0.0193252
2599.96276,0.0195268
2598.99839,0.0196349
2598.03401,0.0195606
2597.06963,0.0195293
2596.10525,0.0194147
2595.14088,0.0194171
2594.17650,0.0193947
2593.21212,0.0193781
2592.24774,0.0194124
2591.28336,0.0193608
2590.31899,0.0192182
2589.35461,0.0188378
2588.39023,0.0185603
2587.42585,0.0187165
2586.46147,0.0188525
2585.49710,0.0188089
2584.53272,0.0187842
2583.56834,0.0186988
2582.60396,0.0187845
2581.63959,0.0189111
2580.67521,0.0185986
2579.71083,0.0183400
2578.74645,0.0184478
2577.78207,0.0184818
2576.81770,0.0183457
2575.85332,0.0181825
2574.88894,0.0180012
2573.92456,0.0177621
2572.96018,0.0174209
2571.99581,0.0173079
2571.03143,0.0175632
2570.06705,0.0176045
2569.10267,0.0174423
2568.13829,0.0172891
2567.17392,0.0172034
2566.20954,0.0172799
2565.24516,0.0170139
2564.28078,0.0168522
2563.31641,0.0172229
2562.35203,0.0172772
2561.38765,0.0168690
2560.42327,0.0166580
2559.45889,0.0170663
2558.49452,0.0172775
2557.53014,0.0169498
2556.56576,0.0170326
2555.60138,0.0172742
2554.63700,0.0171871
2553.67263,0.0168964
2552.70825,0.0165647
2551.74387,0.0164399
2550.77949,0.0165511
2549.81512,0.0167808
2548.85074,0.0166762
2547.88636,0.0163261
2546.92198,0.0160813
2545.95760,0.0159813
2544.99323,0.0161430
2544.02885,0.0161699
2543.06447,0.0161269
2542.10009,0.0162424
2541.13571,0.0161702
2540.17134,0.0159964
2539.20696,0.0159533
2538.24258,0.0159054
2537.27820,0.0158608
2536.31382,0.0162206
2535.34945,0.0162918
2534.38507,0.0157636
2533.42069,0.0156836
2532.45631,0.0156598
2531.49194,0.0154069
2530.52756,0.0154634
2529.56318,0.0156341
2528.59880,0.0155837
2527.63442,0.0153020
2526.67005,0.0151546
2525.70567,0.0151251
2524.74129,0.0151055
2523.77691,0.0149000
2522.81253,0.0147011
2521.84816,0.0150746
2520.88378,0.0152528
2519.91940,0.0148334
2518.95502,0.0143613
2517.99065,0.0142462
2517.02627,0.0144017
2516.06189,0.0144981
2515.09751,0.0147178
2514.13313,0.0146917
2513.16876,0.0145163
2512.20438,0.0146464
2511.24000,0.0145212
2510.27562,0.0139910
2509.31124,0.0136410
2508.34687,0.0137835
2507.38249,0.0137231
2506.41811,0.0135082
2505.45373,0.0137758
2504.48935,0.0138919
2503.52498,0.0138012
2502.56060,0.0139042
2501.59622,0.0138651
2500.63184,0.0136470
2499.66747,0.0136359
2498.70309,0.0136871
2497.73871,0.0135502
2496.77433,0.0135484
2495.80995,0.0135026
2494.84558,0.0132591
2493.88120,0.0133722
2492.91682,0.0135880
2491.95244,0.0132841
2490.98806,0.0129958
2490.02369,0.0129508
2489.05931,0.0127056
2488.09493,0.0125421
2487.13055,0.0124872
2486.16618,0.0125644
2485.20180,0.0130071
2484.23742,0.0131694
2483.27304,0.0126409
2482.30866,0.0121888
2481.34429,0.0122843
2480.37991,0.0123141
2479.41553,0.0122539
2478.45115,0.0121856
2477.48677,0.0121104
2476.52240,0.0122661
2475.55802,0.0121273
2474.59364,0.0118952
2473.62926,0.0118628
2472.66488,0.0119604
2471.70051,0.0122394
2470.73613,0.0123266
2469.77175,0.0121935
2468.80737,0.0117951
2467.84300,0.0118365
2466.87862,0.0122813
2465.91424,0.0121128
2464.94986,0.0118964
2463.98548,0.0118739
2463.02111,0.0120649
2462.05673,0.0123386
2461.09235,0.0120535
2460.12797,0.0116077
2459.16359,0.0113699
2458.19922,0.0113601
2457.23484,0.0115308
2456.27046,0.0116813
2455.30608,0.0115888
2454.34171,0.0113400
2453.37733,0.0113943
2452.41295,0.0115534
2451.44857,0.0115582
2450.48419,0.0116221
2449.51982,0.0115726
2448.55544,0.0114444
2447.59106,0.0116092
2446.62668,0.0115938
2445.66230,0.0114164
2444.69793,0.0115474
2443.73355,0.0115953
2442.76917,0.0115993
2441.80479,0.0114800
2440.84041,0.0111614
2439.87604,0.0110611
2438.91166,0.0111304
2437.94728,0.0112255
2436.98290,0.0112146
2436.01853,0.0112098
2435.05415,0.0112809
2434.08977,0.0112305
2433.12539,0.0108755
2432.16101,0.0106906
2431.19664,0.0109533
2430.23226,0.0108205
2429.26788,0.0106697
2428.30350,0.0108380
2427.33912,0.0108878
2426.37475,0.0111025
2425.41037,0.0112434
2424.44599,0.0109594
2423.48161,0.0105725
2422.51724,0.0106754
2421.55286,0.0108556
2420.58848,0.0106689
2419.62410,0.0106063
2418.65972,0.0107168
2417.69535,0.0110658
2416.73097,0.0113580
2415.76659,0.0114260
2414.80221,0.0113763
2413.83783,0.0111202
2412.87346,0.0110008
2411.90908,0.0110449
2410.94470,0.0111958
2409.98032,0.0112039
2409.01594,0.0111403
2408.05157,0.0111928
2407.08719,0.0111383
2406.12281,0.0111343
2405.15843,0.0110374
2404.19406,0.0110192
2403.22968,0.0110633
2402.26530,0.0111364
2401.30092,0.0114334
2400.33654,0.0113336
2399.37217,0.0110847
2398.40779,0.0110153
2397.44341,0.0109608
2396.47903,0.0110265
2395.51465,0.0110780
2394.55028,0.0110006
2393.58590,0.0108529
2392.62152,0.0110008
2391.65714,0.0112010
2390.69276,0.0111410
2389.72839,0.0112311
2388.76401,0.0114603
2387.79963,0.0115719
2386.83525,0.0114849
2385.87088,0.0113060
2384.90650,0.0113263
2383.94212,0.0115499
2382.97774,0.0115536
2382.01336,0.0114522
2381.04899,0.0115189
2380.08461,0.0116214
2379.12023,0.0118111
2378.15585,0.0117848
2377.19147,0.0117096
2376.22710,0.0118374
2375.26272,0.0118404
2374.29834,0.0118926
2373.33396,0.0118605
2372.36959,0.0118357
2371.40521,0.0119877
2370.44083,0.0119644
2369.47645,0.0119606
2368.51207,0.0120353
2367.54770,0.0120769
2366.58332,0.0120938
2365.61894,0.0121310
2364.65456,0.0121992
2363.69018,0.0120984
2362.72581,0.0121128
2361.76143,0.0122617
2360.79705,0.0121072
2359.83267,0.0120126
2358.86829,0.0122024
2357.90392,0.0121558
2356.93954,0.0119257
2355.97516,0.0119148
2355.01078,0.0119800
2354.04641,0.0119695
2353.08203,0.0119307
2352.11765,0.0117868
2351.15327,0.0116783
2350.18889,0.0117489
2349.22452,0.0118348
2348.26014,0.0118417
2347.29576,0.0117661
2346.33138,0.0118017
2345.36700,0.0119724
2344.40263,0.0120325
2343.43825,0.0119929
2342.47387,0.0119130
2341.50949,0.0118810
2340.54512,0.0117594
2339.58074,0.0116697
2338.61636,0.0118265
2337.65198,0.0118817
2336.68760,0.0118659
2335.72323,0.0118340
2334.75885,0.0117949
2333.79447,0.0117095
2332.83009,0.0115704
2331.86571,0.0116432
2330.90134,0.0115989
2329.93696,0.0114459
2328.97258,0.0113808
2328.00820,0.0113536
2327.04382,0.0114864
2326.07945,0.0116509
2325.11507,0.0117761
2324.15069,0.0116403
2323.18631,0.0112820
2322.22194,0.0111424
2321.25756,0.0113051
2320.29318,0.0114169
2319.32880,0.0111755
2318.36442,0.0110072
2317.40005,0.0110184
2316.43567,0.0110404
2315.47129,0.0111150
2314.50691,0.0112464
2313.54253,0.0112042
2312.57816,0.0107249
2311.61378,0.0104688
2310.64940,0.0105452
2309.68502,0.0106834
2308.72065,0.0107832
2307.75627,0.0105685
2306.79189,0.0105700
2305.82751,0.0107335
2304.86313,0.0107773
2303.89876,0.0108924
2302.93438,0.0109297
2301.97000,0.0107997
2301.00562,0.0104949
2300.04124,0.0102393
2299.07687,0.0101480
2298.11249,0.0103500
2297.14811,0.0106950
2296.18373,0.0107507
2295.21935,0.0106862
2294.25498,0.0105151
2293.29060,0.0103312
2292.32622,0.0103379
2291.36184,0.0103310
2290.39747,0.0101976
2289.43309,0.0099874
2288.46871,0.0098565
2287.50433,0.0097751
2286.53995,0.0097921
2285.57558,0.0099996
2284.61120,0.0101024
2283.64682,0.0103473
2282.68244,0.0105757
2281.71806,0.0100339
2280.75369,0.0097325
2279.78931,0.0100950
2278.82493,0.0100457
2277.86055,0.0096493
2276.89618,0.0093518
2275.93180,0.0096073
2274.96742,0.0099580
2274.00304,0.0096858
2273.03866,0.0092359
2272.07429,0.0089436
2271.10991,0.0093885
2270.14553,0.0099424
2269.18115,0.0096204
2268.21677,0.0091227
2267.25240,0.0089854
2266.28802,0.0094644
2265.32364,0.0097247
2264.35926,0.0092804
2263.39488,0.0092273
2262.43051,0.0093349
2261.46613,0.0091230
2260.50175,0.0087635
2259.53737,0.0087523
2258.57300,0.0093835
2257.60862,0.0094830
2256.64424,0.0091327
2255.67986,0.0088341
2254.71548,0.0083237
2253.75111,0.0085616
2252.78673,0.0090185
2251.82235,0.0087716
2250.85797,0.0088622
2249.89359,0.0095406
2248.92922,0.0095032
2247.96484,0.0088335
2247.00046,0.0088895
2246.03608,0.0088927
2245.07171,0.0086299
2244.10733,0.0088863
2243.14295,0.0092035
2242.17857,0.0094957
2241.21419,0.0094895
2240.24982,0.0092514
2239.28544,0.0091863
2238.32106,0.0092234
2237.35668,0.0089536
2236.39230,0.0087659
2235.42793,0.0090266
2234.46355,0.0088718
2233.49917,0.0088829
2232.53479,0.0086854
2231.57041,0.0086090
2230.60604,0.0089234
2229.64166,0.0074504
2228.67728,0.0065737
2227.71290,0.0072512
2226.74853,0.0073780
2225.78415,0.0075342
2224.81977,0.0077562
2223.85539,0.0081477
2222.89101,0.0083865
2221.92664,0.0082756
2220.96226,0.0076471
2219.99788,0.0061527
2219.03350,0.0059218
2218.06912,0.0067025
2217.10475,0.0070855
2216.14037,0.0076622
2215.17599,0.0075159
2214.21161,0.0076807
2213.24724,0.0085086
2212.28286,0.0081306
2211.31848,0.0085714
2210.35410,0.0091384
2209.38972,0.0078087
2208.42535,0.0059054
2207.46097,0.0053734
2206.49659,0.0074380
2205.53221,0.0076675
2204.56783,0.0066747
2203.60346,0.0084827
2202.63908,0.0092841
2201.67470,0.0080413
2200.71032,0.0063476
2199.74594,0.0057950
2198.78157,0.0068446
2197.81719,0.0072511
2196.85281,0.0071396
2195.88843,0.0072818
2194.92406,0.0078857
2193.95968,0.0075069
2192.99530,0.0053594
2192.03092,0.0041245
2191.06654,0.0051981
2190.10217,0.0056042
2189.13779,0.0050119
2188.17341,0.0058563
2187.20903,0.0051360
2186.24465,0.0038066
2185.28028,0.0041228
2184.31590,0.0045691
2183.35152,0.0054488
2182.38714,0.0043952
2181.42276,0.0040740
2180.45839,0.0059699
2179.49401,0.0053001
2178.52963,0.0032193
2177.56525,0.0031631
2176.60088,0.0044584
2175.63650,0.0020716
2174.67212,-0.0006361
2173.70774,0.0009832
2172.74336,0.0017067
2171.77899,0.0017189
2170.81461,0.0025431
2169.85023,0.0033669
2168.88585,0.0031896
2167.92147,0.0008837
2166.95710,0.0005706
2165.99272,0.0015008
2165.02834,0.0009432
2164.06396,0.0022701
2163.09959,0.0042745
2162.13521,0.0018343
2161.17083,-0.0008180
2160.20645,0.0029111
2159.24207,0.0028297
2158.27770,-0.0000640
2157.31332,0.0057423
2156.34894,0.0093450
2155.38456,0.0069833
2154.42018,0.0039532
2153.45581,0.0021236
2152.49143,0.0015253
2151.52705,0.0025505
2150.56267,0.0047215
2149.59829,0.0036869
2148.63392,0.0022450
2147.66954,0.0035583
2146.70516,0.0040762
2145.74078,0.0038650
2144.77641,0.0035596
2143.81203,0.0030638
2142.84765,0.0027724
2141.88327,0.0033056
2140.91889,0.0037932
2139.95452,0.0031392
2138.99014,0.0046286
2138.02576,0.0063265
2137.06138,0.0046844
2136.09700,0.0045099
2135.13263,0.0057948
2134.16825,0.0048220
2133.20387,0.0050306
2132.23949,0.0067894
2131.27512,0.0061143
2130.31074,0.0047428
2129.34636,0.0053192
2128.38198,0.0055843
2127.41760,0.0054924
2126.45323,0.0066519
2125.48885,0.0063141
2124.52447,0.0053181
2123.56009,0.0064426
2122.59571,0.0069858
2121.63134,0.0063881
2120.66696,0.0064897
2119.70258,0.0070521
2118.73820,0.0066429
2117.77382,0.0053616
2116.80945,0.0053675
2115.84507,0.0059207
2114.88069,0.0058076
2113.91631,0.0054013
2112.95194,0.0050583
2111.98756,0.0052639
2111.02318,0.0053565
2110.05880,0.0056719
2109.09442,0.0059530
2108.13005,0.0059629
2107.16567,0.0064836
2106.20129,0.0057749
2105.23691,0.0043317
2104.27253,0.0042637
2103.30816,0.0052267
2102.34378,0.0060033
2101.37940,0.0055489
2100.41502,0.0049595
2099.45065,0.0048303
2098.48627,0.0044393
2097.52189,0.0043588
2096.55751,0.0047044
2095.59313,0.0050569
2094.62876,0.0053584
2093.66438,0.0056768
2092.70000,0.0060244
2091.73562,0.0059644
2090.77124,0.0051982
2089.80687,0.0047409
2088.84249,0.0052714
2087.87811,0.0056638
2086.91373,0.0059840
2085.94935,0.0065447
2084.98498,0.0062625
2084.02060,0.0052557
2083.05622,0.0045565
2082.09184,0.0043904
2081.12747,0.0043493
2080.16309,0.0047052
2079.19871,0.0047063
2078.23433,0.0037442
2077.26995,0.0036879
2076.30558,0.0046531
2075.34120,0.0050081
2074.37682,0.0041629
2073.41244,0.0038488
2072.44806,0.0042750
2071.48369,0.0038950
2070.51931,0.0046595
2069.55493,0.0056072
2068.59055,0.0051220
2067.62618,0.0046495
2066.66180,0.0042344
2065.69742,0.0042304
2064.73304,0.0037974
2063.76866,0.0036058
2062.80429,0.0041507
2061.83991,0.0044842
2060.87553,0.0056973
2059.91115,0.0060234
2058.94677,0.0049999
2057.98240,0.0044881
2057.01802,0.0046145
2056.05364,0.0055032
2055.08926,0.0058282
2054.12488,0.0047556
2053.16051,0.0039692
2052.19613,0.0035020
2051.23175,0.0028030
2050.26737,0.0040533
2049.30300,0.0047167
2048.33862,0.0021820
2047.37424,0.0013883
2046.40986,0.0025706
2045.44548,0.0033292
2044.48111,0.0022266
2043.51673,0.0016222
2042.55235,0.0031512
2041.58797,0.0026001
2040.62359,0.0029938
2039.65922,0.0052182
2038.69484,0.0050567
2037.73046,0.0032714
2036.76608,0.0007863
2035.80171,0.0010740
2034.83733,0.0039124
2033.87295,0.0038044
2032.90857,0.0024019
2031.94419,0.0029111
2030.97982,0.0036753
2030.01544,0.0019368
2029.05106,-0.0025028
2028.08668,-0.0028964
2027.12230,0.0021619
2026.15793,0.0045624
2025.19355,0.0038553
2024.22917,0.0035563
2023.26479,0.0042020
2022.30041,0.0051737
2021.33604,0.0043321
2020.37166,0.0019790
2019.40728,-0.0002151
2018.44290,0.0005289
2017.47853,0.0032140
2016.51415,0.0027522
2015.54977,0.0012221
2014.58539,0.0016240
2013.62101,0.0011473
2012.65664,0.0010146
2011.69226,0.0028709
2010.72788,0.0029774
2009.76350,0.0031370
2008.79912,0.0062572
2007.83475,0.0083218
2006.87037,0.0057103
2005.90599,0.0013396
2004.94161,0.0009609
2003.97724,0.0027471
2003.01286,0.0031551
2002.04848,0.0027216
2001.08410,0.0025132
2000.11972,0.0036979
1999.15535,0.0044590
1998.19097,0.0045945
1997.22659,0.0056398
1996.26221,0.0050707
1995.29783,0.0037517
1994.33346,0.0044828
1993.36908,0.0044877
1992.40470,0.0042733
1991.44032,0.0058561
1990.47594,0.0056655
1989.51157,0.0044522
1988.54719,0.0031845
1987.58281,0.0015239
1986.61843,0.0018494
1985.65406,0.0017750
1984.68968,0.0014999
1983.72530,0.0033455
1982.76092,0.0054058
1981.79654,0.0058477
1980.83217,0.0049032
1979.86779,0.0030738
1978.90341,-0.0014519
1977.93903,-0.0024106
1976.97465,0.0034998
1976.01028,0.0072503
1975.04590,0.0062292
1974.08152,0.0026026
1973.11714,0.0024223
1972.15276,0.0047283
1971.18839,0.0043630
1970.22401,0.0038171
1969.25963,0.0033910
1968.29525,0.0045590
1967.33088,0.0056764
1966.36650,0.0029182
1965.40212,0.0020782
1964.43774,0.0041048
1963.47336,0.0046166
1962.50899,0.0047654
1961.54461,0.0042282
1960.58023,0.0035103
1959.61585,0.0044448
1958.65147,0.0049077
1957.68710,0.0052758
1956.72272,0.0058886
1955.75834,0.0058536
1954.79396,0.0063264
1953.82959,0.0060887
1952.86521,0.0051726
1951.90083,0.0058544
1950.93645,0.0069959
1949.97207,0.0071032
1949.00770,0.0065473
1948.04332,0.0054660
1947.07894,0.0048297
1946.11456,0.0051069
1945.15018,0.0059258
1944.18581,0.0070028
1943.22143,0.0064489
1942.25705,0.0055661
1941.29267,0.0064075
1940.32829,0.0069497
1939.36392,0.0067315
1938.39954,0.0061271
1937.43516,0.0055560
1936.47078,0.0058052
1935.50641,0.0064900
1934.54203,0.0068166
1933.57765,0.0064668
1932.61327,0.0067349
1931.64889,0.0071507
1930.68452,0.0067714
1929.72014,0.0071780
1928.75576,0.0078298
1927.79138,0.0069196
1926.82700,0.0059220
1925.86263,0.0061412
1924.89825,0.0061651
1923.93387,0.0063517
1922.96949,0.0069409
1922.00512,0.0068846
1921.04074,0.0069781
1920.07636,0.0070296
1919.11198,0.0067645
1918.14760,0.0065259
1917.18323,0.0062088
1916.21885,0.0063971
1915.25447,0.0067711
1914.29009,0.0068868
1913.32571,0.0066389
1912.36134,0.0064948
1911.39696,0.0070322
1910.43258,0.0072572
1909.46820,0.0072524
1908.50382,0.0071594
1907.53945,0.0066294
1906.57507,0.0069181
1905.61069,0.0075755
1904.64631,0.0074894
1903.68194,0.0076061
1902.71756,0.0078672
1901.75318,0.0075729
1900.78880,0.0072465
1899.82442,0.0072610
1898.86005,0.0073357
1897.89567,0.0070827
1896.93129,0.0070743
1895.96691,0.0076134
1895.00253,0.0075529
1894.03816,0.0072024
1893.07378,0.0074654
1892.10940,0.0077938
1891.14502,0.0077382
1890.18065,0.0073057
1889.21627,0.0069608
1888.25189,0.0069521
1887.28751,0.0070985
1886.32313,0.0073434
1885.35876,0.0074681
1884.39438,0.0075250
1883.43000,0.0075503
1882.46562,0.0074567
1881.50124,0.0073086
1880.53687,0.0072110
1879.57249,0.0072411
1878.60811,0.0073744
1877.64373,0.0075453
1876.67935,0.0073916
1875.71498,0.0071793
1874.75060,0.0074391
1873.78622,0.0077330
1872.82184,0.0077508
1871.85747,0.0076660
1870.89309,0.0076300
1869.92871,0.0076823
1868.96433,0.0078015
1867.99995,0.0078846
1867.03558,0.0079193
1866.07120,0.0079856
1865.10682,0.0078431
1864.14244,0.0076462
1863.17806,0.0076733
1862.21369,0.0077780
1861.24931,0.0080039
1860.28493,0.0080115
1859.32055,0.0078107
1858.35618,0.0078962
1857.39180,0.0077819
1856.42742,0.0075718
1855.46304,0.0075931
1854.49866,0.0076220
1853.53429,0.0080302
1852.56991,0.0081912
1851.60553,0.0078779
1850.64115,0.0077482
1849.67677,0.0077314
1848.71240,0.0080780
1847.74802,0.0083059
1846.78364,0.0081183
1845.81926,0.0077527
1844.85488,0.0073504
1843.89051,0.0076872
1842.92613,0.0081284
1841.96175,0.0082212
1840.99737,0.0083427
1840.03300,0.0082827
1839.06862,0.0081559
1838.10424,0.0081048
1837.13986,0.0082460
1836.17548,0.0083090
1835.21111,0.0081607
1834.24673,0.0080227
1833.28235,0.0078546
1832.31797,0.0079615
1831.35359,0.0080908
1830.38922,0.0079943
1829.42484,0.0080709
1828.46046,0.0081851
1827.49608,0.0084339
1826.53171,0.0086398
1825.56733,0.0082679
1824.60295,0.0080827
1823.63857,0.0083694
1822.67419,0.0086125
1821.70982,0.0087701
1820.74544,0.0086415
1819.78106,0.0085190
1818.81668,0.0085964
1817.85230,0.0087232
1816.88793,0.0088167
1815.92355,0.0086156
1814.95917,0.0085072
1813.99479,0.0086203
1813.03041,0.0087210
1812.06604,0.0087078
1811.10166,0.0085706
1810.13728,0.0087075
1809.17290,0.0089517
1808.20853,0.0090176
1807.24415,0.0090271
1806.27977,0.0089627
1805.31539,0.0089817
1804.35101,0.0090834
1803.38664,0.0090609
1802.42226,0.0090778
1801.45788,0.0090862
1800.49350,0.0090271
1799.52912,0.0091463
1798.56475,0.0092535
1797.60037,0.0093669
1796.63599,0.0094871
1795.67161,0.0095909
1794.70724,0.0097269
1793.74286,0.0093886
1792.77848,0.0091248
1791.81410,0.0094328
1790.84972,0.0097047
1789.88535,0.0098873
1788.92097,0.0099681
1787.95659,0.0099876
1786.99221,0.0099676
1786.02783,0.0097811
1785.06346,0.0096829
1784.09908,0.0100214
1783.13470,0.0103816
1782.17032,0.0103603
1781.20594,0.0103997
1780.24157,0.0105161
1779.27719,0.0106157
1778.31281,0.0107341
1777.34843,0.0107683
1776.38406,0.0107873
1775.41968,0.0109000
1774.45530,0.0110372
1773.49092,0.0106590
1772.52654,0.0103813
1771.56217,0.0108836
1770.59779,0.0114027
1769.63341,0.0116223
1768.66903,0.0115422
1767.70465,0.0116852
1766.74028,0.0120722
1765.77590,0.0122066
1764.81152,0.0123400
1763.84714,0.0124393
1762.88276,0.0124360
1761.91839,0.0125151
1760.95401,0.0128995
1759.98963,0.0133190
1759.02525,0.0134652
1758.06088,0.0135655
1757.09650,0.0136708
1756.13212,0.0140665
1755.16774,0.0144708
1754.20336,0.0145291
1753.23899,0.0146342
1752.27461,0.0145967
1751.31023,0.0146659
1750.34585,0.0152105
1749.38147,0.0155948
1748.41710,0.0158432
1747.45272,0.0162871
1746.48834,0.0167260
1745.52396,0.0170719
1744.55959,0.0173382
1743.59521,0.0176736
1742.63083,0.0182648
1741.66645,0.0187891
1740.70207,0.0189099
1739.73770,0.0190594
1738.77332,0.0197283
1737.80894,0.0203853
1736.84456,0.0208341
1735.88018,0.0210106
1734.91581,0.0206099
1733.95143,0.0207697
1732.98705,0.0219048
1732.02267,0.0229233
1731.05829,0.0233821
1730.09392,0.0236057
1729.12954,0.0241837
1728.16516,0.0246747
1727.20078,0.0250283
1726.23641,0.0254998
1725.27203,0.0258553
1724.30765,0.0262287
1723.34327,0.0265264
1722.37889,0.0268435
1721.41452,0.0272224
1720.45014,0.0275282
1719.48576,0.0275097
1718.52138,0.0270877
1717.55700,0.0272003
1716.59263,0.0279950
1715.62825,0.0285374
1714.66387,0.0288545
1713.69949,0.0294325
1712.73512,0.0298801
1711.77074,0.0301853
1710.80636,0.0305477
1709.84198,0.0308127
1708.87760,0.0312587
1707.91323,0.0315881
1706.94885,0.0318628
1705.98447,0.0321975
1705.02009,0.0325857
1704.05571,0.0332213
1703.09134,0.0338484
1702.12696,0.0341385
1701.16258,0.0334986
1700.19820,0.0336016
1699.23382,0.0353733
1698.26945,0.0367944
1697.30507,0.0371590
1696.34069,0.0369526
1695.37631,0.0381442
1694.41194,0.0401022
1693.44756,0.0414944
1692.48318,0.0427939
1691.51880,0.0441316
1690.55442,0.0455685
1689.59005,0.0470286
1688.62567,0.0487208
1687.66129,0.0505587
1686.69691,0.0525222
1685.73253,0.0538650
1684.76816,0.0551677
1683.80378,0.0580700
1682.83940,0.0612731
1681.87502,0.0642842
1680.91065,0.0668604
1679.94627,0.0694917
1678.98189,0.0724703
1678.01751,0.0753547
1677.05313,0.0781888
1676.08876,0.0804871
1675.12438,0.0832299
1674.16000,0.0866602
1673.19562,0.0899305
1672.23124,0.0928372
1671.26687,0.0957384
1670.30249,0.0986896
1669.33811,0.1015467
1668.37373,0.1051106
1667.40935,0.1086634
1666.44498,0.1121103
1665.48060,0.1154876
1664.51622,0.1186591
1663.55184,0.1219291
1662.58747,0.1253324
1661.62309,0.1293016
1660.65871,0.1328736
1659.69433,0.1364034
1658.72995,0.1402192
1657.76558,0.1441020
1656.80120,0.1482181
1655.83682,0.1518994
1654.87244,0.1552901
1653.90806,0.1580901
1652.94369,0.1617633
1651.97931,0.1672791
1651.01493,0.1727071
1650.05055,0.1774233
1649.08618,0.1816338
1648.12180,0.1859382
1647.15742,0.1900784
1646.19304,0.1946173
1645.22866,0.1997662
1644.26429,0.2049260
1643.29991,0.2097198
1642.33553,0.2143334
1641.37115,0.2191349
1640.40677,0.2237450
1639.44240,0.2284623
1638.47802,0.2329142
1637.51364,0.2373753
1636.54926,0.2413761
1635.58488,0.2452837
1634.62051,0.2506005
1633.65613,0.2557282
1632.69175,0.2603781
1631.72737,0.2645578
1630.76300,0.2686564
1629.79862,0.2727492
1628.83424,0.2763783
1627.86986,0.2801042
1626.90548,0.2839898
1625.94111,0.2879130
1624.97673,0.2912250
1624.01235,0.2943446
1623.04797,0.2975903
1622.08359,0.3008778
1621.11922,0.3040122
1620.15484,0.3067611
1619.19046,0.3093944
1618.22608,0.3112948
1617.26171,0.3127853
1616.29733,0.3148204
1615.33295,0.3172658
1614.36857,0.3188415
1613.40419,0.3198904
1612.43982,0.3207928
1611.47544,0.3211759
1610.51106,0.3213499
1609.54668,0.3209045
1608.58230,0.3203321
1607.61793,0.3190995
1606.65355,0.3175955
1605.68917,0.3160823
1604.72479,0.3138561
1603.76041,0.3113616
1602.79604,0.3084584
1601.83166,0.3057118
1600.86728,0.3025642
1599.90290,0.2992470
1598.93853,0.2958586
1597.97415,0.2921405
1597.00977,0.2884302
1596.04539,0.2846613
1595.08101,0.2811902
1594.11664,0.2771977
1593.15226,0.2733481
1592.18788,0.2693762
1591.22350,0.2652009
1590.25912,0.2611714
1589.29475,0.2566495
1588.33037,0.2523352
1587.36599,0.2477262
1586.40161,0.2431688
1585.43724,0.2383737
1584.47286,0.2334535
1583.50848,0.2285888
1582.54410,0.2232412
1581.57972,0.2180381
1580.61535,0.2125069
1579.65097,0.2070303
1578.68659,0.2013161
1577.72221,0.1955602
1576.75783,0.1892317
1575.79346,0.1828568
1574.82908,0.1782246
1573.86470,0.1732006
1572.90032,0.1679032
1571.93594,0.1626483
1570.97157,0.1573058
1570.00719,0.1518084
1569.04281,0.1466003
1568.07843,0.1424267
1567.11406,0.1380097
1566.14968,0.1336364
1565.18530,0.1292081
1564.22092,0.1251828
1563.25654,0.1215741
1562.29217,0.1178976
1561.32779,0.1141818
1560.36341,0.1096955
1559.39903,0.1060108
1558.43465,0.1030122
1557.47028,0.1006192
1556.50590,0.0989996
1555.54152,0.0966590
1554.57714,0.0937815
1553.61276,0.0913657
1552.64839,0.0897270
1551.68401,0.0877076
1550.71963,0.0853932
1549.75525,0.0833773
1548.79088,0.0815949
1547.82650,0.0799845
1546.86212,0.0782067
1545.89774,0.0763808
1544.93336,0.0745066
1543.96899,0.0731540
1543.00461,0.0715554
1542.04023,0.0696951
1541.07585,0.0684207
1540.11147,0.0666376
1539.14710,0.0652448
1538.18272,0.0649233
1537.21834,0.0645820
1536.25396,0.0637452
1535.28959,0.0625604
1534.32521,0.0612060
1533.36083,0.0600120
1532.39645,0.0595461
1531.43207,0.0589954
1530.46770,0.0582948
1529.50332,0.0574959
1528.53894,0.0564907
1527.57456,0.0557477
1526.61018,0.0548620
1525.64581,0.0540693
1524.68143,0.0536736
1523.71705,0.0531787
1522.75267,0.0521258
1521.78829,0.0508630
1520.82392,0.0503097
1519.85954,0.0504250
1518.89516,0.0503866
1517.93078,0.0496386
1516.96641,0.0490014
1516.00203,0.0488331
1515.03765,0.0486035
1514.07327,0.0483755
1513.10889,0.0478558
1512.14452,0.0473410
1511.18014,0.0471839
1510.21576,0.0468605
1509.25138,0.0463247
1508.28700,0.0455648
1507.32263,0.0445622
1506.35825,0.0440589
1505.39387,0.0444132
1504.42949,0.0450395
1503.46512,0.0452813
1502.50074,0.0450410
1501.53636,0.0448246
1500.57198,0.0446546
1499.60760,0.0442536
1498.64323,0.0440205
1497.67885,0.0439269
1496.71447,0.0434605
1495.75009,0.0433940
1494.78571,0.0439613
1493.82134,0.0441032
1492.85696,0.0440381
1491.89258,0.0440232
1490.92820,0.0437962
1489.96382,0.0438137
1488.99945,0.0442244
1488.03507,0.0446186
1487.07069,0.0449668
1486.10631,0.0455508
1485.14194,0.0461572
1484.17756,0.0466687
1483.21318,0.0472556
1482.24880,0.0478693
1481.28442,0.0486472
1480.32005,0.0495420
1479.35567,0.0503883
1478.39129,0.0512759
1477.42691,0.0520786
1476.46253,0.0528393
1475.49816,0.0538280
1474.53378,0.0545480
1473.56940,0.0549614
1472.60502,0.0560205
1471.64065,0.0577520
1470.67627,0.0596139
1469.71189,0.0612171
1468.74751,0.0625422
1467.78313,0.0637819
1466.81876,0.0648460
1465.85438,0.0656645
1464.89000,0.0663979
1463.92562,0.0675864
1462.96124,0.0689014
1461.99687,0.0700730
1461.03249,0.0714344
1460.06811,0.0725678
1459.10373,0.0735386
1458.13935,0.0741272
1457.17498,0.0744301
1456.21060,0.0757361
1455.24622,0.0774359
1454.28184,0.0786857
1453.31747,0.0796834
1452.35309,0.0805640
1451.38871,0.0815019
1450.42433,0.0824857
1449.45995,0.0833431
1448.49558,0.0843133
1447.53120,0.0856177
1446.56682,0.0870698
1445.60244,0.0886084
1444.63806,0.0902011
1443.67369,0.0918787
1442.70931,0.0935510
1441.74493,0.0953269
1440.78055,0.0972716
1439.81618,0.0991644
1438.85180,0.1010394
1437.88742,0.1024226
1436.92304,0.1036931
1435.95866,0.1058527
1434.99429,0.1080628
1434.02991,0.1096204
1433.06553,0.1108975
1432.10115,0.1120639
1431.13677,0.1131415
1430.17240,0.1143207
1429.20802,0.1155406
1428.24364,0.1169247
1427.27926,0.1184393
1426.31488,0.1201047
1425.35051,0.1220775
1424.38613,0.1243036
1423.42175,0.1271319
1422.45737,0.1304473
1421.49300,0.1341605
1420.52862,0.1378331
1419.56424,0.1416924
1418.59986,0.1468352
1417.63548,0.1522154
1416.67111,0.1574513
1415.70673,0.1629266
1414.74235,0.1685120
1413.77797,0.1741717
1412.81359,0.1797398
1411.84922,0.1854056
1410.88484,0.1910993
1409.92046,0.1967220
1408.95608,0.2022513
1407.99171,0.2077459
1407.02733,0.2130791
1406.06295,0.2180223
1405.09857,0.2228856
1404.13419,0.2277190
1403.16982,0.2323221
1402.20544,0.2365720
1401.24106,0.2405898
1400.27668,0.2441259
1399.31230,0.2473429
1398.34793,0.2507675
1397.38355,0.2537877
1396.41917,0.2562931
1395.45479,0.2584353
1394.49041,0.2603585
1393.52604,0.2623248
1392.56166,0.2640415
1391.59728,0.2654822
1390.63290,0.2664687
1389.66853,0.2669300
1388.70415,0.2669530
1387.73977,0.2665511
1386.77539,0.2662320
1385.81101,0.2659694
1384.84664,0.2652302
1383.88226,0.2640842
1382.91788,0.2627397
1381.95350,0.2612354
1380.98912,0.2596929
1380.02475,0.2580944
1379.06037,0.2564633
1378.09599,0.2548389
1377.13161,0.2531513
1376.16724,0.2514964
1375.20286,0.2499213
1374.23848,0.2483071
1373.27410,0.2467339
1372.30972,0.2455133
1371.34535,0.2445455
1370.38097,0.2436938
1369.41659,0.2430548
1368.45221,0.2425625
1367.48783,0.2425141
1366.52346,0.2428808
1365.55908,0.2434351
1364.59470,0.2442583
1363.63032,0.2451677
1362.66594,0.2463380
1361.70157,0.2477541
1360.73719,0.2492310
1359.77281,0.2507550
1358.80843,0.2520303
1357.84406,0.2530352
1356.87968,0.2538072
1355.91530,0.2542572
1354.95092,0.2542870
1353.98654,0.2538613
1353.02217,0.2529802
1352.05779,0.2516533
1351.09341,0.2499727
1350.12903,0.2479209
1349.16465,0.2455100
1348.20028,0.2427800
1347.23590,0.2398468
1346.27152,0.2368768
1345.30714,0.2339031
1344.34276,0.2310240
1343.37839,0.2282708
1342.41401,0.2256881
1341.44963,0.2234252
1340.48525,0.2213406
1339.52088,0.2195196
1338.55650,0.2182423
1337.59212,0.2172881
1336.62774,0.2165920
1335.66336,0.2163114
1334.69899,0.2163252
1333.73461,0.2166129
1332.77023,0.2171790
1331.80585,0.2179771
1330.84147,0.2189060
1329.87710,0.2198407
1328.91272,0.2208338
1327.94834,0.2218004
1326.98396,0.2226954
1326.01959,0.2234817
1325.05521,0.2241201
1324.09083,0.2246252
1323.12645,0.2247539
1322.16207,0.2244484
1321.19770,0.2237922
1320.23332,0.2227686
1319.26894,0.2213220
1318.30456,0.2194254
1317.34018,0.2173149
1316.37581,0.2149490
1315.41143,0.2120902
1314.44705,0.2089352
1313.48267,0.2056163
1312.51829,0.2020609
1311.55392,0.1982448
1310.58954,0.1943441
1309.62516,0.1904923
1308.66078,0.1865292
1307.69641,0.1826414
1306.73203,0.1789805
1305.76765,0.1753447
1304.80327,0.1717737
1303.83889,0.1684311
1302.87452,0.1653156
1301.91014,0.1623151
1300.94576,0.1594860
1299.98138,0.1568586
1299.01700,0.1543580
1298.05263,0.1519565
1297.08825,0.1495800
1296.12387,0.1473847
1295.15949,0.1453814
1294.19512,0.1433173
1293.23074,0.1413059
1292.26636,0.1394273
1291.30198,0.1375823
1290.33760,0.1358394
1289.37323,0.1342433
1288.40885,0.1326774
1287.44447,0.1310690
1286.48009,0.1295860
1285.51571,0.1281580
1284.55134,0.1266108
1283.58696,0.1250853
1282.62258,0.1235617
1281.65820,0.1220465
1280.69382,0.1205576
1279.72945,0.1190346
1278.76507,0.1175844
1277.80069,0.1160703
1276.83631,0.1144739
1275.87194,0.1129415
1274.90756,0.1113837
1273.94318,0.1098276
1272.97880,0.1082457
1272.01442,0.1066018
1271.05005,0.1050534
1270.08567,0.1035800
1269.12129,0.1021184
1268.15691,0.1007678
1267.19253,0.0994944
1266.22816,0.0982230
1265.26378,0.0970639
1264.29940,0.0960483
1263.33502,0.0951497
1262.37065,0.0943728
1261.40627,0.0936806
1260.44189,0.0931090
1259.47751,0.0926615
1258.51313,0.0923036
1257.54876,0.0920264
1256.58438,0.0917445
1255.62000,0.0913594
1254.65562,0.0909293
1253.69124,0.0906457
1252.72687,0.0905127
1251.76249,0.0904305
1250.79811,0.0905333
1249.83373,0.0908827
1248.86935,0.0912837
1247.90498,0.0917111
1246.94060,0.0922036
1245.97622,0.0927341
1245.01184,0.0934304
1244.04747,0.0941521
1243.08309,0.0947381
1242.11871,0.0953751
1241.15433,0.0960823
1240.18995,0.0967817
1239.22558,0.0974691
1238.26120,0.0981835
1237.29682,0.0989144
1236.33244,0.0996238
1235.36806,0.1002634
1234.40369,0.1007946
1233.43931,0.1014188
1232.47493,0.1020774
1231.51055,0.1026413
1230.54618,0.1032203
1229.58180,0.1037645
1228.61742,0.1043354
1227.65304,0.1049321
1226.68866,0.1054750
1225.72429,0.1060129
1224.75991,0.1065049
1223.79553,0.1069762
1222.83115,0.1074840
1221.86677,0.1080477
1220.90240,0.1086674
1219.93802,0.1092816
1218.97364,0.1099210
1218.00926,0.1106299
1217.04488,0.1113356
1216.08051,0.1120305
1215.11613,0.1127737
1214.15175,0.1135920
1213.18737,0.1144501
1212.22300,0.1152739
1211.25862,0.1160066
1210.29424,0.1164395
1209.32986,0.1166145
1208.36548,0.1167997
1207.40111,0.1168686
1206.43673,0.1166254
1205.47235,0.1159701
1204.50797,0.1149684
1203.54359,0.1137393
1202.57922,0.1121839
1201.61484,0.1103451
1200.65046,0.1083358
1199.68608,0.1061678
1198.72171,0.1038214
1197.75733,0.1013205
1196.79295,0.0987927
1195.82857,0.0962194
1194.86419,0.0935420
1193.89982,0.0908976
1192.93544,0.0883900
1191.97106,0.0860206
1191.00668,0.0837988
1190.04230,0.0816345
1189.07793,0.0795015
1188.11355,0.0774911
1187.14917,0.0756923
1186.18479,0.0741571
1185.22041,0.0726816
1184.25604,0.0711986
1183.29166,0.0698677
1182.32728,0.0686937
1181.36290,0.0676372
1180.39853,0.0666528
1179.43415,0.0657590
1178.46977,0.0649505
1177.50539,0.0641514
1176.54101,0.0633416
1175.57664,0.0625939
1174.61226,0.0620509
1173.64788,0.0615755
1172.68350,0.0609231
1171.71912,0.0602944
1170.75475,0.0598780
1169.79037,0.0593848
1168.82599,0.0587685
1167.86161,0.0582389
1166.89724,0.0577447
1165.93286,0.0571572
1164.96848,0.0563680
1164.00410,0.0556573
1163.03972,0.0552199
1162.07535,0.0546988
1161.11097,0.0540681
1160.14659,0.0534598
1159.18221,0.0528449
1158.21783,0.0522676
1157.25346,0.0516617
1156.28908,0.0510129
1155.32470,0.0504205
1154.36032,0.0499440
1153.39594,0.0494936
1152.43157,0.0490048
1151.46719,0.0486075
1150.50281,0.0482844
1149.53843,0.0480680
1148.57406,0.0479601
1147.60968,0.0478025
1146.64530,0.0476729
1145.68092,0.0475400
1144.71654,0.0474097
1143.75217,0.0473316
1142.78779,0.0472956
1141.82341,0.0474172
1140.85903,0.0474837
1139.89465,0.0474904
1138.93028,0.0475846
1137.96590,0.0477564
1137.00152,0.0481320
1136.03714,0.0485177
1135.07276,0.0487449
1134.10839,0.0489583
1133.14401,0.0492729
1132.17963,0.0495065
1131.21525,0.0497271
1130.25088,0.0501863
1129.28650,0.0504233
1128.32212,0.0503839
1127.35774,0.0504280
1126.39336,0.0504872
1125.42899,0.0504700
1124.46461,0.0503072
1123.50023,0.0500158
1122.53585,0.0495676
1121.57147,0.0490668
1120.60710,0.0485775
1119.64272,0.0478377
1118.67834,0.0469230
1117.71396,0.0462062
1116.74959,0.0457048
1115.78521,0.0451641
1114.82083,0.0445890
1113.85645,0.0440250
1112.89207,0.0435978
1111.92770,0.0433712
1110.96332,0.0430925
1109.99894,0.0429507
1109.03456,0.0430375
1108.07018,0.0431723
1107.10581,0.0434406
1106.14143,0.0437097
1105.17705,0.0440085
1104.21267,0.0446230
1103.24829,0.0455627
1102.28392,0.0466449
1101.31954,0.0478201
1100.35516,0.0492281
1099.39078,0.0508247
1098.42641,0.0525441
1097.46203,0.0542754
1096.49765,0.0558617
1095.53327,0.0574569
1094.56889,0.0589876
1093.60452,0.0601058
1092.64014,0.0607149
1091.67576,0.0609264
1090.71138,0.0607524
1089.74700,0.0602600
1088.78263,0.0596640
1087.81825,0.0589842
1086.85387,0.0582966
1085.88949,0.0575111
1084.92512,0.0566683
1083.96074,0.0561832
1082.99636,0.0558910
1082.03198,0.0555860
1081.06760,0.0553170
1080.10323,0.0550932
1079.13885,0.0548553
1078.17447,0.0545727
1077.21009,0.0543817
1076.24571,0.0540354
1075.28134,0.0535656
1074.31696,0.0530359
1073.35258,0.0523484
1072.38820,0.0518938
1071.42382,0.0514696
1070.45945,0.0509037
1069.49507,0.0504777
1068.53069,0.0501581
1067.56631,0.0499634
1066.60194,0.0498160
1065.63756,0.0496717
1064.67318,0.0496882
1063.70880,0.0498417
1062.74442,0.0500833
1061.78005,0.0505183
1060.81567,0.0511142
1059.85129,0.0518357
1058.88691,0.0526753
1057.92253,0.0534989
1056.95816,0.0542948
1055.99378,0.0549182
1055.02940,0.0552676
1054.06502,0.0554600
1053.10065,0.0555172
1052.13627,0.0553585
1051.17189,0.0549506
1050.20751,0.0544911
1049.24313,0.0539851
1048.27876,0.0534560
1047.31438,0.0531632
1046.35000,0.0530791
1045.38562,0.0530853
1044.42124,0.0532167
1043.45687,0.0534558
1042.49249,0.0536549
1041.52811,0.0537764
1040.56373,0.0537984
1039.59935,0.0537434
1038.63498,0.0535683
1037.67060,0.0532097
1036.70622,0.0528686
1035.74184,0.0524299
1034.77747,0.0518553
1033.81309,0.0511850
1032.84871,0.0503714
1031.88433,0.0496465
1030.91995,0.0489078
1029.95558,0.0481693
1028.99120,0.0475268
1028.02682,0.0468769
1027.06244,0.0462503
1026.09806,0.0456340
1025.13369,0.0451000
1024.16931,0.0446126
1023.20493,0.0442200
1022.24055,0.0439416
1021.27618,0.0436892
1020.31180,0.0435294
1019.34742,0.0434213
1018.38304,0.0433804
1017.41866,0.0432737
1016.45429,0.0430672
1015.48991,0.0429293
1014.52553,0.0428313
1013.56115,0.0427362
1012.59677,0.0427747
1011.63240,0.0429609
1010.66802,0.0428875
1009.70364,0.0427659
1008.73926,0.0428228
1007.77488,0.0427904
1006.81051,0.0429929
1005.84613,0.0433747
1004.88175,0.0436708
1003.91737,0.0439354
1002.95300,0.0443168
1001.98862,0.0449402
1001.02424,0.0455279
1000.05986,0.0461437
999.09548,0.0467596
998.13111,0.0471008
997.16673,0.0472201
996.20235,0.0472969
995.23797,0.0474600
994.27359,0.0474685
993.30922,0.0473755
992.34484,0.0473264
991.38046,0.0472152
990.41608,0.0471392
989.45171,0.0472145
988.48733,0.0474807
987.52295,0.0477652
986.55857,0.0481863
985.59419,0.0488855
984.62982,0.0496926
983.66544,0.0505804
982.70106,0.0515079
981.73668,0.0525978
980.77230,0.0537004
979.80793,0.0544723
978.84355,0.0549602
977.87917,0.0552483
976.91479,0.0552204
975.95041,0.0548242
974.98604,0.0542410
974.02166,0.0534543
973.05728,0.0527002
972.09290,0.0520578
971.12853,0.0513509
970.16415,0.0511209
969.19977,0.0513388
968.23539,0.0517301
967.27101,0.0527046
966.30664,0.0543642
965.34226,0.0565133
964.37788,0.0589147
963.41350,0.0614656
962.44912,0.0642369
961.48475,0.0669778
960.52037,0.0694236
959.55599,0.0717313
958.59161,0.0735668
957.62724,0.0746992
956.66286,0.0757787
955.69848,0.0765492
954.73410,0.0764071
953.76972,0.0755587
952.80535,0.0742361
951.84097,0.0726114
950.87659,0.0705858
949.91221,0.0680695
948.94783,0.0652807
947.98346,0.0625194
947.01908,0.0600507
946.05470,0.0577924
945.09032,0.0557133
944.12594,0.0539216
943.16157,0.0524777
942.19719,0.0514991
941.23281,0.0508299
940.26843,0.0504601
939.30406,0.0505539
938.33968,0.0508663
937.37530,0.0515591
936.41092,0.0529718
935.44654,0.0547355
934.48217,0.0566105
933.51779,0.0588518
932.55341,0.0616173
931.58903,0.0646750
930.62465,0.0679698
929.66028,0.0717913
928.69590,0.0760296
927.73152,0.0804918
926.76714,0.0854288
925.80276,0.0910769
924.83839,0.0970563
923.87401,0.1031284
922.90963,0.1094490
921.94525,0.1154359
920.98088,0.1209670
920.01650,0.1263535
919.05212,0.1310441
918.08774,0.1352093
917.12336,0.1393813
916.15899,0.1433326
915.19461,0.1469433
914.23023,0.1502326
913.26585,0.1531892
912.30147,0.1557408
911.33710,0.1575128
910.37272,0.1578893
909.40834,0.1568076
908.44396,0.1548489
907.47959,0.1518951
906.51521,0.1477331
905.55083,0.1428803
904.58645,0.1375100
903.62207,0.1319050
902.65770,0.1263644
901.69332,0.1205444
900.72894,0.1145413
899.76456,0.1087453
898.80018,0.1034406
897.83581,0.0986658
896.87143,0.0941378
895.90705,0.0899684
894.94267,0.0860619
893.97829,0.0823020
893.01392,0.0789832
892.04954,0.0758723
891.08516,0.0729554
890.12078,0.0704274
889.15641,0.0680005
888.19203,0.0655975
887.22765,0.0633068
886.26327,0.0612687
885.29889,0.0594694
884.33452,0.0577801
883.37014,0.0562337
882.40576,0.0549074
881.44138,0.0538723
880.47700,0.0529421
879.51263,0.0521917
878.54825,0.0515673
877.58387,0.0508139
876.61949,0.0503565
875.65512,0.0503818
874.69074,0.0506007
873.72636,0.0509219
872.76198,0.0515782
871.79760,0.0523770
870.83323,0.0531937
869.86885,0.0545183
868.90447,0.0559741
867.94009,0.0573663
866.97571,0.0588667
866.01134,0.0602328
865.04696,0.0616800
864.08258,0.0631504
863.11820,0.0644643
862.15382,0.0654979
861.18945,0.0660631
860.22507,0.0663766
859.26069,0.0665371
858.29631,0.0663803
857.33194,0.0658009
856.36756,0.0651116
855.40318,0.0644818
854.43880,0.0637700
853.47442,0.0629767
852.51005,0.0621340
851.54567,0.0613518
850.58129,0.0604587
849.61691,0.0594451
848.65253,0.0586114
847.68816,0.0579328
846.72378,0.0572636
845.75940,0.0565111
844.79502,0.0557996
843.83065,0.0551297
842.86627,0.0544016
841.90189,0.0537372
840.93751,0.0530547
839.97313,0.0523155
839.00876,0.0517034
838.04438,0.0512406
837.08000,0.0507677
836.11562,0.0502620
835.15124,0.0498404
834.18687,0.0493340
833.22249,0.0487742
832.25811,0.0485194
831.29373,0.0482447
830.32935,0.0479081
829.36498,0.0480544
828.40060,0.0482285
827.43622,0.0482041
826.47184,0.0483308
825.50747,0.0484584
824.54309,0.0486697
823.57871,0.0491478
822.61433,0.0499066
821.64995,0.0505737
820.68558,0.0511689
819.72120,0.0523185
818.75682,0.0538021
817.79244,0.0554539
816.82806,0.0572708
815.86369,0.0590262
814.89931,0.0608577
813.93493,0.0628705
812.97055,0.0649891
812.00618,0.0668320
811.04180,0.0683909
810.07742,0.0699692
809.11304,0.0713020
808.14866,0.0721998
807.18429,0.0728159
806.21991,0.0731249
805.25553,0.0730478
804.29115,0.0726772
803.32677,0.0721085
802.36240,0.0714468
801.39802,0.0705780
800.43364,0.0696955
799.46926,0.0690184
798.50488,0.0680101
797.54051,0.0669377
796.57613,0.0662386
795.61175,0.0655631
794.64737,0.0648611
793.68300,0.0640125
792.71862,0.0631483
791.75424,0.0624576
790.78986,0.0620210
789.82548,0.0616810
788.86111,0.0610571
787.89673,0.0605822
786.93235,0.0602298
785.96797,0.0598592
785.00359,0.0597093
784.03922,0.0593450
783.07484,0.0588869
782.11046,0.0586720
781.14608,0.0585755
780.18171,0.0586771
779.21733,0.0588036
778.25295,0.0587706
777.28857,0.0586673
776.32419,0.0584977
775.35982,0.0585808
774.39544,0.0588756
773.43106,0.0588952
772.46668,0.0590372
771.50230,0.0593582
770.53793,0.0594084
769.57355,0.0594348
768.60917,0.0595937
767.64479,0.0599817
766.68041,0.0605399
765.71604,0.0610645
764.75166,0.0613964
763.78728,0.0613731
762.82290,0.0615365
761.85853,0.0620672
760.89415,0.0626959
759.92977,0.0632963
758.96539,0.0636752
758.00101,0.0641707
757.03664,0.0646505
756.07226,0.0650646
755.10788,0.0659477
754.14350,0.0669439
753.17912,0.0675996
752.21475,0.0679450
751.25037,0.0684921
750.28599,0.0693436
749.32161,0.0699125
748.35724,0.0704054
747.39286,0.0709834
746.42848,0.0715054
745.46410,0.0721284
744.49972,0.0726175
743.53535,0.0727678
742.57097,0.0730673
741.60659,0.0738013
740.64221,0.0744799
739.67783,0.0746461
738.71346,0.0746700
737.74908,0.0752192
736.78470,0.0759411
735.82032,0.0765924
734.85594,0.0773790
733.89157,0.0783914
732.92719,0.0796822
731.96281,0.0804893
730.99843,0.0810464
730.03406,0.0820293
729.06968,0.0832683
728.10530,0.0844500
727.14092,0.0852878
726.17654,0.0864008
725.21217,0.0879200
724.24779,0.0898052
723.28341,0.0916663
722.31903,0.0929919
721.35465,0.0946903
720.39028,0.0965851
719.42590,0.0985373
718.46152,0.1006243
717.49714,0.1024502
716.53276,0.1045178
715.56839,0.1065895
714.60401,0.1084817
713.63963,0.1104298
712.67525,0.1124643
711.71088,0.1146079
710.74650,0.1165428
709.78212,0.1182189
708.81774,0.1197517
707.85336,0.1214217
706.88899,0.1230365
705.92461,0.1243018
704.96023,0.1257164
703.99585,0.1271366
703.03147,0.1282957
702.06710,0.1294691
701.10272,0.1307568
700.13834,0.1319294
699.17396,0.1329712
698.20959,0.1341220
697.24521,0.1350232
696.28083,0.1359878
695.31645,0.1371708
694.35207,0.1381403
693.38770,0.1393512
692.42332,0.1404136
691.45894,0.1409760
690.49456,0.1412963
689.53018,0.1413928
688.56581,0.1410748
687.60143,0.1402545
686.63705,0.1394918
685.67267,0.1383175
684.70829,0.1365069
683.74392,0.1343256
682.77954,0.1317588
681.81516,0.1292281
680.85078,0.1267375
679.88641,0.1241465
678.92203,0.1214237
677.95765,0.1189066
676.99327,0.1168075
676.02889,0.1149362
675.06452,0.1130512
674.10014,0.1111487
673.13576,0.1095330
672.17138,0.1082312
671.20700,0.1071300
670.24263,0.1060482
669.27825,0.1051896
668.31387,0.1044893
667.34949,0.1033706
666.38512,0.1023508
665.42074,0.1017136
664.45636,0.1012095
663.49198,0.1008331
662.52760,0.1005790
661.56323,0.1002716
660.59885,0.1000071
659.63447,0.0997870
658.67009,0.0996767
657.70571,0.0997723
656.74134,0.0998858
655.77696,0.1001217
654.81258,0.1001719
653.84820,0.1001956
652.88382,0.1005332
651.91945,0.1008366
650.95507,0.1013788
649.99069,0.1021269
649.02631,0.1027511
648.06194,0.1033232
647.09756,0.1040498
646.13318,0.1049091
645.16880,0.1057820
644.20442,0.1067787
643.24005,0.1076564
642.27567,0.1084630
641.31129,0.1090818
640.34691,0.1095222
639.38253,0.1103614
638.41816,0.1112562
637.45378,0.1117854
636.48940,0.1118480
635.52502,0.1119654
634.56065,0.1124799
633.59627,0.1126794
632.63189,0.1127625
631.66751,0.1127819
630.70313,0.1125023
629.73876,0.1122903
628.77438,0.1120247
627.81000,0.1117727
626.84562,0.1114088
625.88124,0.1107344
624.91687,0.1103476
623.95249,0.1098688
622.98811,0.1097101
622.02373,0.1102947
621.05935,0.1103697
620.09498,0.1093878
619.13060,0.1085484
618.16622,0.1087345
617.20184,0.1084408
616.23747,0.1084540
615.27309,0.1099747
614.30871,0.1094541
613.34433,0.1087992
612.37995,0.1109362
611.41558,0.1093527
610.45120,0.1073849
609.48682,0.1103791
608.52244,0.1118999
607.55806,0.1110967
606.59369,0.1084117
605.62931,0.1066591
604.66493,0.1074963
603.70055,0.1090246
602.73618,0.1114661
601.77180,0.1138183
600.80742,0.1146028
599.84304,0.1142951
598.87866,0.1134086
597.91429,0.1127879
596.94991,0.1129946
595.98553,0.1140805
595.02115,0.1149698
594.05677,0.1148590
593.09240,0.1148929
592.12802,0.1156305
591.16364,0.1162632
590.19926,0.1161768
589.23488,0.1159658
588.27051,0.1162994
587.30613,0.1166625
586.34175,0.1168390
585.37737,0.1167792
584.41300,0.1166204
583.44862,0.1168131
582.48424,0.1172543
581.51986,0.1179814
580.55548,0.1183180
579.59111,0.1179355
578.62673,0.1180838
577.66235,0.1187987
576.69797,0.1192664
575.73359,0.1199408
574.76922,0.1210265
573.80484,0.1217962
572.84046,0.1222425
571.87608,0.1225326
570.91171,0.1228422
569.94733,0.1234165
568.98295,0.1238073
568.01857,0.1239254
567.05419,0.1235669
566.08982,0.1228706
565.12544,0.1225835
564.16106,0.1226020
563.19668,0.1226600
562.23230,0.1223675
561.26793,0.1214368
560.30355,0.1202464
559.33917,0.1194669
558.37479,0.1190359
557.41041,0.1185983
556.44604,0.1178003
555.48166,0.1166155
554.51728,0.1162157
553.55290,0.1159558
552.58853,0.1154354
551.62415,0.1155782
550.65977,0.1154609
549.69539,0.1149835
548.73101,0.1144735
547.76664,0.1141343
546.80226,0.1143508
545.83788,0.1145089
544.87350,0.1144099
543.90912,0.1140607
542.94475,0.1137885
541.98037,0.1136500
541.01599,0.1133812
540.05161,0.1135191
539.08724,0.1140543
538.12286,0.1141617
537.15848,0.1134377
536.19410,0.1129688
535.22972,0.1133067
534.26535,0.1133968
533.30097,0.1131372
532.33659,0.1128223
531.37221,0.1126685
530.40783,0.1127698
529.44346,0.1122227
528.47908,0.1114781
527.51470,0.1113985
526.55032,0.1112943
525.58594,0.1110941
524.62157,0.1106656
523.65719,0.1097387
522.69281,0.1090355
521.72843,0.1087303
520.76406,0.1083704
519.79968,0.1078352
518.83530,0.1072907
517.87092,0.1066260
516.90654,0.1055778
515.94217,0.1042324
514.97779,0.1035858
514.01341,0.1037205
513.04903,0.1035851
512.08465,0.1036743
511.12028,0.1034880
510.15590,0.1027558
509.19152,0.1025127
508.22714,0.1022415
507.26276,0.1021710
506.29839,0.1019673
505.33401,0.1014802
504.36963,0.1018534
503.40525,0.1024425
502.44088,0.1026989
501.47650,0.1027990
500.51212,0.1032001
499.54774,0.1038718
498.58336,0.1045534
497.61899,0.1052795
496.65461,0.1053317
495.69023,0.1055194
494.72585,0.1060517
493.76147,0.1060635
492.79710,0.1063855
491.83272,0.1068026
490.86834,0.1065365
489.90396,0.1059069
488.93959,0.1053215
487.97521,0.1048133
487.01083,0.1042567
486.04645,0.1036464
485.08207,0.1026555
484.11770,0.1013243
483.15332,0.0997341
482.18894,0.0980890
481.22456,0.0971422
480.26018,0.0963327
479.29581,0.0952937
478.33143,0.0944466
477.36705,0.0932547
476.40267,0.0919728
475.43829,0.0906901
474.47392,0.0890142
473.50954,0.0880043
472.54516,0.0877613
471.58078,0.0871868
470.61641,0.0863748
469.65203,0.0860312
468.68765,0.0857927
467.72327,0.0854628
466.75889,0.0855750
465.79452,0.0852610
464.83014,0.0845285
463.86576,0.0839511
462.90138,0.0832324
461.93700,0.0832207
460.97263,0.0833408
460.00825,0.0830245
459.04387,0.0833005
458.07949,0.0838458
457.11512,0.0846075
456.15074,0.0857905
455.18636,0.0864984
454.22198,0.0864690
453.25760,0.0870506
452.29323,0.0887479
451.32885,0.0904040
450.36447,0.0916551
449.40009,0.0926284
448.43571,0.0934612
447.47134,0.0947266
446.50696,0.0963454
445.54258,0.0971525
444.57820,0.0974482
443.61382,0.0986167
442.64945,0.0999245
441.68507,0.1005044
440.72069,0.1007095
439.75631,0.1011345
438.79194,0.1016520
437.82756,0.1011882
436.86318,0.1007377
435.89880,0.1013274
434.93442,0.1015403
433.97005,0.1009629
433.00567,0.1000918
432.04129,0.0994795
431.07691,0.0993398
430.11253,0.0983803
429.14816,0.0963708
428.18378,0.0947362
427.21940,0.0933871
426.25502,0.0911575
425.29065,0.0887673
424.32627,0.0871118
423.36189,0.0854554
422.39751,0.0836429
421.43313,0.0819807
420.46876,0.0800386
419.50438,0.0777407
418.54000,0.0761506
417.57562,0.0756903
416.61124,0.0754022
415.64687,0.0745028
414.68249,0.0729815
413.71811,0.0718362
412.75373,0.0715464
411.78935,0.0712238
410.82498,0.0705890
409.86060,0.0697688
408.89622,0.0689788
407.93184,0.0685382
406.96747,0.0682702
406.00309,0.0682588
405.03871,0.0682382
404.07433,0.0681910
403.10995,0.0680926
402.14558,0.0673994
401.18120,0.0665434
400.21682,0.0657162
399.25244,0.0651901
