3998.31069,-0.0055008
3997.34631,-0.0055008
3996.38194,-0.0055008
3995.41756,-0.0055008
3994.45318,-0.0055008
3993.48880,-0.0055008
3992.52442,-0.0055008
3991.56005,-0.0055307
3990.59567,-0.0054975
3989.63129,-0.0054630
3988.66691,-0.0054049
3987.70253,-0.0053887
3986.73816,-0.0053716
3985.77378,-0.0053181
3984.80940,-0.0053320
3983.84502,-0.0053697
3982.88065,-0.0054013
3981.91627,-0.0054508
3980.95189,-0.0055162
3979.98751,-0.0055333
3979.02313,-0.0054827
3978.05876,-0.0054355
3977.09438,-0.0053978
3976.13000,-0.0054090
3975.16562,-0.0054477
3974.20124,-0.0054624
3973.23687,-0.0054703
3972.27249,-0.0054591
3971.30811,-0.0054595
3970.34373,-0.0054631
3969.37935,-0.0054058
3968.41498,-0.0052775
3967.45060,-0.0051431
3966.48622,-0.0050639
3965.52184,-0.0050384
3964.55747,-0.0050736
3963.59309,-0.0051251
3962.62871,-0.0051414
3961.66433,-0.0051678
3960.69995,-0.0052527
3959.73558,-0.0053247
3958.77120,-0.0053057
3957.80682,-0.0052806
3956.84244,-0.0052971
3955.87806,-0.0053224
3954.91369,-0.0053527
3953.94931,-0.0053684
3952.98493,-0.0053712
3952.02055,-0.0053680
3951.05618,-0.0053627
3950.09180,-0.0053425
3949.12742,-0.0053180
3948.16304,-0.0052923
3947.19866,-0.0052362
3946.23429,-0.0052166
3945.26991,-0.0052108
3944.30553,-0.0051959
3943.34115,-0.0052357
3942.37677,-0.0052579
3941.41240,-0.0052689
3940.44802,-0.0053036
3939.48364,-0.0052984
3938.51926,-0.0052571
3937.55488,-0.0052106
3936.59051,-0.0051456
3935.62613,-0.0050490
3934.66175,-0.0049853
3933.69737,-0.0049880
3932.73300,-0.0050567
3931.76862,-0.0051741
3930.80424,-0.0052515
3929.83986,-0.0052976
3928.87548,-0.0053379
3927.91111,-0.0053267
3926.94673,-0.0052742
3925.98235,-0.0052012
3925.01797,-0.0051056
3924.05359,-0.0050542
3923.08922,-0.0050856
3922.12484,-0.0051134
3921.16046,-0.0051352
3920.19608,-0.0051911
3919.23171,-0.0052392
3918.26733,-0.0052767
3917.30295,-0.0053224
3916.33857,-0.0053234
3915.37419,-0.0052590
3914.40982,-0.0051990
3913.44544,-0.0051505
3912.48106,-0.0051305
3911.51668,-0.0051451
3910.55230,-0.0051415
3909.58793,-0.0051500
3908.62355,-0.0051596
3907.65917,-0.0051691
3906.69479,-0.0051774
3905.73041,-0.0051544
3904.76604,-0.0051195
3903.80166,-0.0050545
3902.83728,-0.0049754
3901.87290,-0.0049008
3900.90853,-0.0048935
3899.94415,-0.0049575
3898.97977,-0.0049958
3898.01539,-0.0050588
3897.05101,-0.0051366
3896.08664,-0.0051679
3895.12226,-0.0051799
3894.15788,-0.0051988
3893.19350,-0.0052050
3892.22912,-0.0051277
3891.26475,-0.0050006
3890.30037,-0.0048904
3889.33599,-0.0048286
3888.37161,-0.0047657
3887.40724,-0.0046868
3886.44286,-0.0047042
3885.47848,-0.0047235
3884.51410,-0.0047000
3883.54972,-0.0047693
3882.58535,-0.0048874
3881.62097,-0.0049357
3880.65659,-0.0049001
3879.69221,-0.0048762
3878.72783,-0.0048966
3877.76346,-0.0049278
3876.79908,-0.0049820
3875.83470,-0.0050563
3874.87032,-0.0051114
3873.90594,-0.0051112
3872.94157,-0.0051067
3871.97719,-0.0051125
3871.01281,-0.0050848
3870.04843,-0.0050088
3869.08406,-0.0048706
3868.11968,-0.0047401
3867.15530,-0.0046764
3866.19092,-0.0046883
3865.22654,-0.0047603
3864.26217,-0.0048163
3863.29779,-0.0048394
3862.33341,-0.0048686
3861.36903,-0.0049374
3860.40465,-0.0050296
3859.44028,-0.0050955
3858.47590,-0.0051117
3857.51152,-0.0050370
3856.54714,-0.0048847
3855.58276,-0.0047307
3854.61839,-0.0046342
3853.65401,-0.0045649
3852.68963,-0.0044785
3851.72525,-0.0044354
3850.76088,-0.0044926
3849.79650,-0.0046291
3848.83212,-0.0047597
3847.86774,-0.0048504
3846.90336,-0.0049356
3845.93899,-0.0049611
3844.97461,-0.0048639
3844.01023,-0.0047297
3843.04585,-0.0046561
3842.08147,-0.0045624
3841.11710,-0.0044356
3840.15272,-0.0043885
3839.18834,-0.0044365
3838.22396,-0.0045163
3837.25959,-0.0045593
3836.29521,-0.0045802
3835.33083,-0.0045984
3834.36645,-0.0045747
3833.40207,-0.0045256
3832.43770,-0.0045204
3831.47332,-0.0045438
3830.50894,-0.0045517
3829.54456,-0.0046047
3828.58018,-0.0046801
3827.61581,-0.0047438
3826.65143,-0.0048174
3825.68705,-0.0048573
3824.72267,-0.0048263
3823.75829,-0.0047081
3822.79392,-0.0046134
3821.82954,-0.0045895
3820.86516,-0.0045487
3819.90078,-0.0045244
3818.93641,-0.0045733
3817.97203,-0.0046680
3817.00765,-0.0047076
3816.04327,-0.0047143
3815.07889,-0.0047625
3814.11452,-0.0048137
3813.15014,-0.0048145
3812.18576,-0.0047487
3811.22138,-0.0046910
3810.25700,-0.0046159
3809.29263,-0.0045134
3808.32825,-0.0044849
3807.36387,-0.0045024
3806.39949,-0.0044870
3805.43512,-0.0044068
3804.47074,-0.0043432
3803.50636,-0.0043372
3802.54198,-0.0043909
3801.57760,-0.0044972
3800.61323,-0.0045249
3799.64885,-0.0045074
3798.68447,-0.0045330
3797.72009,-0.0045627
3796.75571,-0.0045663
3795.79134,-0.0045272
3794.82696,-0.0044652
3793.86258,-0.0044376
3792.89820,-0.0044441
3791.93382,-0.0044298
3790.96945,-0.0044698
3790.00507,-0.0045784
3789.04069,-0.0046125
3788.07631,-0.0045891
3787.11194,-0.0045469
3786.14756,-0.0044846
3785.18318,-0.0044681
3784.21880,-0.0045207
3783.25442,-0.0045961
3782.29005,-0.0046358
3781.32567,-0.0046399
3780.36129,-0.0046630
3779.39691,-0.0047132
3778.43253,-0.0047352
3777.46816,-0.0047102
3776.50378,-0.0046575
3775.53940,-0.0046565
3774.57502,-0.0047495
3773.61065,-0.0048334
3772.64627,-0.0048723
3771.68189,-0.0048665
3770.71751,-0.0048089
3769.75313,-0.0047637
3768.78876,-0.0047303
3767.82438,-0.0046500
3766.86000,-0.0045340
3765.89562,-0.0044753
3764.93124,-0.0044960
3763.96687,-0.0045616
3763.00249,-0.0046126
3762.03811,-0.0045790
3761.07373,-0.0045397
3760.10935,-0.0045383
3759.14498,-0.0045433
3758.18060,-0.0045435
3757.21622,-0.0044988
3756.25184,-0.0044053
3755.28747,-0.0042335
3754.32309,-0.0040252
3753.35871,-0.0038442
3752.39433,-0.0036954
3751.42995,-0.0036391
3750.46558,-0.0036500
3749.50120,-0.0036444
3748.53682,-0.0036752
3747.57244,-0.0038305
3746.60806,-0.0040230
3745.64369,-0.0041532
3744.67931,-0.0042699
3743.71493,-0.0043028
3742.75055,-0.0042202
3741.78618,-0.0040891
3740.82180,-0.0039595
3739.85742,-0.0038665
3738.89304,-0.0037708
3737.92866,-0.0036943
3736.96429,-0.0037149
3735.99991,-0.0038457
3735.03553,-0.0039934
3734.07115,-0.0041534
3733.10677,-0.0044110
3732.14240,-0.0046132
3731.17802,-0.0046916
3730.21364,-0.0047212
3729.24926,-0.0047149
3728.28488,-0.0046672
3727.32051,-0.0046060
3726.35613,-0.0046179
3725.39175,-0.0045936
3724.42737,-0.0044463
3723.46300,-0.0042865
3722.49862,-0.0042303
3721.53424,-0.0043132
3720.56986,-0.0044314
3719.60548,-0.0045418
3718.64111,-0.0046354
3717.67673,-0.0047279
3716.71235,-0.0047890
3715.74797,-0.0047211
3714.78359,-0.0046248
3713.81922,-0.0045050
3712.85484,-0.0043022
3711.89046,-0.0041324
3710.92608,-0.0040556
3709.96171,-0.0040481
3708.99733,-0.0040538
3708.03295,-0.0040619
3707.06857,-0.0040872
3706.10419,-0.0041245
3705.13982,-0.0041292
3704.17544,-0.0040364
3703.21106,-0.0039352
3702.24668,-0.0038777
3701.28230,-0.0037815
3700.31793,-0.0036783
3699.35355,-0.0036527
3698.38917,-0.0037189
3697.42479,-0.0038377
3696.46041,-0.0039917
3695.49604,-0.0041706
3694.53166,-0.0043212
3693.56728,-0.0044009
3692.60290,-0.0043736
3691.63853,-0.0043161
3690.67415,-0.0042933
3689.70977,-0.0042149
3688.74539,-0.0041185
3687.78101,-0.0040871
3686.81664,-0.0041669
3685.85226,-0.0043256
3684.88788,-0.0044319
3683.92350,-0.0044928
3682.95912,-0.0044951
3681.99475,-0.0043931
3681.03037,-0.0042404
3680.06599,-0.0041118
3679.10161,-0.0040298
3678.13724,-0.0039628
3677.17286,-0.0039578
3676.20848,-0.0040286
3675.24410,-0.0041588
3674.27972,-0.0042791
3673.31535,-0.0042936
3672.35097,-0.0042277
3671.38659,-0.0041509
3670.42221,-0.0041149
3669.45783,-0.0040262
3668.49346,-0.0039029
3667.52908,-0.0038522
3666.56470,-0.0038534
3665.60032,-0.0039382
3664.63594,-0.0040776
3663.67157,-0.0042118
3662.70719,-0.0043186
3661.74281,-0.0044144
3660.77843,-0.0044865
3659.81406,-0.0045319
3658.84968,-0.0045728
3657.88530,-0.0044917
3656.92092,-0.0043392
3655.95654,-0.0041823
3654.99217,-0.0040270
3654.02779,-0.0039126
3653.06341,-0.0037668
3652.09903,-0.0036290
3651.13465,-0.0035283
3650.17028,-0.0034912
3649.20590,-0.0034877
3648.24152,-0.0034684
3647.27714,-0.0034901
3646.31276,-0.0034966
3645.34839,-0.0035269
3644.38401,-0.0035906
3643.41963,-0.0036338
3642.45525,-0.0036384
3641.49088,-0.0036072
3640.52650,-0.0036177
3639.56212,-0.0036081
3638.59774,-0.0035934
3637.63336,-0.0036087
3636.66899,-0.0036530
3635.70461,-0.0037248
3634.74023,-0.0037257
3633.77585,-0.0037033
3632.81147,-0.0036839
3631.84710,-0.0036757
3630.88272,-0.0036882
3629.91834,-0.0037126
3628.95396,-0.0037271
3627.98959,-0.0036568
3627.02521,-0.0036141
3626.06083,-0.0036169
3625.09645,-0.0036185
3624.13207,-0.0036399
3623.16770,-0.0036552
3622.20332,-0.0037188
3621.23894,-0.0038140
3620.27456,-0.0039002
3619.31018,-0.0039312
3618.34581,-0.0039159
3617.38143,-0.0038604
3616.41705,-0.0037344
3615.45267,-0.0036666
3614.48829,-0.0036240
3613.52392,-0.0035476
3612.55954,-0.0035071
3611.59516,-0.0034828
3610.63078,-0.0034567
3609.66641,-0.0034120
3608.70203,-0.0033649
3607.73765,-0.0033241
3606.77327,-0.0032892
3605.80889,-0.0032546
3604.84452,-0.0032578
3603.88014,-0.0033530
3602.91576,-0.0034315
3601.95138,-0.0034632
3600.98700,-0.0035029
3600.02263,-0.0035226
3599.05825,-0.0035291
3598.09387,-0.0035650
3597.12949,-0.0036156
3596.16512,-0.0036344
3595.20074,-0.0036611
3594.23636,-0.0037290
3593.27198,-0.0038130
3592.30760,-0.0038207
3591.34323,-0.0037109
3590.37885,-0.0036111
3589.41447,-0.0035602
3588.45009,-0.0035184
3587.48571,-0.0034770
3586.52134,-0.0034718
3585.55696,-0.0035140
3584.59258,-0.0035492
3583.62820,-0.0035932
3582.66382,-0.0036123
3581.69945,-0.0035521
3580.73507,-0.0034086
3579.77069,-0.0032380
3578.80631,-0.0031502
3577.84194,-0.0031456
3576.87756,-0.0032142
3575.91318,-0.0033442
3574.94880,-0.0035136
3573.98442,-0.0036825
3573.02005,-0.0037811
3572.05567,-0.0037947
3571.09129,-0.0037025
3570.12691,-0.0035789
3569.16253,-0.0034888
3568.19816,-0.0034167
3567.23378,-0.0033861
3566.26940,-0.0033924
3565.30502,-0.0033991
3564.34065,-0.0033162
3563.37627,-0.0031534
3562.41189,-0.0030293
3561.44751,-0.0029696
3560.48313,-0.0029508
3559.51876,-0.0029907
3558.55438,-0.0031232
3557.59000,-0.0032880
3556.62562,-0.0034321
3555.66124,-0.0035497
3554.69687,-0.0036307
3553.73249,-0.0036603
3552.76811,-0.0035805
3551.80373,-0.0034282
3550.83935,-0.0032999
3549.87498,-0.0032290
3548.91060,-0.0032092
3547.94622,-0.0032302
3546.98184,-0.0032471
3546.01747,-0.0032236
3545.05309,-0.0032174
3544.08871,-0.0032425
3543.12433,-0.0033132
3542.15995,-0.0034025
3541.19558,-0.0034049
3540.23120,-0.0033376
3539.26682,-0.0032851
3538.30244,-0.0032985
3537.33806,-0.0033005
3536.37369,-0.0032498
3535.40931,-0.0032039
3534.44493,-0.0031686
3533.48055,-0.0031715
3532.51618,-0.0031755
3531.55180,-0.0031830
3530.58742,-0.0032066
3529.62304,-0.0031744
3528.65866,-0.0031164
3527.69429,-0.0030552
3526.72991,-0.0029935
3525.76553,-0.0029372
3524.80115,-0.0029010
3523.83677,-0.0029053
3522.87240,-0.0029152
3521.90802,-0.0029318
3520.94364,-0.0029568
3519.97926,-0.0030256
3519.01488,-0.0031174
3518.05051,-0.0031387
3517.08613,-0.0030963
3516.12175,-0.0030102
3515.15737,-0.0029486
3514.19300,-0.0029518
3513.22862,-0.0029626
3512.26424,-0.0029656
3511.29986,-0.0029761
3510.33548,-0.0030053
3509.37111,-0.0030174
3508.40673,-0.0029971
3507.44235,-0.0029767
3506.47797,-0.0029675
3505.51359,-0.0029237
3504.54922,-0.0028293
3503.58484,-0.0027776
3502.62046,-0.0027623
3501.65608,-0.0027389
3500.69171,-0.0027400
3499.72733,-0.0027649
3498.76295,-0.0027857
3497.79857,-0.0027620
3496.83419,-0.0027418
3495.86982,-0.0027756
3494.90544,-0.0028060
3493.94106,-0.0027838
3492.97668,-0.0027236
3492.01230,-0.0026840
3491.04793,-0.0026593
3490.08355,-0.0026186
3489.11917,-0.0025689
3488.15479,-0.0025366
3487.19041,-0.0025366
3486.22604,-0.0025437
3485.26166,-0.0025738
3484.29728,-0.0026416
3483.33290,-0.0027164
3482.36853,-0.0027560
3481.40415,-0.0027534
3480.43977,-0.0027468
3479.47539,-0.0027452
3478.51101,-0.0027361
3477.54664,-0.0027203
3476.58226,-0.0027085
3475.61788,-0.0026563
3474.65350,-0.0025880
3473.68912,-0.0025889
3472.72475,-0.0026143
3471.76037,-0.0026060
3470.79599,-0.0025163
3469.83161,-0.0023728
3468.86724,-0.0022748
3467.90286,-0.0022406
3466.93848,-0.0022589
3465.97410,-0.0022960
3465.00972,-0.0023451
3464.04535,-0.0023986
3463.08097,-0.0024741
3462.11659,-0.0025771
3461.15221,-0.0026190
3460.18783,-0.0025942
3459.22346,-0.0024991
3458.25908,-0.0023519
3457.29470,-0.0022221
3456.33032,-0.0021166
3455.36594,-0.0020617
3454.40157,-0.0020547
3453.43719,-0.0020865
3452.47281,-0.0021555
3451.50843,-0.0022408
3450.54406,-0.0023196
3449.57968,-0.0023656
3448.61530,-0.0023825
3447.65092,-0.0023460
3446.68654,-0.0022661
3445.72217,-0.0021776
3444.75779,-0.0020681
3443.79341,-0.0019637
3442.82903,-0.0019138
3441.86465,-0.0019324
3440.90028,-0.0019849
3439.93590,-0.0020350
3438.97152,-0.0020878
3438.00714,-0.0021677
3437.04276,-0.0022396
3436.07839,-0.0022499
3435.11401,-0.0022205
3434.14963,-0.0021495
3433.18525,-0.0020197
3432.22088,-0.0018731
3431.25650,-0.0017696
3430.29212,-0.0017088
3429.32774,-0.0016543
3428.36336,-0.0016370
3427.39899,-0.0016972
3426.43461,-0.0018023
3425.47023,-0.0018903
3424.50585,-0.0019927
3423.54147,-0.0021423
3422.57710,-0.0022844
3421.61272,-0.0023767
3420.64834,-0.0023700
3419.68396,-0.0022860
3418.71959,-0.0021919
3417.75521,-0.0020987
3416.79083,-0.0019951
3415.82645,-0.0018575
3414.86207,-0.0017318
3413.89770,-0.0016787
3412.93332,-0.0017170
3411.96894,-0.0018155
3411.00456,-0.0019038
3410.04018,-0.0019544
3409.07581,-0.0019572
3408.11143,-0.0019562
3407.14705,-0.0019897
3406.18267,-0.0020125
3405.21829,-0.0019836
3404.25392,-0.0019129
3403.28954,-0.0018518
3402.32516,-0.0018326
3401.36078,-0.0018498
3400.39641,-0.0018822
3399.43203,-0.0019237
3398.46765,-0.0019700
3397.50327,-0.0020046
3396.53889,-0.0020100
3395.57452,-0.0019645
3394.61014,-0.0018867
3393.64576,-0.0017985
3392.68138,-0.0017150
3391.71700,-0.0016488
3390.75263,-0.0016237
3389.78825,-0.0016606
3388.82387,-0.0016979
3387.85949,-0.0017032
3386.89512,-0.0016967
3385.93074,-0.0016800
3384.96636,-0.0016288
3384.00198,-0.0015409
3383.03760,-0.0014691
3382.07323,-0.0014306
3381.10885,-0.0014312
3380.14447,-0.0014434
3379.18009,-0.0014656
3378.21571,-0.0015424
3377.25134,-0.0016010
3376.28696,-0.0015845
3375.32258,-0.0015462
3374.35820,-0.0015251
3373.39382,-0.0014873
3372.42945,-0.0014332
3371.46507,-0.0014167
3370.50069,-0.0014227
3369.53631,-0.0014278
3368.57194,-0.0014158
3367.60756,-0.0013913
3366.64318,-0.0014003
3365.67880,-0.0013978
3364.71442,-0.0013252
3363.75005,-0.0012524
3362.78567,-0.0012116
3361.82129,-0.0011716
3360.85691,-0.0011840
3359.89253,-0.0012448
3358.92816,-0.0012876
3357.96378,-0.0013193
3356.99940,-0.0013693
3356.03502,-0.0014145
3355.07065,-0.0014384
3354.10627,-0.0014680
3353.14189,-0.0014597
3352.17751,-0.0014170
3351.21313,-0.0013869
3350.24876,-0.0013523
3349.28438,-0.0013216
3348.32000,-0.0012643
3347.35562,-0.0011873
3346.39124,-0.0011538
3345.42687,-0.0011543
3344.46249,-0.0011252
3343.49811,-0.0010822
3342.53373,-0.0011004
3341.56935,-0.0011096
3340.60498,-0.0010833
3339.64060,-0.0010800
3338.67622,-0.0010828
3337.71184,-0.0010822
3336.74747,-0.0010805
3335.78309,-0.0011083
3334.81871,-0.0011631
3333.85433,-0.0011613
3332.88995,-0.0010854
3331.92558,-0.0010386
3330.96120,-0.0010313
3329.99682,-0.0009878
3329.03244,-0.0009382
3328.06806,-0.0008977
3327.10369,-0.0008674
3326.13931,-0.0008612
3325.17493,-0.0008842
3324.21055,-0.0009353
3323.24618,-0.0009807
3322.28180,-0.0010144
3321.31742,-0.0010036
3320.35304,-0.0009735
3319.38866,-0.0009515
3318.42429,-0.0009270
3317.45991,-0.0009470
3316.49553,-0.0009564
3315.53115,-0.0009163
3314.56677,-0.0008710
3313.60240,-0.0008330
3312.63802,-0.0007955
3311.67364,-0.0007822
3310.70926,-0.0008253
3309.74488,-0.0008549
3308.78051,-0.0008482
3307.81613,-0.0008503
3306.85175,-0.0008675
3305.88737,-0.0008924
3304.92300,-0.0008831
3303.95862,-0.0008191
3302.99424,-0.0007438
3302.02986,-0.0007062
3301.06548,-0.0006818
3300.10111,-0.0006869
3299.13673,-0.0007497
3298.17235,-0.0008004
3297.20797,-0.0008381
3296.24359,-0.0008670
3295.27922,-0.0008629
3294.31484,-0.0008367
3293.35046,-0.0007805
3292.38608,-0.0007247
3291.42171,-0.0007197
3290.45733,-0.0007518
3289.49295,-0.0007606
3288.52857,-0.0007482
3287.56419,-0.0007330
3286.59982,-0.0007109
3285.63544,-0.0007145
3284.67106,-0.0007112
3283.70668,-0.0006840
3282.74230,-0.0006721
3281.77793,-0.0006658
3280.81355,-0.0006956
3279.84917,-0.0007741
3278.88479,-0.0008458
3277.92041,-0.0008755
3276.95604,-0.0008602
3275.99166,-0.0008377
3275.02728,-0.0008139
3274.06290,-0.0007783
3273.09853,-0.0007633
3272.13415,-0.0007551
3271.16977,-0.0007250
3270.20539,-0.0006736
3269.24101,-0.0006313
3268.27664,-0.0006503
3267.31226,-0.0007080
3266.34788,-0.0007460
3265.38350,-0.0007516
3264.41912,-0.0007597
3263.45475,-0.0007934
3262.49037,-0.0008134
3261.52599,-0.0008066
3260.56161,-0.0007903
3259.59724,-0.0007670
3258.63286,-0.0007616
3257.66848,-0.0007893
3256.70410,-0.0008361
3255.73972,-0.0008883
3254.77535,-0.0009399
3253.81097,-0.0009876
3252.84659,-0.0010262
3251.88221,-0.0010653
3250.91783,-0.0010830
3249.95346,-0.0010525
3248.98908,-0.0010248
3248.02470,-0.0010248
3247.06032,-0.0010547
3246.09594,-0.0011003
3245.13157,-0.0011180
3244.16719,-0.0011463
3243.20281,-0.0011804
3242.23843,-0.0011724
3241.27406,-0.0011275
3240.30968,-0.0010813
3239.34530,-0.0010545
3238.38092,-0.0009842
3237.41654,-0.0009138
3236.45217,-0.0009252
3235.48779,-0.0009880
3234.52341,-0.0010666
3233.55903,-0.0011242
3232.59465,-0.0011779
3231.63028,-0.0012208
3230.66590,-0.0012306
3229.70152,-0.0012134
3228.73714,-0.0011742
3227.77276,-0.0011312
3226.80839,-0.0010645
3225.84401,-0.0010485
3224.87963,-0.0011178
3223.91525,-0.0011945
3222.95088,-0.0012525
3221.98650,-0.0012707
3221.02212,-0.0012890
3220.05774,-0.0013024
3219.09336,-0.0012835
3218.12899,-0.0012790
3217.16461,-0.0012945
3216.20023,-0.0012902
3215.23585,-0.0012380
3214.27147,-0.0012162
3213.30710,-0.0012357
3212.34272,-0.0012253
3211.37834,-0.0011886
3210.41396,-0.0011308
3209.44959,-0.0010580
3208.48521,-0.0009679
3207.52083,-0.0009360
3206.55645,-0.0009935
3205.59207,-0.0010500
3204.62770,-0.0010855
3203.66332,-0.0010888
3202.69894,-0.0010959
3201.73456,-0.0011343
3200.77018,-0.0011579
3199.80581,-0.0011720
3198.84143,-0.0011677
3197.87705,-0.0011513
3196.91267,-0.0011792
3195.94829,-0.0012538
3194.98392,-0.0013206
3194.01954,-0.0013732
3193.05516,-0.0014298
3192.09078,-0.0014441
3191.12641,-0.0014245
3190.16203,-0.0014128
3189.19765,-0.0013899
3188.23327,-0.0013590
3187.26889,-0.0013367
3186.30452,-0.0013414
3185.34014,-0.0013683
3184.37576,-0.0013796
3183.41138,-0.0013994
3182.44700,-0.0014371
3181.48263,-0.0014577
3180.51825,-0.0014484
3179.55387,-0.0014199
3178.58949,-0.0014007
3177.62512,-0.0013778
3176.66074,-0.0013552
3175.69636,-0.0013326
3174.73198,-0.0012841
3173.76760,-0.0012462
3172.80323,-0.0012331
3171.83885,-0.0012418
3170.87447,-0.0012618
3169.91009,-0.0012789
3168.94571,-0.0012928
3167.98134,-0.0013057
3167.01696,-0.0013302
3166.05258,-0.0013251
3165.08820,-0.0013162
3164.12382,-0.0013154
3163.15945,-0.0012706
3162.19507,-0.0012189
3161.23069,-0.0011669
3160.26631,-0.0011365
3159.30194,-0.0011498
3158.33756,-0.0011797
3157.37318,-0.0012201
3156.40880,-0.0012507
3155.44442,-0.0012821
3154.48005,-0.0013181
3153.51567,-0.0013674
3152.55129,-0.0014072
3151.58691,-0.0013680
3150.62253,-0.0012876
3149.65816,-0.0012608
3148.69378,-0.0013074
3147.72940,-0.0013531
3146.76502,-0.0013623
3145.80065,-0.0013416
3144.83627,-0.0012950
3143.87189,-0.0012674
3142.90751,-0.0012609
3141.94313,-0.0012624
3140.97876,-0.0012570
3140.01438,-0.0012333
3139.05000,-0.0012429
3138.08562,-0.0013113
3137.12124,-0.0013899
3136.15687,-0.0014349
3135.19249,-0.0014442
3134.22811,-0.0014309
3133.26373,-0.0014216
3132.29935,-0.0014073
3131.33498,-0.0013715
3130.37060,-0.0013370
3129.40622,-0.0013055
3128.44184,-0.0012893
3127.47747,-0.0012780
3126.51309,-0.0012539
3125.54871,-0.0012542
3124.58433,-0.0012714
3123.61995,-0.0012642
3122.65558,-0.0012698
3121.69120,-0.0013165
3120.72682,-0.0013331
3119.76244,-0.0013256
3118.79806,-0.0013600
3117.83369,-0.0014224
3116.86931,-0.0014868
3115.90493,-0.0015101
3114.94055,-0.0014833
3113.97618,-0.0014659
3113.01180,-0.0014717
3112.04742,-0.0014583
3111.08304,-0.0014388
3110.11866,-0.0014562
3109.15429,-0.0014604
3108.18991,-0.0014366
3107.22553,-0.0014396
3106.26115,-0.0014363
3105.29677,-0.0013983
3104.33240,-0.0013738
3103.36802,-0.0013837
3102.40364,-0.0014282
3101.43926,-0.0015043
3100.47488,-0.0015530
3099.51051,-0.0015652
3098.54613,-0.0015851
3097.58175,-0.0015711
3096.61737,-0.0015182
3095.65300,-0.0014953
3094.68862,-0.0014809
3093.72424,-0.0014559
3092.75986,-0.0014810
3091.79548,-0.0015320
3090.83111,-0.0015628
3089.86673,-0.0015897
3088.90235,-0.0015769
3087.93797,-0.0015269
3086.97359,-0.0014833
3086.00922,-0.0014434
3085.04484,-0.0014291
3084.08046,-0.0014406
3083.11608,-0.0014337
3082.15171,-0.0014100
3081.18733,-0.0014016
3080.22295,-0.0013987
3079.25857,-0.0014025
3078.29419,-0.0014238
3077.32982,-0.0014123
3076.36544,-0.0013617
3075.40106,-0.0013289
3074.43668,-0.0013390
3073.47230,-0.0013570
3072.50793,-0.0013579
3071.54355,-0.0013838
3070.57917,-0.0014260
3069.61479,-0.0014534
3068.65041,-0.0014791
3067.68604,-0.0014911
3066.72166,-0.0014737
3065.75728,-0.0014103
3064.79290,-0.0013179
3063.82853,-0.0012594
3062.86415,-0.0012429
3061.89977,-0.0012515
3060.93539,-0.0013018
3059.97101,-0.0013584
3059.00664,-0.0013665
3058.04226,-0.0013598
3057.07788,-0.0013536
3056.11350,-0.0013214
3055.14912,-0.0013009
3054.18475,-0.0012992
3053.22037,-0.0012795
3052.25599,-0.0012713
3051.29161,-0.0012935
3050.32724,-0.0013295
3049.36286,-0.0013617
3048.39848,-0.0013503
3047.43410,-0.0013281
3046.46972,-0.0013444
3045.50535,-0.0013643
3044.54097,-0.0013884
3043.57659,-0.0014384
3042.61221,-0.0014648
3041.64783,-0.0014362
3040.68346,-0.0014066
3039.71908,-0.0013905
3038.75470,-0.0013349
3037.79032,-0.0012519
3036.82594,-0.0012029
3035.86157,-0.0012024
3034.89719,-0.0012138
3033.93281,-0.0012247
3032.96843,-0.0012556
3032.00406,-0.0012877
3031.03968,-0.0012931
3030.07530,-0.0012949
3029.11092,-0.0013168
3028.14654,-0.0013185
3027.18217,-0.0012711
3026.21779,-0.0012095
3025.25341,-0.0011675
3024.28903,-0.0011514
3023.32465,-0.0011600
3022.36028,-0.0011920
3021.39590,-0.0012261
3020.43152,-0.0012493
3019.46714,-0.0012753
3018.50276,-0.0013114
3017.53839,-0.0013286
3016.57401,-0.0013028
3015.60963,-0.0012707
3014.64525,-0.0012448
3013.68088,-0.0012246
3012.71650,-0.0012496
3011.75212,-0.0013096
3010.78774,-0.0013350
3009.82336,-0.0013028
3008.85899,-0.0012707
3007.89461,-0.0012712
3006.93023,-0.0012799
3005.96585,-0.0012708
3005.00147,-0.0012464
3004.03710,-0.0012295
3003.07272,-0.0012228
3002.10834,-0.0012195
3001.14396,-0.0012108
3000.17959,-0.0011965
2999.21521,-0.0011615
2998.25083,-0.0011146
2997.28645,-0.0011273
2996.32207,-0.0011921
2995.35770,-0.0012342
2994.39332,-0.0012382
2993.42894,-0.0012402
2992.46456,-0.0012427
2991.50018,-0.0012196
2990.53581,-0.0011542
2989.57143,-0.0010426
2988.60705,-0.0009452
2987.64267,-0.0008992
2986.67829,-0.0009081
2985.71392,-0.0009683
2984.74954,-0.0010208
2983.78516,-0.0010441
2982.82078,-0.0010594
2981.85641,-0.0010848
2980.89203,-0.0011008
2979.92765,-0.0010737
2978.96327,-0.0009946
2977.99889,-0.0008857
2977.03452,-0.0008244
2976.07014,-0.0008064
2975.10576,-0.0007816
2974.14138,-0.0007427
2973.17700,-0.0006748
2972.21263,-0.0005903
2971.24825,-0.0005058
2970.28387,-0.0004381
2969.31949,-0.0003778
2968.35512,-0.0003182
2967.39074,-0.0002737
2966.42636,-0.0002439
2965.46198,-0.0002661
2964.49760,-0.0003109
2963.53323,-0.0003443
2962.56885,-0.0004002
2961.60447,-0.0004426
2960.64009,-0.0004443
2959.67571,-0.0004361
2958.71134,-0.0004349
2957.74696,-0.0004196
2956.78258,-0.0003864
2955.81820,-0.0003570
2954.85382,-0.0003332
2953.88945,-0.0003202
2952.92507,-0.0002970
2951.96069,-0.0002648
2950.99631,-0.0002544
2950.03194,-0.0002363
2949.06756,-0.0001854
2948.10318,-0.0001375
2947.13880,-0.0001386
2946.17442,-0.0001611
2945.21005,-0.0001572
2944.24567,-0.0001327
2943.28129,-0.0000962
2942.31691,-0.0000404
2941.35253,0.0000298
2940.38816,0.0000992
2939.42378,0.0001864
2938.45940,0.0002854
2937.49502,0.0003696
2936.53065,0.0004224
2935.56627,0.0004342
2934.60189,0.0004635
2933.63751,0.0005137
2932.67313,0.0005630
2931.70876,0.0006291
2930.74438,0.0006817
2929.78000,0.0007305
2928.81562,0.0008126
2927.85124,0.0009325
2926.88687,0.0010428
2925.92249,0.0011130
2924.95811,0.0011598
2923.99373,0.0011948
2923.02935,0.0012508
2922.06498,0.0012937
2921.10060,0.0013126
2920.13622,0.0013101
2919.17184,0.0012363
2918.20747,0.0011344
2917.24309,0.0010374
2916.27871,0.0009457
2915.31433,0.0008512
2914.34995,0.0007329
2913.38558,0.0005912
2912.42120,0.0004562
2911.45682,0.0003789
2910.49244,0.0003106
2909.52806,0.0002248
2908.56369,0.0001385
2907.59931,0.0000622
2906.63493,0.0000195
2905.67055,-0.0000121
2904.70618,-0.0000059
2903.74180,0.0000160
2902.77742,0.0000115
2901.81304,-0.0000098
2900.84866,-0.0000548
2899.88429,-0.0000839
2898.91991,-0.0001185
2897.95553,-0.0001702
2896.99115,-0.0002022
2896.02677,-0.0002282
2895.06240,-0.0002572
2894.09802,-0.0002927
2893.13364,-0.0003203
2892.16926,-0.0003462
2891.20488,-0.0003725
2890.24051,-0.0004064
2889.27613,-0.0004512
2888.31175,-0.0004497
2887.34737,-0.0004280
2886.38300,-0.0004297
2885.41862,-0.0004392
2884.45424,-0.0004568
2883.48986,-0.0004657
2882.52548,-0.0004691
2881.56111,-0.0004824
2880.59673,-0.0004861
2879.63235,-0.0004822
2878.66797,-0.0004780
2877.70359,-0.0004627
2876.73922,-0.0004442
2875.77484,-0.0004291
2874.81046,-0.0004324
2873.84608,-0.0004515
2872.88171,-0.0004450
2871.91733,-0.0004142
2870.95295,-0.0003888
2869.98857,-0.0003783
2869.02419,-0.0003705
2868.05982,-0.0003507
2867.09544,-0.0003223
2866.13106,-0.0003115
2865.16668,-0.0003164
2864.20230,-0.0002975
2863.23793,-0.0002691
2862.27355,-0.0002397
2861.30917,-0.0001788
2860.34479,-0.0000942
2859.38041,-0.0000161
2858.41604,0.0000573
2857.45166,0.0001398
2856.48728,0.0001971
2855.52290,0.0002293
2854.55853,0.0002675
2853.59415,0.0003170
2852.62977,0.0003662
2851.66539,0.0003737
2850.70101,0.0003445
2849.73664,0.0002975
2848.77226,0.0002178
2847.80788,0.0000983
2846.84350,-0.0000375
2845.87912,-0.0001830
2844.91475,-0.0003528
2843.95037,-0.0004837
2842.98599,-0.0005559
2842.02161,-0.0006022
2841.05724,-0.0006330
2840.09286,-0.0006581
2839.12848,-0.0006625
2838.16410,-0.0006783
2837.19972,-0.0007148
2836.23535,-0.0007550
2835.27097,-0.0008124
2834.30659,-0.0008690
2833.34221,-0.0009088
2832.37783,-0.0009277
2831.41346,-0.0009438
2830.44908,-0.0009461
2829.48470,-0.0009120
2828.52032,-0.0008599
2827.55594,-0.0008114
2826.59157,-0.0007889
2825.62719,-0.0007803
2824.66281,-0.0007957
2823.69843,-0.0008419
2822.73406,-0.0008764
2821.76968,-0.0008967
2820.80530,-0.0009146
2819.84092,-0.0009295
2818.87654,-0.0009332
2817.91217,-0.0009325
2816.94779,-0.0009411
2815.98341,-0.0009465
2815.01903,-0.0009393
2814.05465,-0.0009277
2813.09028,-0.0009311
2812.12590,-0.0009422
2811.16152,-0.0009375
2810.19714,-0.0009212
2809.23276,-0.0009096
2808.26839,-0.0009282
2807.30401,-0.0009859
2806.33963,-0.0010388
2805.37525,-0.0010651
2804.41088,-0.0010877
2803.44650,-0.0011001
2802.48212,-0.0011007
2801.51774,-0.0010963
2800.55336,-0.0010845
2799.58899,-0.0010639
2798.62461,-0.0010249
2797.66023,-0.0010010
2796.69585,-0.0010171
2795.73147,-0.0010300
2794.76710,-0.0010118
2793.80272,-0.0009978
2792.83834,-0.0009989
2791.87396,-0.0009792
2790.90959,-0.0009487
2789.94521,-0.0009133
2788.98083,-0.0008673
2788.01645,-0.0008234
2787.05207,-0.0007957
2786.08770,-0.0008135
2785.12332,-0.0008504
2784.15894,-0.0008724
2783.19456,-0.0008985
2782.23018,-0.0009317
2781.26581,-0.0009516
2780.30143,-0.0009556
2779.33705,-0.0009742
2778.37267,-0.0010019
2777.40829,-0.0010100
2776.44392,-0.0010084
2775.47954,-0.0010187
2774.51516,-0.0010494
2773.55078,-0.0010765
2772.58641,-0.0010748
2771.62203,-0.0010532
2770.65765,-0.0010239
2769.69327,-0.0009934
2768.72889,-0.0009871
2767.76452,-0.0010027
2766.80014,-0.0009894
2765.83576,-0.0009488
2764.87138,-0.0009138
2763.90700,-0.0008922
2762.94263,-0.0008997
2761.97825,-0.0009175
2761.01387,-0.0009201
2760.04949,-0.0009244
2759.08512,-0.0009367
2758.12074,-0.0009611
2757.15636,-0.0009916
2756.19198,-0.0009989
2755.22760,-0.0009785
2754.26323,-0.0009520
2753.29885,-0.0009435
2752.33447,-0.0009497
2751.37009,-0.0009516
2750.40571,-0.0009548
2749.44134,-0.0009745
2748.47696,-0.0009947
2747.51258,-0.0009987
2746.54820,-0.0010021
2745.58382,-0.0009955
2744.61945,-0.0009890
2743.65507,-0.0009943
2742.69069,-0.0009759
2741.72631,-0.0009607
2740.76194,-0.0009565
2739.79756,-0.0009307
2738.83318,-0.0009052
2737.86880,-0.0008901
2736.90442,-0.0008748
2735.94005,-0.0008687
2734.97567,-0.0008847
2734.01129,-0.0008967
2733.04691,-0.0008988
2732.08253,-0.0009060
2731.11816,-0.0008968
2730.15378,-0.0008824
2729.18940,-0.0008676
2728.22502,-0.0008565
2727.26065,-0.0008653
2726.29627,-0.0008611
2725.33189,-0.0008491
2724.36751,-0.0008613
2723.40313,-0.0008785
2722.43876,-0.0008753
2721.47438,-0.0008725
2720.51000,-0.0008883
2719.54562,-0.0008943
2718.58124,-0.0008819
2717.61687,-0.0008719
2716.65249,-0.0008784
2715.68811,-0.0008842
2714.72373,-0.0008614
2713.75935,-0.0008283
2712.79498,-0.0008158
2711.83060,-0.0008156
2710.86622,-0.0008173
2709.90184,-0.0008394
2708.93747,-0.0008700
2707.97309,-0.0008839
2707.00871,-0.0009025
2706.04433,-0.0009303
2705.07995,-0.0009412
2704.11558,-0.0009343
2703.15120,-0.0009237
2702.18682,-0.0009144
2701.22244,-0.0009151
2700.25806,-0.0009183
2699.29369,-0.0009008
2698.32931,-0.0008832
2697.36493,-0.0008839
2696.40055,-0.0008948
2695.43618,-0.0009190
2694.47180,-0.0009374
2693.50742,-0.0009430
2692.54304,-0.0009477
2691.57866,-0.0009376
2690.61429,-0.0009141
2689.64991,-0.0008785
2688.68553,-0.0008308
2687.72115,-0.0007870
2686.75677,-0.0007552
2685.79240,-0.0007500
2684.82802,-0.0007638
2683.86364,-0.0007802
2682.89926,-0.0008074
2681.93488,-0.0008449
2680.97051,-0.0008787
2680.00613,-0.0008938
2679.04175,-0.0008907
2678.07737,-0.0008682
2677.11300,-0.0008352
2676.14862,-0.0008108
2675.18424,-0.0007869
2674.21986,-0.0007649
2673.25548,-0.0007541
2672.29111,-0.0007565
2671.32673,-0.0007674
2670.36235,-0.0007743
2669.39797,-0.0007859
2668.43359,-0.0008115
2667.46922,-0.0008294
2666.50484,-0.0008124
2665.54046,-0.0007892
2664.57608,-0.0007905
2663.61171,-0.0007866
2662.64733,-0.0007704
2661.68295,-0.0007761
2660.71857,-0.0008029
2659.75419,-0.0008029
2658.78982,-0.0007801
2657.82544,-0.0007781
2656.86106,-0.0007923
2655.89668,-0.0008051
2654.93230,-0.0008097
2653.96793,-0.0008338
2653.00355,-0.0008752
2652.03917,-0.0008784
2651.07479,-0.0008668
2650.11041,-0.0008807
2649.14604,-0.0008876
2648.18166,-0.0008616
2647.21728,-0.0008176
2646.25290,-0.0007739
2645.28853,-0.0007464
2644.32415,-0.0007488
2643.35977,-0.0007748
2642.39539,-0.0008043
2641.43101,-0.0008140
2640.46664,-0.0008125
2639.50226,-0.0008306
2638.53788,-0.0008533
2637.57350,-0.0008547
2636.60912,-0.0008410
2635.64475,-0.0008130
2634.68037,-0.0007779
2633.71599,-0.0007569
2632.75161,-0.0007490
2631.78724,-0.0007545
2630.82286,-0.0007631
2629.85848,-0.0007750
2628.89410,-0.0008109
2627.92972,-0.0008353
2626.96535,-0.0008353
2626.00097,-0.0008431
2625.03659,-0.0008525
2624.07221,-0.0008464
2623.10783,-0.0008358
2622.14346,-0.0008295
2621.17908,-0.0008117
2620.21470,-0.0007816
2619.25032,-0.0007439
2618.28594,-0.0006922
2617.32157,-0.0006201
2616.35719,-0.0005659
2615.39281,-0.0005863
2614.42843,-0.0006529
2613.46406,-0.0007178
2612.49968,-0.0007525
2611.53530,-0.0007613
2610.57092,-0.0007798
2609.60654,-0.0007962
2608.64217,-0.0007900
2607.67779,-0.0007766
2606.71341,-0.0007392
2605.74903,-0.0006538
2604.78465,-0.0006350
2603.82028,-0.0007188
2602.85590,-0.0007919
2601.89152,-0.0008443
2600.92714,-0.0008870
2599.96276,-0.0009378
2598.99839,-0.0009915
2598.03401,-0.0010165
2597.06963,-0.0010227
2596.10525,-0.0010019
2595.14088,-0.0009605
2594.17650,-0.0008899
2593.21212,-0.0008372
2592.24774,-0.0008005
2591.28336,-0.0007174
2590.31899,-0.0006443
2589.35461,-0.0006180
2588.39023,-0.0006184
2587.42585,-0.0005791
2586.46147,-0.0005380
2585.49710,-0.0005609
2584.53272,-0.0005902
2583.56834,-0.0006301
2582.60396,-0.0006509
2581.63959,-0.0006318
2580.67521,-0.0005922
2579.71083,-0.0005581
2578.74645,-0.0005714
2577.78207,-0.0006043
2576.81770,-0.0006418
2575.85332,-0.0006534
2574.88894,-0.0006694
2573.92456,-0.0007095
2572.96018,-0.0007190
2571.99581,-0.0007115
2571.03143,-0.0006855
2570.06705,-0.0006658
2569.10267,-0.0006776
2568.13829,-0.0007425
2567.17392,-0.0008592
2566.20954,-0.0009640
2565.24516,-0.0010413
2564.28078,-0.0010668
2563.31641,-0.0010476
2562.35203,-0.0009793
2561.38765,-0.0008653
2560.42327,-0.0007712
2559.45889,-0.0006748
2558.49452,-0.0005705
2557.53014,-0.0005064
2556.56576,-0.0005199
2555.60138,-0.0006004
2554.63700,-0.0006736
2553.67263,-0.0007241
2552.70825,-0.0007570
2551.74387,-0.0007567
2550.77949,-0.0007237
2549.81512,-0.0006766
2548.85074,-0.0006452
2547.88636,-0.0006099
2546.92198,-0.0005631
2545.95760,-0.0005479
2544.99323,-0.0005948
2544.02885,-0.0006839
2543.06447,-0.0007510
2542.10009,-0.0008184
2541.13571,-0.0008911
2540.17134,-0.0009175
2539.20696,-0.0009247
2538.24258,-0.0008999
2537.27820,-0.0008710
2536.31382,-0.0008634
2535.34945,-0.0008566
2534.38507,-0.0008790
2533.42069,-0.0008579
2532.45631,-0.0007826
2531.49194,-0.0007217
2530.52756,-0.0007034
2529.56318,-0.0007018
2528.59880,-0.0006739
2527.63442,-0.0006783
2526.67005,-0.0006747
2525.70567,-0.0006561
2524.74129,-0.0007032
2523.77691,-0.0007941
2522.81253,-0.0008462
2521.84816,-0.0008079
2520.88378,-0.0008115
2519.91940,-0.0008746
2518.95502,-0.0009121
2517.99065,-0.0009232
2517.02627,-0.0008875
2516.06189,-0.0008552
2515.09751,-0.0007941
2514.13313,-0.0007266
2513.16876,-0.0007544
2512.20438,-0.0008076
2511.24000,-0.0008160
2510.27562,-0.0008174
2509.31124,-0.0008479
2508.34687,-0.0008296
2507.38249,-0.0007868
2506.41811,-0.0007744
2505.45373,-0.0007378
2504.48935,-0.0007266
2503.52498,-0.0007586
2502.56060,-0.0008331
2501.59622,-0.0009499
2500.63184,-0.0010304
2499.66747,-0.0010361
2498.70309,-0.0009820
2497.73871,-0.0009200
2496.77433,-0.0008609
2495.80995,-0.0008067
2494.84558,-0.0007654
2493.88120,-0.0007316
2492.91682,-0.0007200
2491.95244,-0.0006976
2490.98806,-0.0006306
2490.02369,-0.0005491
2489.05931,-0.0005146
2488.09493,-0.0005098
2487.13055,-0.0004888
2486.16618,-0.0004860
2485.20180,-0.0005062
2484.23742,-0.0005221
2483.27304,-0.0005464
2482.30866,-0.0005950
2481.34429,-0.0006328
2480.37991,-0.0006288
2479.41553,-0.0005966
2478.45115,-0.0006075
2477.48677,-0.0006971
2476.52240,-0.0007470
2475.55802,-0.0007381
2474.59364,-0.0007191
2473.62926,-0.0006728
2472.66488,-0.0006362
2471.70051,-0.0006005
2470.73613,-0.0005500
2469.77175,-0.0005172
2468.80737,-0.0005491
2467.84300,-0.0006225
2466.87862,-0.0006755
2465.91424,-0.0007488
2464.94986,-0.0008275
2463.98548,-0.0009004
2463.02111,-0.0009541
2462.05673,-0.0009526
2461.09235,-0.0009314
2460.12797,-0.0008483
2459.16359,-0.0007391
2458.19922,-0.0006811
2457.23484,-0.0006359
2456.27046,-0.0005690
2455.30608,-0.0005120
2454.34171,-0.0005366
2453.37733,-0.0006044
2452.41295,-0.0007007
2451.44857,-0.0008258
2450.48419,-0.0008991
2449.51982,-0.0009104
2448.55544,-0.0008854
2447.59106,-0.0008631
2446.62668,-0.0007979
2445.66230,-0.0006535
2444.69793,-0.0005353
2443.73355,-0.0004797
2442.76917,-0.0004530
2441.80479,-0.0004708
2440.84041,-0.0005780
2439.87604,-0.0007206
2438.91166,-0.0008166
2437.94728,-0.0008659
2436.98290,-0.0008722
2436.01853,-0.0008461
2435.05415,-0.0007769
2434.08977,-0.0006766
2433.12539,-0.0005789
2432.16101,-0.0004939
2431.19664,-0.0004369
2430.23226,-0.0003954
2429.26788,-0.0003904
2428.30350,-0.0004336
2427.33912,-0.0004759
2426.37475,-0.0004922
2425.41037,-0.0004698
2424.44599,-0.0004399
2423.48161,-0.0004737
2422.51724,-0.0005626
2421.55286,-0.0006377
2420.58848,-0.0006863
2419.62410,-0.0007182
2418.65972,-0.0007070
2417.69535,-0.0006842
2416.73097,-0.0007019
2415.76659,-0.0006995
2414.80221,-0.0006285
2413.83783,-0.0005141
2412.87346,-0.0004113
2411.90908,-0.0004156
2410.94470,-0.0004882
2409.98032,-0.0005234
2409.01594,-0.0005634
2408.05157,-0.0006361
2407.08719,-0.0006904
2406.12281,-0.0007295
2405.15843,-0.0007746
2404.19406,-0.0007812
2403.22968,-0.0007127
2402.26530,-0.0005903
2401.30092,-0.0004857
2400.33654,-0.0004554
2399.37217,-0.0004431
2398.40779,-0.0004392
2397.44341,-0.0004972
2396.47903,-0.0005733
2395.51465,-0.0006288
2394.55028,-0.0006660
2393.58590,-0.0006761
2392.62152,-0.0006595
2391.65714,-0.0006303
2390.69276,-0.0006079
2389.72839,-0.0006049
2388.76401,-0.0005935
2387.79963,-0.0005322
2386.83525,-0.0004696
2385.87088,-0.0004206
2384.90650,-0.0003377
2383.94212,-0.0002610
2382.97774,-0.0001981
2382.01336,-0.0001388
2381.04899,-0.0000893
2380.08461,-0.0000326
2379.12023,-0.0000004
2378.15585,0.0000524
2377.19147,0.0001651
2376.22710,0.0002808
2375.26272,0.0004022
2374.29834,0.0005518
2373.33396,0.0007273
2372.36959,0.0008898
2371.40521,0.0010247
2370.44083,0.0011541
2369.47645,0.0013042
2368.51207,0.0014786
2367.54770,0.0016059
2366.58332,0.0017148
2365.61894,0.0018123
2364.65456,0.0018433
2363.69018,0.0018676
2362.72581,0.0018808
2361.76143,0.0018543
2360.79705,0.0017818
2359.83267,0.0016770
2358.86829,0.0015980
2357.90392,0.0015410
2356.93954,0.0014867
2355.97516,0.0014022
2355.01078,0.0012772
2354.04641,0.0011080
2353.08203,0.0008962
2352.11765,0.0007002
2351.15327,0.0005213
2350.18889,0.0003607
2349.22452,0.0002583
2348.26014,0.0002347
2347.29576,0.0002904
2346.33138,0.0004016
2345.36700,0.0005593
2344.40263,0.0007420
2343.43825,0.0009074
2342.47387,0.0010263
2341.50949,0.0011107
2340.54512,0.0011894
2339.58074,0.0012516
2338.61636,0.0012820
2337.65198,0.0012802
2336.68760,0.0012574
2335.72323,0.0012308
2334.75885,0.0011888
2333.79447,0.0011398
2332.83009,0.0011199
2331.86571,0.0011067
2330.90134,0.0010603
2329.93696,0.0009934
2328.97258,0.0009376
2328.00820,0.0009164
2327.04382,0.0009238
2326.07945,0.0009170
2325.11507,0.0008878
2324.15069,0.0008761
2323.18631,0.0008495
2322.22194,0.0007904
2321.25756,0.0007546
2320.29318,0.0007126
2319.32880,0.0006264
2318.36442,0.0005171
2317.40005,0.0004338
2316.43567,0.0004117
2315.47129,0.0004164
2314.50691,0.0004004
2313.54253,0.0003508
2312.57816,0.0003161
2311.61378,0.0002565
2310.64940,0.0001650
2309.68502,0.0000985
2308.72065,0.0000314
2307.75627,-0.0000473
2306.79189,-0.0001161
2305.82751,-0.0001569
2304.86313,-0.0001569
2303.89876,-0.0001410
2302.93438,-0.0001259
2301.97000,-0.0001260
2301.00562,-0.0001261
2300.04124,-0.0001261
2299.07687,-0.0001262
2298.11249,-0.0001263
2297.14811,-0.0001263
2296.18373,-0.0001264
2295.21935,-0.0001265
2294.25498,-0.0001265
2293.29060,-0.0001266
2292.32622,-0.0001267
2291.36184,-0.0001267
2290.39747,-0.0001268
2289.43309,-0.0001269
2288.46871,-0.0001269
2287.50433,-0.0001270
2286.53995,-0.0001271
2285.57558,-0.0001271
2284.61120,-0.0001272
2283.64682,-0.0001273
2282.68244,-0.0001273
2281.71806,-0.0001274
2280.75369,-0.0001275
2279.78931,-0.0001275
2278.82493,-0.0001276
2277.86055,-0.0001276
2276.89618,-0.0001277
2275.93180,-0.0001278
2274.96742,-0.0001278
2274.00304,-0.0001279
2273.03866,-0.0001280
2272.07429,-0.0001280
2271.10991,-0.0001281
2270.14553,-0.0001282
2269.18115,-0.0001282
2268.21677,-0.0001283
2267.25240,-0.0001284
2266.28802,-0.0001284
2265.32364,-0.0001285
2264.35926,-0.0001286
2263.39488,-0.0001286
2262.43051,-0.0001287
2261.46613,-0.0001288
2260.50175,-0.0001288
2259.53737,-0.0001289
2258.57300,-0.0001290
2257.60862,-0.0001290
2256.64424,-0.0001291
2255.67986,-0.0001292
2254.71548,-0.0001292
2253.75111,-0.0001293
2252.78673,-0.0001294
2251.82235,-0.0001294
2250.85797,-0.0001295
2249.89359,-0.0001296
2248.92922,-0.0001296
2247.96484,-0.0001297
2247.00046,-0.0001298
2246.03608,-0.0001298
2245.07171,-0.0001299
2244.10733,-0.0001300
2243.14295,-0.0001300
2242.17857,-0.0001301
2241.21419,-0.0001302
2240.24982,-0.0001302
2239.28544,-0.0001303
2238.32106,-0.0001304
2237.35668,-0.0001304
2236.39230,-0.0001305
2235.42793,-0.0001306
2234.46355,-0.0001306
2233.49917,-0.0001307
2232.53479,-0.0001308
2231.57041,-0.0001308
2230.60604,-0.0001309
2229.64166,-0.0001310
2228.67728,-0.0001310
2227.71290,-0.0001311
2226.74853,-0.0001312
2225.78415,-0.0001312
2224.81977,-0.0001313
2223.85539,-0.0001314
2222.89101,-0.0001314
2221.92664,-0.0001315
2220.96226,-0.0001316
2219.99788,-0.0001316
2219.03350,-0.0001317
2218.06912,-0.0001318
2217.10475,-0.0001318
2216.14037,-0.0001319
2215.17599,-0.0001320
2214.21161,-0.0001320
2213.24724,-0.0001321
2212.28286,-0.0001322
2211.31848,-0.0001322
2210.35410,-0.0001323
2209.38972,-0.0001324
2208.42535,-0.0001324
2207.46097,-0.0001325
2206.49659,-0.0001326
2205.53221,-0.0001326
2204.56783,-0.0001327
2203.60346,-0.0001328
2202.63908,-0.0001328
2201.67470,-0.0001329
2200.71032,-0.0001330
2199.74594,-0.0001330
2198.78157,-0.0001331
2197.81719,-0.0001332
2196.85281,-0.0001332
2195.88843,-0.0001333
2194.92406,-0.0001334
2193.95968,-0.0001334
2192.99530,-0.0001335
2192.03092,-0.0001335
2191.06654,-0.0001336
2190.10217,-0.0001337
2189.13779,-0.0001337
2188.17341,-0.0001338
2187.20903,-0.0001339
2186.24465,-0.0001339
2185.28028,-0.0001340
2184.31590,-0.0001341
2183.35152,-0.0001341
2182.38714,-0.0001342
2181.42276,-0.0001343
2180.45839,-0.0001343
2179.49401,-0.0001344
2178.52963,-0.0001345
2177.56525,-0.0001345
2176.60088,-0.0001346
2175.63650,-0.0001347
2174.67212,-0.0001347
2173.70774,-0.0001348
2172.74336,-0.0001349
2171.77899,-0.0001349
2170.81461,-0.0001350
2169.85023,-0.0001351
2168.88585,-0.0001351
2167.92147,-0.0001352
2166.95710,-0.0001353
2165.99272,-0.0001353
2165.02834,-0.0001354
2164.06396,-0.0001355
2163.09959,-0.0001355
2162.13521,-0.0001356
2161.17083,-0.0001357
2160.20645,-0.0001357
2159.24207,-0.0001358
2158.27770,-0.0001359
2157.31332,-0.0001359
2156.34894,-0.0001360
2155.38456,-0.0001361
2154.42018,-0.0001361
2153.45581,-0.0001362
2152.49143,-0.0001363
2151.52705,-0.0001363
2150.56267,-0.0001364
2149.59829,-0.0001365
2148.63392,-0.0001365
2147.66954,-0.0001366
2146.70516,-0.0001367
2145.74078,-0.0001367
2144.77641,-0.0001368
2143.81203,-0.0001369
2142.84765,-0.0001369
2141.88327,-0.0001370
2140.91889,-0.0001371
2139.95452,-0.0001371
2138.99014,-0.0001372
2138.02576,-0.0001373
2137.06138,-0.0001373
2136.09700,-0.0001374
2135.13263,-0.0001375
2134.16825,-0.0001375
2133.20387,-0.0001376
2132.23949,-0.0001377
2131.27512,-0.0001377
2130.31074,-0.0001378
2129.34636,-0.0001379
2128.38198,-0.0001379
2127.41760,-0.0001380
2126.45323,-0.0001381
2125.48885,-0.0001381
2124.52447,-0.0001382
2123.56009,-0.0001383
2122.59571,-0.0001383
2121.63134,-0.0001384
2120.66696,-0.0001385
2119.70258,-0.0001385
2118.73820,-0.0001386
2117.77382,-0.0001387
2116.80945,-0.0001387
2115.84507,-0.0001388
2114.88069,-0.0001389
2113.91631,-0.0001389
2112.95194,-0.0001390
2111.98756,-0.0001391
2111.02318,-0.0001391
2110.05880,-0.0001392
2109.09442,-0.0001392
2108.13005,-0.0001393
2107.16567,-0.0001394
2106.20129,-0.0001394
2105.23691,-0.0001395
2104.27253,-0.0001396
2103.30816,-0.0001396
2102.34378,-0.0001397
2101.37940,-0.0001398
2100.41502,-0.0001398
2099.45065,-0.0001399
2098.48627,-0.0001400
2097.52189,-0.0001400
2096.55751,-0.0001401
2095.59313,-0.0001402
2094.62876,-0.0001402
2093.66438,-0.0001403
2092.70000,-0.0001404
2091.73562,-0.0001404
2090.77124,-0.0001405
2089.80687,-0.0001406
2088.84249,-0.0001406
2087.87811,-0.0001407
2086.91373,-0.0001408
2085.94935,-0.0001408
2084.98498,-0.0001409
2084.02060,-0.0001410
2083.05622,-0.0001410
2082.09184,-0.0001411
2081.12747,-0.0001412
2080.16309,-0.0001412
2079.19871,-0.0001413
2078.23433,-0.0001414
2077.26995,-0.0001414
2076.30558,-0.0001415
2075.34120,-0.0001416
2074.37682,-0.0001416
2073.41244,-0.0001417
2072.44806,-0.0001418
2071.48369,-0.0001418
2070.51931,-0.0001419
2069.55493,-0.0001420
2068.59055,-0.0001420
2067.62618,-0.0001421
2066.66180,-0.0001422
2065.69742,-0.0001422
2064.73304,-0.0001423
2063.76866,-0.0001424
2062.80429,-0.0001424
2061.83991,-0.0001425
2060.87553,-0.0001426
2059.91115,-0.0001426
2058.94677,-0.0001427
2057.98240,-0.0001428
2057.01802,-0.0001428
2056.05364,-0.0001429
2055.08926,-0.0001430
2054.12488,-0.0001430
2053.16051,-0.0001431
2052.19613,-0.0001432
2051.23175,-0.0001432
2050.26737,-0.0001433
2049.30300,-0.0001434
2048.33862,-0.0001434
2047.37424,-0.0001435
2046.40986,-0.0001436
2045.44548,-0.0001436
2044.48111,-0.0001437
2043.51673,-0.0001438
2042.55235,-0.0001438
2041.58797,-0.0001439
2040.62359,-0.0001440
2039.65922,-0.0001440
2038.69484,-0.0001441
2037.73046,-0.0001442
2036.76608,-0.0001442
2035.80171,-0.0001443
2034.83733,-0.0001444
2033.87295,-0.0001444
2032.90857,-0.0001445
2031.94419,-0.0001446
2030.97982,-0.0001446
2030.01544,-0.0001447
2029.05106,-0.0001448
2028.08668,-0.0001448
2027.12230,-0.0001449
2026.15793,-0.0001449
2025.19355,-0.0001450
2024.22917,-0.0001451
2023.26479,-0.0001451
2022.30041,-0.0001452
2021.33604,-0.0001453
2020.37166,-0.0001453
2019.40728,-0.0001454
2018.44290,-0.0001455
2017.47853,-0.0001455
2016.51415,-0.0001456
2015.54977,-0.0001457
2014.58539,-0.0001457
2013.62101,-0.0001458
2012.65664,-0.0001459
2011.69226,-0.0001459
2010.72788,-0.0001460
2009.76350,-0.0001461
2008.79912,-0.0001461
2007.83475,-0.0001462
2006.87037,-0.0001463
2005.90599,-0.0001463
2004.94161,-0.0001464
2003.97724,-0.0001465
2003.01286,-0.0001465
2002.04848,-0.0001466
2001.08410,-0.0001467
2000.11972,-0.0001467
1999.15535,-0.0001468
1998.19097,-0.0001469
1997.22659,-0.0001469
1996.26221,-0.0001470
1995.29783,-0.0001471
1994.33346,-0.0001471
1993.36908,-0.0001472
1992.40470,-0.0001473
1991.44032,-0.0001473
1990.47594,-0.0001474
1989.51157,-0.0001475
1988.54719,-0.0001475
1987.58281,-0.0001476
1986.61843,-0.0001477
1985.65406,-0.0001477
1984.68968,-0.0001478
1983.72530,-0.0001479
1982.76092,-0.0001479
1981.79654,-0.0001480
1980.83217,-0.0001481
1979.86779,-0.0001481
1978.90341,-0.0001482
1977.93903,-0.0001483
1976.97465,-0.0001483
1976.01028,-0.0001484
1975.04590,-0.0001485
1974.08152,-0.0001485
1973.11714,-0.0001486
1972.15276,-0.0001487
1971.18839,-0.0001487
1970.22401,-0.0001488
1969.25963,-0.0001489
1968.29525,-0.0001489
1967.33088,-0.0001490
1966.36650,-0.0001491
1965.40212,-0.0001491
1964.43774,-0.0001492
1963.47336,-0.0001493
1962.50899,-0.0001493
1961.54461,-0.0001494
1960.58023,-0.0001495
1959.61585,-0.0001495
1958.65147,-0.0001496
1957.68710,-0.0001497
1956.72272,-0.0001497
1955.75834,-0.0001498
1954.79396,-0.0001499
1953.82959,-0.0001499
1952.86521,-0.0001500
1951.90083,-0.0001501
1950.93645,-0.0001501
1949.97207,-0.0001502
1949.00770,-0.0001503
1948.04332,-0.0001503
1947.07894,-0.0001504
1946.11456,-0.0001505
1945.15018,-0.0001505
1944.18581,-0.0001506
1943.22143,-0.0001507
1942.25705,-0.0001507
1941.29267,-0.0001508
1940.32829,-0.0001508
1939.36392,-0.0001509
1938.39954,-0.0001510
1937.43516,-0.0001510
1936.47078,-0.0001511
1935.50641,-0.0001512
1934.54203,-0.0001512
1933.57765,-0.0001513
1932.61327,-0.0001514
1931.64889,-0.0001514
1930.68452,-0.0001515
1929.72014,-0.0001516
1928.75576,-0.0001516
1927.79138,-0.0001517
1926.82700,-0.0001518
1925.86263,-0.0001518
1924.89825,-0.0001519
1923.93387,-0.0001520
1922.96949,-0.0001520
1922.00512,-0.0001521
1921.04074,-0.0001522
1920.07636,-0.0001522
1919.11198,-0.0001523
1918.14760,-0.0001524
1917.18323,-0.0001524
1916.21885,-0.0001525
1915.25447,-0.0001526
1914.29009,-0.0001526
1913.32571,-0.0001527
1912.36134,-0.0001528
1911.39696,-0.0001528
1910.43258,-0.0001529
1909.46820,-0.0001530
1908.50382,-0.0001530
1907.53945,-0.0001531
1906.57507,-0.0001532
1905.61069,-0.0001532
1904.64631,-0.0001533
1903.68194,-0.0001534
1902.71756,-0.0001534
1901.75318,-0.0001535
1900.78880,-0.0001536
1899.82442,-0.0001536
1898.86005,-0.0001537
1897.89567,-0.0001538
1896.93129,-0.0001538
1895.96691,-0.0001539
1895.00253,-0.0001540
1894.03816,-0.0001540
1893.07378,-0.0001541
1892.10940,-0.0001542
1891.14502,-0.0001542
1890.18065,-0.0001543
1889.21627,-0.0001544
1888.25189,-0.0001544
1887.28751,-0.0001545
1886.32313,-0.0001546
1885.35876,-0.0001546
1884.39438,-0.0001547
1883.43000,-0.0001548
1882.46562,-0.0001548
1881.50124,-0.0001549
1880.53687,-0.0001550
1879.57249,-0.0001550
1878.60811,-0.0001551
1877.64373,-0.0001552
1876.67935,-0.0001552
1875.71498,-0.0001553
1874.75060,-0.0001554
1873.78622,-0.0001648
1872.82184,-0.0001860
1871.85747,-0.0001913
1870.89309,-0.0001516
1869.92871,-0.0000679
1868.96433,0.0000124
1867.99995,0.0000626
1867.03558,0.0000828
1866.07120,0.0000776
1865.10682,0.0000974
1864.14244,0.0001669
1863.17806,0.0002408
1862.21369,0.0002412
1861.24931,0.0001907
1860.28493,0.0001895
1859.32055,0.0002100
1858.35618,0.0002039
1857.39180,0.0001658
1856.42742,0.0000950
1855.46304,0.0000160
1854.49866,-0.0000381
1853.53429,-0.0000306
1852.56991,0.0000085
1851.60553,0.0000273
1850.64115,0.0000001
1849.67677,-0.0000199
1848.71240,0.0000293
1847.74802,0.0000791
1846.78364,0.0001297
1845.81926,0.0002045
1844.85488,0.0002585
1843.89051,0.0003112
1842.92613,0.0003662
1841.96175,0.0003761
1840.99737,0.0003364
1840.03300,0.0003081
1839.06862,0.0002946
1838.10424,0.0002668
1837.13986,0.0002555
1836.17548,0.0002558
1835.21111,0.0002874
1834.24673,0.0003404
1833.28235,0.0003540
1832.31797,0.0003529
1831.35359,0.0003437
1830.38922,0.0003068
1829.42484,0.0002700
1828.46046,0.0002803
1827.49608,0.0003239
1826.53171,0.0003310
1825.56733,0.0003232
1824.60295,0.0003302
1823.63857,0.0003350
1822.67419,0.0003201
1821.70982,0.0002607
1820.74544,0.0001939
1819.78106,0.0001378
1818.81668,0.0000818
1817.85230,0.0000459
1816.88793,0.0000535
1815.92355,0.0001089
1814.95917,0.0001602
1813.99479,0.0002097
1813.03041,0.0002688
1812.06604,0.0002958
1811.10166,0.0003128
1810.13728,0.0003279
1809.17290,0.0003265
1808.20853,0.0003135
1807.24415,0.0002985
1806.27977,0.0002912
1805.31539,0.0002888
1804.35101,0.0003170
1803.38664,0.0003587
1802.42226,0.0003814
1801.45788,0.0004083
1800.49350,0.0004271
1799.52912,0.0004130
1798.56475,0.0003688
1797.60037,0.0003116
1796.63599,0.0002766
1795.67161,0.0002845
1794.70724,0.0003111
1793.74286,0.0003367
1792.77848,0.0003741
1791.81410,0.0003983
1790.84972,0.0003982
1789.88535,0.0004100
1788.92097,0.0004148
1787.95659,0.0003773
1786.99221,0.0003178
1786.02783,0.0002796
1785.06346,0.0002888
1784.09908,0.0003308
1783.13470,0.0003602
1782.17032,0.0003638
1781.20594,0.0003673
1780.24157,0.0003687
1779.27719,0.0003498
1778.31281,0.0003378
1777.34843,0.0003613
1776.38406,0.0003921
1775.41968,0.0004167
1774.45530,0.0004545
1773.49092,0.0005065
1772.52654,0.0005528
1771.56217,0.0005658
1770.59779,0.0005551
1769.63341,0.0005486
1768.66903,0.0005215
1767.70465,0.0004707
1766.74028,0.0004545
1765.77590,0.0004798
1764.81152,0.0005034
1763.84714,0.0005156
1762.88276,0.0005252
1761.91839,0.0005529
1760.95401,0.0005971
1759.98963,0.0006240
1759.02525,0.0006381
1758.06088,0.0006492
1757.09650,0.0006626
1756.13212,0.0007220
1755.16774,0.0008183
1754.20336,0.0009135
1753.23899,0.0010253
1752.27461,0.0011493
1751.31023,0.0012684
1750.34585,0.0013888
1749.38147,0.0015027
1748.41710,0.0016051
1747.45272,0.0016822
1746.48834,0.0017227
1745.52396,0.0017643
1744.55959,0.0018380
1743.59521,0.0018991
1742.63083,0.0019254
1741.66645,0.0019397
1740.70207,0.0019312
1739.73770,0.0019315
1738.77332,0.0019815
1737.80894,0.0020586
1736.84456,0.0021305
1735.88018,0.0021516
1734.91581,0.0021277
1733.95143,0.0020931
1732.98705,0.0020412
1732.02267,0.0019565
1731.05829,0.0018325
1730.09392,0.0016806
1729.12954,0.0015300
1728.16516,0.0014387
1727.20078,0.0014030
1726.23641,0.0013610
1725.27203,0.0013027
1724.30765,0.0012324
1723.34327,0.0011856
1722.37889,0.0011803
1721.41452,0.0011833
1720.45014,0.0011945
1719.48576,0.0012132
1718.52138,0.0012248
1717.55700,0.0012276
1716.59263,0.0012198
1715.62825,0.0011901
1714.66387,0.0011387
1713.69949,0.0010744
1712.73512,0.0010002
1711.77074,0.0009445
1710.80636,0.0009263
1709.84198,0.0009289
1708.87760,0.0009595
1707.91323,0.0010041
1706.94885,0.0010188
1705.98447,0.0010492
1705.02009,0.0011488
1704.05571,0.0012766
1703.09134,0.0013866
1702.12696,0.0014468
1701.16258,0.0015085
1700.19820,0.0016252
1699.23382,0.0017526
1698.26945,0.0018534
1697.30507,0.0019174
1696.34069,0.0019285
1695.37631,0.0019001
1694.41194,0.0019044
1693.44756,0.0019467
1692.48318,0.0019498
1691.51880,0.0018931
1690.55442,0.0018402
1689.59005,0.0019173
1688.62567,0.0020964
1687.66129,0.0022612
1686.69691,0.0023844
1685.73253,0.0024818
1684.76816,0.0025713
1683.80378,0.0026451
1682.83940,0.0026948
1681.87502,0.0027037
1680.91065,0.0026867
1679.94627,0.0026947
1678.98189,0.0027442
1678.01751,0.0028499
1677.05313,0.0029683
1676.08876,0.0030492
1675.12438,0.0031048
1674.16000,0.0031814
1673.19562,0.0032735
1672.23124,0.0033322
1671.26687,0.0033572
1670.30249,0.0033630
1669.33811,0.0033828
1668.37373,0.0034375
1667.40935,0.0034920
1666.44498,0.0035417
1665.48060,0.0035914
1664.51622,0.0036221
1663.55184,0.0036535
1662.58747,0.0037096
1661.62309,0.0037527
1660.65871,0.0037643
1659.69433,0.0037510
1658.72995,0.0037607
1657.76558,0.0038688
1656.80120,0.0040326
1655.83682,0.0041864
1654.87244,0.0042881
1653.90806,0.0043233
1652.94369,0.0042965
1651.97931,0.0042399
1651.01493,0.0041976
1650.05055,0.0041347
1649.08618,0.0040360
1648.12180,0.0039263
1647.15742,0.0038623
1646.19304,0.0038727
1645.22866,0.0038659
1644.26429,0.0038129
1643.29991,0.0037274
1642.33553,0.0036155
1641.37115,0.0035214
1640.40677,0.0035074
1639.44240,0.0035583
1638.47802,0.0035932
1637.51364,0.0036017
1636.54926,0.0036002
1635.58488,0.0035804
1634.62051,0.0035423
1633.65613,0.0034904
1632.69175,0.0034294
1631.72737,0.0033602
1630.76300,0.0032868
1629.79862,0.0032438
1628.83424,0.0032651
1627.86986,0.0033016
1626.90548,0.0033129
1625.94111,0.0033093
1624.97673,0.0033016
1624.01235,0.0032757
1623.04797,0.0032162
1622.08359,0.0031778
1621.11922,0.0031720
1620.15484,0.0031525
1619.19046,0.0031136
1618.22608,0.0030672
1617.26171,0.0030261
1616.29733,0.0029769
1615.33295,0.0029168
1614.36857,0.0028576
1613.40419,0.0028077
1612.43982,0.0027606
1611.47544,0.0027154
1610.51106,0.0027094
1609.54668,0.0027156
1608.58230,0.0026963
1607.61793,0.0026697
1606.65355,0.0026398
1605.68917,0.0026098
1604.72479,0.0025873
1603.76041,0.0025739
1602.79604,0.0025686
1601.83166,0.0025708
1600.86728,0.0025739
1599.90290,0.0025724
1598.93853,0.0025660
1597.97415,0.0025504
1597.00977,0.0025373
1596.04539,0.0025376
1595.08101,0.0025424
1594.11664,0.0025433
1593.15226,0.0025358
1592.18788,0.0025156
1591.22350,0.0024964
1590.25912,0.0024786
1589.29475,0.0024523
1588.33037,0.0024298
1587.36599,0.0024058
1586.40161,0.0023799
1585.43724,0.0023632
1584.47286,0.0023623
1583.50848,0.0023625
1582.54410,0.0023414
1581.57972,0.0023455
1580.61535,0.0024062
1579.65097,0.0024939
1578.68659,0.0025720
1577.72221,0.0026191
1576.75783,0.0026326
1575.79346,0.0026195
1574.82908,0.0026142
1573.86470,0.0026074
1572.90032,0.0025793
1571.93594,0.0025247
1570.97157,0.0024522
1570.00719,0.0024284
1569.04281,0.0024467
1568.07843,0.0024519
1567.11406,0.0024200
1566.14968,0.0023545
1565.18530,0.0023188
1564.22092,0.0023590
1563.25654,0.0024912
1562.29217,0.0026575
1561.32779,0.0027759
1560.36341,0.0028493
1559.39903,0.0029226
1558.43465,0.0029998
1557.47028,0.0030323
1556.50590,0.0030015
1555.54152,0.0029212
1554.57714,0.0028277
1553.61276,0.0027782
1552.64839,0.0027670
1551.68401,0.0027773
1550.71963,0.0027963
1549.75525,0.0028094
1548.79088,0.0028396
1547.82650,0.0029153
1546.86212,0.0030084
1545.89774,0.0030740
1544.93336,0.0031456
1543.96899,0.0032617
1543.00461,0.0033808
1542.04023,0.0034597
1541.07585,0.0034779
1540.11147,0.0034437
1539.14710,0.0034059
1538.18272,0.0033747
1537.21834,0.0033153
1536.25396,0.0032370
1535.28959,0.0031424
1534.32521,0.0030392
1533.36083,0.0029856
1532.39645,0.0029684
1531.43207,0.0029450
1530.46770,0.0029308
1529.50332,0.0029155
1528.53894,0.0028817
1527.57456,0.0028520
1526.61018,0.0028563
1525.64581,0.0028952
1524.68143,0.0029338
1523.71705,0.0029302
1522.75267,0.0029104
1521.78829,0.0029059
1520.82392,0.0028895
1519.85954,0.0028670
1518.89516,0.0028351
1517.93078,0.0027687
1516.96641,0.0026810
1516.00203,0.0025993
1515.03765,0.0025530
1514.07327,0.0025186
1513.10889,0.0024620
1512.14452,0.0024273
1511.18014,0.0024714
1510.21576,0.0025674
1509.25138,0.0026456
1508.28700,0.0026723
1507.32263,0.0026450
1506.35825,0.0025885
1505.39387,0.0025047
1504.42949,0.0023992
1503.46512,0.0022853
1502.50074,0.0021420
1501.53636,0.0020324
1500.57198,0.0020119
1499.60760,0.0020335
1498.64323,0.0020540
1497.67885,0.0020432
1496.71447,0.0020019
1495.75009,0.0019599
1494.78571,0.0019216
1493.82134,0.0018746
1492.85696,0.0018432
1491.89258,0.0018393
1490.92820,0.0018315
1489.96382,0.0018351
1488.99945,0.0018430
1488.03507,0.0018287
1487.07069,0.0018089
1486.10631,0.0017790
1485.14194,0.0017419
1484.17756,0.0017205
1483.21318,0.0017029
1482.24880,0.0016760
1481.28442,0.0016748
1480.32005,0.0017007
1479.35567,0.0017170
1478.39129,0.0017404
1477.42691,0.0017960
1476.46253,0.0018783
1475.49816,0.0019604
1474.53378,0.0020292
1473.56940,0.0020931
1472.60502,0.0021409
1471.64065,0.0021519
1470.67627,0.0021394
1469.71189,0.0021505
1468.74751,0.0021559
1467.78313,0.0021351
1466.81876,0.0021398
1465.85438,0.0021600
1464.89000,0.0021797
1463.92562,0.0021886
1462.96124,0.0021938
1461.99687,0.0022518
1461.03249,0.0023460
1460.06811,0.0024281
1459.10373,0.0024913
1458.13935,0.0025456
1457.17498,0.0025765
1456.21060,0.0025818
1455.24622,0.0025696
1454.28184,0.0025105
1453.31747,0.0024248
1452.35309,0.0023554
1451.38871,0.0023240
1450.42433,0.0023513
1449.45995,0.0023926
1448.49558,0.0024062
1447.53120,0.0024030
1446.56682,0.0023950
1445.60244,0.0023847
1444.63806,0.0023738
1443.67369,0.0023421
1442.70931,0.0022934
1441.74493,0.0023014
1440.78055,0.0023781
1439.81618,0.0024593
1438.85180,0.0025207
1437.88742,0.0025650
1436.92304,0.0025867
1435.95866,0.0025876
1434.99429,0.0025715
1434.02991,0.0025407
1433.06553,0.0025030
1432.10115,0.0024555
1431.13677,0.0024122
1430.17240,0.0024103
1429.20802,0.0024320
1428.24364,0.0024475
1427.27926,0.0024623
1426.31488,0.0024635
1425.35051,0.0024662
1424.38613,0.0025214
1423.42175,0.0026109
1422.45737,0.0027033
1421.49300,0.0027877
1420.52862,0.0028494
1419.56424,0.0028896
1418.59986,0.0029109
1417.63548,0.0029168
1416.67111,0.0029089
1415.70673,0.0028822
1414.74235,0.0028423
1413.77797,0.0028266
1412.81359,0.0028495
1411.84922,0.0028619
1410.88484,0.0028666
1409.92046,0.0028908
1408.95608,0.0029245
1407.99171,0.0029632
1407.02733,0.0029928
1406.06295,0.0030005
1405.09857,0.0029980
1404.13419,0.0029991
1403.16982,0.0030019
1402.20544,0.0029979
1401.24106,0.0029772
1400.27668,0.0029533
1399.31230,0.0029615
1398.34793,0.0029936
1397.38355,0.0030244
1396.41917,0.0030469
1395.45479,0.0030545
1394.49041,0.0030444
1393.52604,0.0030251
1392.56166,0.0030217
1391.59728,0.0030326
1390.63290,0.0030330
1389.66853,0.0030111
1388.70415,0.0029924
1387.73977,0.0030024
1386.77539,0.0030178
1385.81101,0.0030252
1384.84664,0.0030187
1383.88226,0.0030028
1382.91788,0.0029916
1381.95350,0.0029770
1380.98912,0.0029704
1380.02475,0.0029722
1379.06037,0.0029693
1378.09599,0.0029633
1377.13161,0.0029521
1376.16724,0.0029375
1375.20286,0.0029177
1374.23848,0.0028886
1373.27410,0.0028547
1372.30972,0.0028288
1371.34535,0.0028047
1370.38097,0.0027633
1369.41659,0.0027247
1368.45221,0.0027167
1367.48783,0.0027393
1366.52346,0.0027715
1365.55908,0.0027832
1364.59470,0.0027731
1363.63032,0.0027595
1362.66594,0.0027468
1361.70157,0.0027373
1360.73719,0.0027254
1359.77281,0.0026954
1358.80843,0.0026511
1357.84406,0.0026109
1356.87968,0.0025859
1355.91530,0.0025730
1354.95092,0.0025618
1353.98654,0.0025406
1353.02217,0.0025112
1352.05779,0.0024900
1351.09341,0.0024824
1350.12903,0.0024857
1349.16465,0.0024874
1348.20028,0.0024827
1347.23590,0.0024839
1346.27152,0.0024866
1345.30714,0.0024805
1344.34276,0.0024698
1343.37839,0.0024598
1342.41401,0.0024467
1341.44963,0.0024337
1340.48525,0.0024218
1339.52088,0.0024058
1338.55650,0.0023923
1337.59212,0.0023742
1336.62774,0.0023547
1335.66336,0.0023448
1334.69899,0.0023280
1333.73461,0.0022952
1332.77023,0.0022580
1331.80585,0.0022368
1330.84147,0.0022292
1329.87710,0.0022209
1328.91272,0.0022103
1327.94834,0.0021990
1326.98396,0.0021946
1326.01959,0.0021919
1325.05521,0.0021919
1324.09083,0.0021931
1323.12645,0.0021865
1322.16207,0.0021820
1321.19770,0.0021843
1320.23332,0.0022002
1319.26894,0.0022190
1318.30456,0.0022274
1317.34018,0.0022410
1316.37581,0.0022608
1315.41143,0.0022791
1314.44705,0.0022932
1313.48267,0.0022994
1312.51829,0.0022942
1311.55392,0.0022935
1310.58954,0.0023068
1309.62516,0.0023152
1308.66078,0.0023160
1307.69641,0.0023093
1306.73203,0.0023061
1305.76765,0.0023207
1304.80327,0.0023348
1303.83889,0.0023360
1302.87452,0.0023219
1301.91014,0.0022969
1300.94576,0.0022716
1299.98138,0.0022563
1299.01700,0.0022454
1298.05263,0.0022262
1297.08825,0.0022132
1296.12387,0.0022190
1295.15949,0.0022364
1294.19512,0.0022475
1293.23074,0.0022481
1292.26636,0.0022414
1291.30198,0.0022213
1290.33760,0.0022037
1289.37323,0.0021966
1288.40885,0.0021912
1287.44447,0.0021809
1286.48009,0.0021651
1285.51571,0.0021639
1284.55134,0.0021774
1283.58696,0.0021795
1282.62258,0.0021659
1281.65820,0.0021550
1280.69382,0.0021424
1279.72945,0.0021176
1278.76507,0.0021013
1277.80069,0.0020994
1276.83631,0.0020997
1275.87194,0.0020982
1274.90756,0.0021046
1273.94318,0.0021296
1272.97880,0.0021628
1272.01442,0.0021960
1271.05005,0.0022275
1270.08567,0.0022614
1269.12129,0.0022937
1268.15691,0.0023119
1267.19253,0.0023224
1266.22816,0.0023285
1265.26378,0.0023249
1264.29940,0.0023187
1263.33502,0.0023227
1262.37065,0.0023302
1261.40627,0.0023316
1260.44189,0.0023326
1259.47751,0.0023303
1258.51313,0.0023350
1257.54876,0.0023472
1256.58438,0.0023472
1255.62000,0.0023475
1254.65562,0.0023502
1253.69124,0.0023386
1252.72687,0.0023203
1251.76249,0.0023068
1250.79811,0.0022948
1249.83373,0.0022767
1248.86935,0.0022570
1247.90498,0.0022421
1246.94060,0.0022335
1245.97622,0.0022239
1245.01184,0.0022117
1244.04747,0.0022086
1243.08309,0.0022034
1242.11871,0.0021929
1241.15433,0.0021876
1240.18995,0.0021750
1239.22558,0.0021560
1238.26120,0.0021407
1237.29682,0.0021273
1236.33244,0.0021151
1235.36806,0.0021057
1234.40369,0.0020999
1233.43931,0.0020962
1232.47493,0.0020956
1231.51055,0.0021020
1230.54618,0.0021203
1229.58180,0.0021353
1228.61742,0.0021284
1227.65304,0.0021248
1226.68866,0.0021345
1225.72429,0.0021320
1224.75991,0.0021256
1223.79553,0.0021317
1222.83115,0.0021342
1221.86677,0.0021251
1220.90240,0.0021156
1219.93802,0.0021099
1218.97364,0.0021042
1218.00926,0.0020917
1217.04488,0.0020762
1216.08051,0.0020720
1215.11613,0.0020749
1214.15175,0.0020675
1213.18737,0.0020600
1212.22300,0.0020648
1211.25862,0.0020658
1210.29424,0.0020655
1209.32986,0.0020761
1208.36548,0.0020939
1207.40111,0.0021213
1206.43673,0.0021413
1205.47235,0.0021369
1204.50797,0.0021260
1203.54359,0.0021254
1202.57922,0.0021289
1201.61484,0.0021337
1200.65046,0.0021526
1199.68608,0.0021835
1198.72171,0.0022212
1197.75733,0.0022661
1196.79295,0.0023103
1195.82857,0.0023566
1194.86419,0.0023888
1193.89982,0.0023948
1192.93544,0.0024034
1191.97106,0.0024243
1191.00668,0.0024428
1190.04230,0.0024554
1189.07793,0.0024797
1188.11355,0.0025185
1187.14917,0.0025503
1186.18479,0.0025665
1185.22041,0.0025624
1184.25604,0.0025527
1183.29166,0.0025432
1182.32728,0.0025192
1181.36290,0.0024993
1180.39853,0.0024835
1179.43415,0.0024583
1178.46977,0.0024444
1177.50539,0.0024507
1176.54101,0.0024687
1175.57664,0.0024947
1174.61226,0.0025119
1173.64788,0.0025061
1172.68350,0.0024909
1171.71912,0.0024662
1170.75475,0.0024380
1169.79037,0.0024212
1168.82599,0.0023963
1167.86161,0.0023776
1166.89724,0.0023811
1165.93286,0.0023854
1164.96848,0.0023982
1164.00410,0.0024256
1163.03972,0.0024416
1162.07535,0.0024347
1161.11097,0.0024180
1160.14659,0.0024069
1159.18221,0.0024135
1158.21783,0.0024213
1157.25346,0.0024236
1156.28908,0.0024472
1155.32470,0.0024747
1154.36032,0.0024880
1153.39594,0.0025015
1152.43157,0.0025173
1151.46719,0.0025361
1150.50281,0.0025488
1149.53843,0.0025506
1148.57406,0.0025601
1147.60968,0.0025879
1146.64530,0.0026234
1145.68092,0.0026583
1144.71654,0.0026843
1143.75217,0.0026933
1142.78779,0.0027025
1141.82341,0.0027184
1140.85903,0.0027404
1139.89465,0.0027728
1138.93028,0.0027927
1137.96590,0.0027934
1137.00152,0.0028003
1136.03714,0.0028333
1135.07276,0.0028774
1134.10839,0.0028942
1133.14401,0.0028886
1132.17963,0.0028873
1131.21525,0.0028885
1130.25088,0.0028801
1129.28650,0.0028586
1128.32212,0.0028452
1127.35774,0.0028442
1126.39336,0.0028446
1125.42899,0.0028657
1124.46461,0.0029100
1123.50023,0.0029477
1122.53585,0.0029646
1121.57147,0.0029838
1120.60710,0.0030034
1119.64272,0.0029948
1118.67834,0.0029635
1117.71396,0.0029297
1116.74959,0.0029258
1115.78521,0.0029404
1114.82083,0.0029450
1113.85645,0.0029577
1112.89207,0.0029726
1111.92770,0.0029914
1110.96332,0.0030220
1109.99894,0.0030579
1109.03456,0.0030955
1108.07018,0.0031172
1107.10581,0.0031269
1106.14143,0.0031393
1105.17705,0.0031633
1104.21267,0.0031898
1103.24829,0.0032003
1102.28392,0.0032055
1101.31954,0.0032202
1100.35516,0.0032419
1099.39078,0.0032488
1098.42641,0.0032365
1097.46203,0.0032109
1096.49765,0.0031570
1095.53327,0.0030922
1094.56889,0.0030542
1093.60452,0.0030422
1092.64014,0.0030462
1091.67576,0.0030729
1090.71138,0.0031098
1089.74700,0.0031435
1088.78263,0.0031805
1087.81825,0.0032138
1086.85387,0.0032303
1085.88949,0.0032253
1084.92512,0.0032001
1083.96074,0.0031801
1082.99636,0.0031855
1082.03198,0.0031968
1081.06760,0.0032164
1080.10323,0.0032421
1079.13885,0.0032362
1078.17447,0.0032143
1077.21009,0.0032099
1076.24571,0.0032052
1075.28134,0.0031808
1074.31696,0.0031566
1073.35258,0.0031634
1072.38820,0.0032195
1071.42382,0.0033053
1070.45945,0.0033830
1069.49507,0.0034510
1068.53069,0.0034942
1067.56631,0.0035107
1066.60194,0.0035286
1065.63756,0.0035477
1064.67318,0.0035600
1063.70880,0.0035525
1062.74442,0.0035475
1061.78005,0.0035742
1060.81567,0.0036189
1059.85129,0.0036498
1058.88691,0.0036472
1057.92253,0.0036394
1056.95816,0.0036330
1055.99378,0.0036282
1055.02940,0.0036317
1054.06502,0.0036253
1053.10065,0.0036090
1052.13627,0.0035759
1051.17189,0.0035399
1050.20751,0.0035118
1049.24313,0.0034828
1048.27876,0.0034596
1047.31438,0.0034339
1046.35000,0.0034177
1045.38562,0.0034164
1044.42124,0.0034208
1043.45687,0.0034276
1042.49249,0.0034159
1041.52811,0.0033879
1040.56373,0.0033623
1039.59935,0.0033514
1038.63498,0.0033484
1037.67060,0.0033446
1036.70622,0.0033416
1035.74184,0.0033306
1034.77747,0.0033204
1033.81309,0.0033163
1032.84871,0.0033176
1031.88433,0.0033153
1030.91995,0.0032860
1029.95558,0.0032430
1028.99120,0.0032101
1028.02682,0.0031969
1027.06244,0.0031853
1026.09806,0.0031598
1025.13369,0.0031416
1024.16931,0.0031269
1023.20493,0.0031109
1022.24055,0.0030982
1021.27618,0.0030869
1020.31180,0.0030730
1019.34742,0.0030491
1018.38304,0.0030268
1017.41866,0.0030007
1016.45429,0.0029725
1015.48991,0.0029427
1014.52553,0.0029032
1013.56115,0.0028738
1012.59677,0.0028434
1011.63240,0.0028126
1010.66802,0.0027985
1009.70364,0.0027934
1008.73926,0.0027860
1007.77488,0.0027626
1006.81051,0.0027359
1005.84613,0.0026999
1004.88175,0.0026619
1003.91737,0.0026452
1002.95300,0.0026247
1001.98862,0.0026030
1001.02424,0.0025950
1000.05986,0.0025955
999.09548,0.0026045
998.13111,0.0026102
997.16673,0.0025947
996.20235,0.0025673
995.23797,0.0025441
994.27359,0.0025118
993.30922,0.0024793
992.34484,0.0024555
991.38046,0.0024394
990.41608,0.0024379
989.45171,0.0024230
988.48733,0.0023868
987.52295,0.0023525
986.55857,0.0023224
985.59419,0.0023023
984.62982,0.0023029
983.66544,0.0023082
982.70106,0.0023062
981.73668,0.0023139
980.77230,0.0023412
979.80793,0.0023776
978.84355,0.0023983
977.87917,0.0023871
976.91479,0.0023527
975.95041,0.0023002
974.98604,0.0022394
974.02166,0.0022081
973.05728,0.0021990
972.09290,0.0021721
971.12853,0.0021564
970.16415,0.0021729
969.19977,0.0021937
968.23539,0.0022042
967.27101,0.0022188
966.30664,0.0022278
965.34226,0.0021918
964.37788,0.0021410
963.41350,0.0021095
962.44912,0.0020940
961.48475,0.0020894
960.52037,0.0020760
959.55599,0.0020574
958.59161,0.0020446
957.62724,0.0020380
956.66286,0.0020355
955.69848,0.0020436
954.73410,0.0020373
953.76972,0.0020012
952.80535,0.0019770
951.84097,0.0019530
950.87659,0.0019359
949.91221,0.0019393
948.94783,0.0019142
947.98346,0.0018770
947.01908,0.0018771
946.05470,0.0018881
945.09032,0.0018805
944.12594,0.0018885
943.16157,0.0019006
942.19719,0.0019092
941.23281,0.0019316
940.26843,0.0019390
939.30406,0.0019562
938.33968,0.0019837
937.37530,0.0019993
936.41092,0.0020193
935.44654,0.0020289
934.48217,0.0020114
933.51779,0.0019780
932.55341,0.0019675
931.58903,0.0019675
930.62465,0.0019486
929.66028,0.0019082
928.69590,0.0018503
927.73152,0.0018205
926.76714,0.0018285
925.80276,0.0018623
924.83839,0.0019103
923.87401,0.0019576
922.90963,0.0019912
921.94525,0.0019944
920.98088,0.0020057
920.01650,0.0020161
919.05212,0.0019880
918.08774,0.0019424
917.12336,0.0018871
916.15899,0.0018271
915.19461,0.0017651
914.23023,0.0017243
913.26585,0.0017401
912.30147,0.0017771
911.33710,0.0017791
910.37272,0.0017596
909.40834,0.0017564
908.44396,0.0017582
907.47959,0.0017500
906.51521,0.0017486
905.55083,0.0017420
904.58645,0.0016992
903.62207,0.0016483
902.65770,0.0016366
901.69332,0.0016706
900.72894,0.0017073
899.76456,0.0017163
898.80018,0.0017239
897.83581,0.0017379
896.87143,0.0017710
895.90705,0.0018105
894.94267,0.0018261
893.97829,0.0018346
893.01392,0.0018261
892.04954,0.0018134
891.08516,0.0017998
890.12078,0.0017699
889.15641,0.0017643
888.19203,0.0018006
887.22765,0.0018526
886.26327,0.0018830
885.29889,0.0019129
884.33452,0.0019448
883.37014,0.0019337
882.40576,0.0019055
881.44138,0.0018714
880.47700,0.0018241
879.51263,0.0017909
878.54825,0.0017796
877.58387,0.0017700
876.61949,0.0017363
875.65512,0.0016618
874.69074,0.0015628
873.72636,0.0015062
872.76198,0.0015133
871.79760,0.0015324
870.83323,0.0015306
869.86885,0.0015450
868.90447,0.0016225
867.94009,0.0017274
866.97571,0.0017846
866.01134,0.0017655
865.04696,0.0017287
864.08258,0.0016993
863.11820,0.0016443
862.15382,0.0016038
861.18945,0.0016131
860.22507,0.0016460
859.26069,0.0016810
858.29631,0.0017466
857.33194,0.0018381
856.36756,0.0018946
855.40318,0.0019075
854.43880,0.0018914
853.47442,0.0018833
852.51005,0.0018684
851.54567,0.0017817
850.58129,0.0016736
849.61691,0.0016081
848.65253,0.0015807
847.68816,0.0015716
846.72378,0.0015615
845.75940,0.0015441
844.79502,0.0015358
843.83065,0.0015519
842.86627,0.0015769
841.90189,0.0016179
840.93751,0.0016643
839.97313,0.0016768
839.00876,0.0016806
838.04438,0.0017101
837.08000,0.0017492
836.11562,0.0017698
835.15124,0.0017700
834.18687,0.0017684
833.22249,0.0017794
832.25811,0.0017991
831.29373,0.0018381
830.32935,0.0018938
829.36498,0.0019158
828.40060,0.0019115
827.43622,0.0019128
826.47184,0.0019142
825.50747,0.0019009
824.54309,0.0018615
823.57871,0.0018091
822.61433,0.0017414
821.64995,0.0016837
820.68558,0.0016635
819.72120,0.0016835
818.75682,0.0017320
817.79244,0.0017398
816.82806,0.0017383
815.86369,0.0017664
814.89931,0.0017706
813.93493,0.0017524
812.97055,0.0017359
812.00618,0.0017502
811.04180,0.0017785
810.07742,0.0018025
809.11304,0.0018232
808.14866,0.0018272
807.18429,0.0018414
806.21991,0.0018493
805.25553,0.0018608
804.29115,0.0018836
803.32677,0.0018695
802.36240,0.0018352
801.39802,0.0018152
800.43364,0.0018343
799.46926,0.0018440
798.50488,0.0017970
797.54051,0.0017331
796.57613,0.0016680
795.61175,0.0016249
794.64737,0.0016195
793.68300,0.0016373
792.71862,0.0016516
791.75424,0.0016510
790.78986,0.0016545
789.82548,0.0016841
788.86111,0.0017447
787.89673,0.0017940
786.93235,0.0018354
785.96797,0.0018814
785.00359,0.0019143
784.03922,0.0019277
783.07484,0.0019031
782.11046,0.0018583
781.14608,0.0017885
780.18171,0.0017160
779.21733,0.0016720
778.25295,0.0016338
777.28857,0.0016015
776.32419,0.0015723
775.35982,0.0016016
774.39544,0.0016846
773.43106,0.0017437
772.46668,0.0017812
771.50230,0.0017997
770.53793,0.0018026
769.57355,0.0018060
768.60917,0.0018375
767.64479,0.0018784
766.68041,0.0019043
765.71604,0.0019341
764.75166,0.0019653
763.78728,0.0020225
762.82290,0.0020509
761.85853,0.0019965
760.89415,0.0019225
759.92977,0.0018440
758.96539,0.0017590
758.00101,0.0017039
757.03664,0.0016851
756.07226,0.0016715
755.10788,0.0016811
754.14350,0.0017542
753.17912,0.0018593
752.21475,0.0019167
751.25037,0.0019178
750.28599,0.0019408
749.32161,0.0019877
748.35724,0.0020195
747.39286,0.0020206
746.42848,0.0019950
745.46410,0.0019532
744.49972,0.0018853
743.53535,0.0018318
742.57097,0.0018153
741.60659,0.0017859
740.64221,0.0016990
739.67783,0.0016611
738.71346,0.0017592
737.74908,0.0018783
736.78470,0.0019794
735.82032,0.0020667
734.85594,0.0021174
733.89157,0.0021468
732.92719,0.0021527
731.96281,0.0021355
730.99843,0.0020696
730.03406,0.0019685
729.06968,0.0018983
728.10530,0.0019057
727.14092,0.0019309
726.17654,0.0019129
725.21217,0.0019069
724.24779,0.0018947
723.28341,0.0018731
722.31903,0.0018951
721.35465,0.0019470
720.39028,0.0020159
719.42590,0.0020870
718.46152,0.0021662
717.49714,0.0022744
716.53276,0.0023705
715.56839,0.0024038
714.60401,0.0024183
713.63963,0.0024350
712.67525,0.0023955
711.71088,0.0023281
710.74650,0.0022826
709.78212,0.0022573
708.81774,0.0022473
707.85336,0.0022305
706.88899,0.0022038
705.92461,0.0021973
704.96023,0.0022257
703.99585,0.0022715
703.03147,0.0023236
702.06710,0.0023500
701.10272,0.0023218
700.13834,0.0022903
699.17396,0.0022834
698.20959,0.0022699
697.24521,0.0022442
696.28083,0.0022155
695.31645,0.0022010
694.35207,0.0022051
693.38770,0.0021993
692.42332,0.0021956
691.45894,0.0022083
690.49456,0.0022028
689.53018,0.0022002
688.56581,0.0022363
687.60143,0.0022836
686.63705,0.0023105
685.67267,0.0023138
684.70829,0.0023156
683.74392,0.0023249
682.77954,0.0023200
681.81516,0.0022955
680.85078,0.0022818
679.88641,0.0022616
678.92203,0.0022191
677.95765,0.0022144
676.99327,0.0022404
676.02889,0.0022565
675.06452,0.0022238
674.10014,0.0021521
673.13576,0.0022559
672.17138,0.0025301
671.20700,0.0027804
670.24263,0.0029715
669.27825,0.0030927
668.31387,0.0031231
667.34949,0.0030868
666.38512,0.0030121
665.42074,0.0028815
664.45636,0.0026846
663.49198,0.0024572
662.52760,0.0022877
661.56323,0.0023066
660.59885,0.0023952
659.63447,0.0024193
658.67009,0.0024192
657.70571,0.0023900
656.74134,0.0023444
655.77696,0.0023143
654.81258,0.0023119
653.84820,0.0023398
652.88382,0.0023607
651.91945,0.0023679
650.95507,0.0023612
649.99069,0.0023453
649.02631,0.0023494
648.06194,0.0023555
647.09756,0.0023126
646.13318,0.0022526
645.16880,0.0022472
644.20442,0.0022630
643.24005,0.0022911
642.27567,0.0023530
641.31129,0.0023838
640.34691,0.0023795
639.38253,0.0024044
638.41816,0.0024566
637.45378,0.0024942
636.48940,0.0025089
635.52502,0.0024903
634.56065,0.0024459
633.59627,0.0024117
632.63189,0.0023397
631.66751,0.0022290
630.70313,0.0020870
629.73876,0.0019064
628.77438,0.0019589
627.81000,0.0020713
626.84562,0.0020657
625.88124,0.0020643
624.91687,0.0017390
623.95249,0.0011515
622.98811,0.0007590
622.02373,0.0007224
621.05935,0.0009688
620.09498,0.0014603
619.13060,0.0020071
618.16622,0.0029018
617.20184,0.0040844
616.23747,0.0043558
615.27309,0.0043713
614.30871,0.0046016
613.34433,0.0042336
612.37995,0.0036582
611.41558,0.0033769
610.45120,0.0031100
609.48682,0.0026460
608.52244,0.0024061
607.55806,0.0025271
606.59369,0.0028779
605.62931,0.0027829
604.66493,0.0019286
603.70055,0.0016797
602.73618,0.0020176
601.77180,0.0021218
600.80742,0.0021040
599.84304,0.0020630
598.87866,0.0018514
597.91429,0.0015393
596.94991,0.0015648
595.98553,0.0018520
595.02115,0.0019674
594.05677,0.0018304
593.09240,0.0017042
592.12802,0.0017920
591.16364,0.0019707
590.19926,0.0019955
589.23488,0.0018380
588.27051,0.0017518
587.30613,0.0017931
586.34175,0.0018239
585.37737,0.0018758
584.41300,0.0020604
583.44862,0.0023034
582.48424,0.0024651
581.51986,0.0025505
580.55548,0.0025695
579.59111,0.0025542
578.62673,0.0024331
577.66235,0.0022213
576.69797,0.0021081
575.73359,0.0020197
574.76922,0.0019141
573.80484,0.0018623
572.84046,0.0018950
571.87608,0.0019790
570.91171,0.0020161
569.94733,0.0021218
568.98295,0.0023883
568.01857,0.0026595
567.05419,0.0027867
566.08982,0.0028593
565.12544,0.0028845
564.16106,0.0027870
563.19668,0.0026881
562.23230,0.0026118
561.26793,0.0025304
560.30355,0.0024446
559.33917,0.0024285
558.37479,0.0025078
557.41041,0.0025426
556.44604,0.0025123
555.48166,0.0024476
554.51728,0.0024041
553.55290,0.0023352
552.58853,0.0022135
551.62415,0.0021451
550.65977,0.0021518
549.69539,0.0021680
548.73101,0.0021551
547.76664,0.0022007
546.80226,0.0021941
545.83788,0.0021289
544.87350,0.0021694
543.90912,0.0022548
542.94475,0.0023710
541.98037,0.0024387
541.01599,0.0024314
540.05161,0.0024220
539.08724,0.0024477
538.12286,0.0025109
537.15848,0.0025306
536.19410,0.0025602
535.22972,0.0025807
534.26535,0.0025946
533.30097,0.0026647
532.33659,0.0027156
531.37221,0.0027067
530.40783,0.0026174
529.44346,0.0024595
528.47908,0.0022555
527.51470,0.0021015
526.55032,0.0020396
525.58594,0.0019825
524.62157,0.0019330
523.65719,0.0019160
522.69281,0.0019553
521.72843,0.0020429
520.76406,0.0020887
519.79968,0.0020721
518.83530,0.0021345
517.87092,0.0022439
516.90654,0.0022547
515.94217,0.0021957
514.97779,0.0021186
514.01341,0.0021191
513.04903,0.0022043
512.08465,0.0023412
511.12028,0.0024689
510.15590,0.0025304
509.19152,0.0025916
508.22714,0.0026410
507.26276,0.0027420
506.29839,0.0027871
505.33401,0.0026330
504.36963,0.0024112
503.40525,0.0022409
502.44088,0.0022160
501.47650,0.0022621
500.51212,0.0023000
499.54774,0.0023249
498.58336,0.0023702
497.61899,0.0024583
496.65461,0.0025191
495.69023,0.0025780
494.72585,0.0025658
493.76147,0.0025186
492.79710,0.0025565
491.83272,0.0026505
490.86834,0.0027236
489.90396,0.0027011
488.93959,0.0026860
487.97521,0.0026958
487.01083,0.0026556
486.04645,0.0025443
485.08207,0.0024198
484.11770,0.0023044
483.15332,0.0021546
482.18894,0.0021426
481.22456,0.0022570
480.26018,0.0023594
479.29581,0.0023947
478.33143,0.0023975
477.36705,0.0025116
476.40267,0.0025942
475.43829,0.0025610
474.47392,0.0025423
473.50954,0.0025944
472.54516,0.0026166
471.58078,0.0025863
470.61641,0.0026343
469.65203,0.0026803
468.68765,0.0027421
467.72327,0.0028657
466.75889,0.0029652
465.79452,0.0030119
464.83014,0.0029505
463.86576,0.0028905
462.90138,0.0028706
461.93700,0.0027868
460.97263,0.0026528
460.00825,0.0025267
459.04387,0.0024591
458.07949,0.0024537
457.11512,0.0025490
456.15074,0.0026914
455.18636,0.0027420
454.22198,0.0027260
453.25760,0.0026772
452.29323,0.0025752
451.32885,0.0024390
450.36447,0.0022917
449.40009,0.0021904
448.43571,0.0021627
447.47134,0.0021923
446.50696,0.0022919
445.54258,0.0024232
444.57820,0.0025399
443.61382,0.0026258
442.64945,0.0026713
441.68507,0.0026779
440.72069,0.0026391
439.75631,0.0025852
438.79194,0.0025293
437.82756,0.0024809
436.86318,0.0024570
435.89880,0.0024431
434.93442,0.0024249
433.97005,0.0023836
433.00567,0.0023464
432.04129,0.0023233
431.07691,0.0023005
430.11253,0.0023009
429.14816,0.0023407
428.18378,0.0023964
427.21940,0.0024221
426.25502,0.0024268
425.29065,0.0024337
424.32627,0.0024801
423.36189,0.0025476
422.39751,0.0025964
421.43313,0.0026668
420.46876,0.0027302
419.50438,0.0027581
418.54000,0.0027669
417.57562,0.0027722
416.61124,0.0027223
415.64687,0.0025489
414.68249,0.0023758
413.71811,0.0022860
412.75373,0.0022475
411.78935,0.0022209
410.82498,0.0022008
409.86060,0.0022169
408.89622,0.0022080
407.93184,0.0022018
406.96747,0.0022474
406.00309,0.0022665
405.03871,0.0022377
404.07433,0.0022377
403.10995,0.0022377
402.14558,0.0022377
401.18120,0.0022377
400.21682,0.0022377
399.25244,0.0022377
