3998.31069,-0.0079838
3997.34631,-0.0079838
3996.38194,-0.0079838
3995.41756,-0.0079838
3994.45318,-0.0079838
3993.48880,-0.0079838
3992.52442,-0.0079838
3991.56005,-0.0080676
3990.59567,-0.0080946
3989.63129,-0.0080887
3988.66691,-0.0080385
3987.70253,-0.0080199
3986.73816,-0.0080033
3985.77378,-0.0079237
3984.80940,-0.0078741
3983.84502,-0.0078973
3982.88065,-0.0079128
3981.91627,-0.0078724
3980.95189,-0.0078678
3979.98751,-0.0078662
3979.02313,-0.0078251
3978.05876,-0.0078173
3977.09438,-0.0078263
3976.13000,-0.0078463
3975.16562,-0.0078554
3974.20124,-0.0078304
3973.23687,-0.0078075
3972.27249,-0.0077861
3971.30811,-0.0077387
3970.34373,-0.0076914
3969.37935,-0.0076893
3968.41498,-0.0077023
3967.45060,-0.0077241
3966.48622,-0.0077419
3965.52184,-0.0077180
3964.55747,-0.0077192
3963.59309,-0.0077864
3962.62871,-0.0078554
3961.66433,-0.0078886
3960.69995,-0.0079027
3959.73558,-0.0078808
3958.77120,-0.0078260
3957.80682,-0.0077928
3956.84244,-0.0077778
3955.87806,-0.0077546
3954.91369,-0.0076975
3953.94931,-0.0076220
3952.98493,-0.0076211
3952.02055,-0.0076997
3951.05618,-0.0077670
3950.09180,-0.0077914
3949.12742,-0.0078242
3948.16304,-0.0078791
3947.19866,-0.0079273
3946.23429,-0.0079646
3945.26991,-0.0079551
3944.30553,-0.0079125
3943.34115,-0.0078786
3942.37677,-0.0078489
3941.41240,-0.0078718
3940.44802,-0.0079459
3939.48364,-0.0079699
3938.51926,-0.0079170
3937.55488,-0.0078719
3936.59051,-0.0078494
3935.62613,-0.0078074
3934.66175,-0.0077454
3933.69737,-0.0076619
3932.73300,-0.0076205
3931.76862,-0.0076694
3930.80424,-0.0077684
3929.83986,-0.0078575
3928.87548,-0.0079102
3927.91111,-0.0079003
3926.94673,-0.0078064
3925.98235,-0.0077283
3925.01797,-0.0076706
3924.05359,-0.0075869
3923.08922,-0.0075100
3922.12484,-0.0074404
3921.16046,-0.0074211
3920.19608,-0.0074408
3919.23171,-0.0074729
3918.26733,-0.0074888
3917.30295,-0.0075000
3916.33857,-0.0075333
3915.37419,-0.0075103
3914.40982,-0.0074917
3913.44544,-0.0074966
3912.48106,-0.0074928
3911.51668,-0.0075048
3910.55230,-0.0075296
3909.58793,-0.0075827
3908.62355,-0.0075940
3907.65917,-0.0075917
3906.69479,-0.0075786
3905.73041,-0.0075376
3904.76604,-0.0075056
3903.80166,-0.0074226
3902.83728,-0.0073632
3901.87290,-0.0073402
3900.90853,-0.0073339
3899.94415,-0.0073554
3898.97977,-0.0073618
3898.01539,-0.0073987
3897.05101,-0.0074258
3896.08664,-0.0074204
3895.12226,-0.0073881
3894.15788,-0.0073591
3893.19350,-0.0073502
3892.22912,-0.0072906
3891.26475,-0.0072251
3890.30037,-0.0071531
3889.33599,-0.0070947
3888.37161,-0.0070515
3887.40724,-0.0069928
3886.44286,-0.0070250
3885.47848,-0.0070984
3884.51410,-0.0071506
3883.54972,-0.0072425
3882.58535,-0.0073952
3881.62097,-0.0075275
3880.65659,-0.0075452
3879.69221,-0.0075010
3878.72783,-0.0074173
3877.76346,-0.0073118
3876.79908,-0.0072349
3875.83470,-0.0071897
3874.87032,-0.0071688
3873.90594,-0.0071223
3872.94157,-0.0070725
3871.97719,-0.0070586
3871.01281,-0.0070667
3870.04843,-0.0070727
3869.08406,-0.0070472
3868.11968,-0.0070252
3867.15530,-0.0070071
3866.19092,-0.0070348
3865.22654,-0.0071620
3864.26217,-0.0072708
3863.29779,-0.0073038
3862.33341,-0.0073012
3861.36903,-0.0072709
3860.40465,-0.0072339
3859.44028,-0.0071718
3858.47590,-0.0070625
3857.51152,-0.0069174
3856.54714,-0.0067466
3855.58276,-0.0065861
3854.61839,-0.0065474
3853.65401,-0.0066457
3852.68963,-0.0067392
3851.72525,-0.0068053
3850.76088,-0.0069092
3849.79650,-0.0070588
3848.83212,-0.0071992
3847.86774,-0.0072548
3846.90336,-0.0072937
3845.93899,-0.0073307
3844.97461,-0.0072731
3844.01023,-0.0072026
3843.04585,-0.0071866
3842.08147,-0.0071408
3841.11710,-0.0070301
3840.15272,-0.0068894
3839.18834,-0.0067803
3838.22396,-0.0067216
3837.25959,-0.0066619
3836.29521,-0.0066268
3835.33083,-0.0066671
3834.36645,-0.0067279
3833.40207,-0.0067819
3832.43770,-0.0068716
3831.47332,-0.0069555
3830.50894,-0.0070049
3829.54456,-0.0070568
3828.58018,-0.0070582
3827.61581,-0.0070219
3826.65143,-0.0070065
3825.68705,-0.0069695
3824.72267,-0.0069073
3823.75829,-0.0068331
3822.79392,-0.0068140
3821.82954,-0.0068953
3820.86516,-0.0069728
3819.90078,-0.0069994
3818.93641,-0.0070215
3817.97203,-0.0070485
3817.00765,-0.0070008
3816.04327,-0.0069217
3815.07889,-0.0068899
3814.11452,-0.0068450
3813.15014,-0.0067932
3812.18576,-0.0067403
3811.22138,-0.0067171
3810.25700,-0.0067463
3809.29263,-0.0067526
3808.32825,-0.0067678
3807.36387,-0.0068384
3806.39949,-0.0068927
3805.43512,-0.0068470
3804.47074,-0.0067896
3803.50636,-0.0067830
3802.54198,-0.0067756
3801.57760,-0.0067748
3800.61323,-0.0067025
3799.64885,-0.0066077
3798.68447,-0.0065966
3797.72009,-0.0066219
3796.75571,-0.0066769
3795.79134,-0.0067091
3794.82696,-0.0066902
3793.86258,-0.0066581
3792.89820,-0.0066482
3791.93382,-0.0066842
3790.96945,-0.0067577
3790.00507,-0.0068291
3789.04069,-0.0067821
3788.07631,-0.0066912
3787.11194,-0.0066475
3786.14756,-0.0066010
3785.18318,-0.0065767
3784.21880,-0.0065633
3783.25442,-0.0065640
3782.29005,-0.0065538
3781.32567,-0.0065646
3780.36129,-0.0066667
3779.39691,-0.0067582
3778.43253,-0.0068004
3777.46816,-0.0067949
3776.50378,-0.0067833
3775.53940,-0.0068454
3774.57502,-0.0069379
3773.61065,-0.0069910
3772.64627,-0.0069867
3771.68189,-0.0069536
3770.71751,-0.0068886
3769.75313,-0.0068403
3768.78876,-0.0068307
3767.82438,-0.0068014
3766.86000,-0.0067691
3765.89562,-0.0067539
3764.93124,-0.0067870
3763.96687,-0.0068285
3763.00249,-0.0068200
3762.03811,-0.0067462
3761.07373,-0.0066049
3760.10935,-0.0064940
3759.14498,-0.0064187
3758.18060,-0.0063487
3757.21622,-0.0062715
3756.25184,-0.0061594
3755.28747,-0.0060380
3754.32309,-0.0058987
3753.35871,-0.0057657
3752.39433,-0.0056698
3751.42995,-0.0056597
3750.46558,-0.0057092
3749.50120,-0.0056906
3748.53682,-0.0056714
3747.57244,-0.0057360
3746.60806,-0.0058350
3745.64369,-0.0059021
3744.67931,-0.0059813
3743.71493,-0.0060752
3742.75055,-0.0060932
3741.78618,-0.0061111
3740.82180,-0.0062013
3739.85742,-0.0063063
3738.89304,-0.0063209
3737.92866,-0.0061794
3736.96429,-0.0059988
3735.99991,-0.0058767
3735.03553,-0.0058065
3734.07115,-0.0058034
3733.10677,-0.0058998
3732.14240,-0.0060289
3731.17802,-0.0061597
3730.21364,-0.0063135
3729.24926,-0.0064414
3728.28488,-0.0065449
3727.32051,-0.0065937
3726.35613,-0.0065667
3725.39175,-0.0064833
3724.42737,-0.0063060
3723.46300,-0.0061258
3722.49862,-0.0060638
3721.53424,-0.0061286
3720.56986,-0.0062612
3719.60548,-0.0063629
3718.64111,-0.0064094
3717.67673,-0.0064449
3716.71235,-0.0064648
3715.74797,-0.0064289
3714.78359,-0.0063777
3713.81922,-0.0063086
3712.85484,-0.0061581
3711.89046,-0.0059898
3710.92608,-0.0058848
3709.96171,-0.0058721
3708.99733,-0.0059151
3708.03295,-0.0059327
3707.06857,-0.0059159
3706.10419,-0.0059013
3705.13982,-0.0059287
3704.17544,-0.0059937
3703.21106,-0.0060751
3702.24668,-0.0061533
3701.28230,-0.0061638
3700.31793,-0.0061154
3699.35355,-0.0060717
3698.38917,-0.0060528
3697.42479,-0.0060598
3696.46041,-0.0060648
3695.49604,-0.0060538
3694.53166,-0.0060606
3693.56728,-0.0060588
3692.60290,-0.0059738
3691.63853,-0.0058856
3690.67415,-0.0058915
3689.70977,-0.0059046
3688.74539,-0.0059259
3687.78101,-0.0060018
3686.81664,-0.0061233
3685.85226,-0.0063101
3684.88788,-0.0064892
3683.92350,-0.0066143
3682.95912,-0.0066808
3681.99475,-0.0066360
3681.03037,-0.0064858
3680.06599,-0.0062800
3679.10161,-0.0060801
3678.13724,-0.0059291
3677.17286,-0.0058696
3676.20848,-0.0058702
3675.24410,-0.0058748
3674.27972,-0.0059009
3673.31535,-0.0059084
3672.35097,-0.0058781
3671.38659,-0.0058793
3670.42221,-0.0058804
3669.45783,-0.0057673
3668.49346,-0.0056165
3667.52908,-0.0055749
3666.56470,-0.0056223
3665.60032,-0.0056871
3664.63594,-0.0057341
3663.67157,-0.0058168
3662.70719,-0.0059747
3661.74281,-0.0061484
3660.77843,-0.0062719
3659.81406,-0.0063528
3658.84968,-0.0063769
3657.88530,-0.0062785
3656.92092,-0.0061626
3655.95654,-0.0060853
3654.99217,-0.0059736
3654.02779,-0.0058339
3653.06341,-0.0057146
3652.09903,-0.0056902
3651.13465,-0.0057161
3650.17028,-0.0057149
3649.20590,-0.0056708
3648.24152,-0.0056571
3647.27714,-0.0056766
3646.31276,-0.0056007
3645.34839,-0.0055454
3644.38401,-0.0055808
3643.41963,-0.0056156
3642.45525,-0.0056037
3641.49088,-0.0055541
3640.52650,-0.0055498
3639.56212,-0.0055321
3638.59774,-0.0054718
3637.63336,-0.0054357
3636.66899,-0.0054768
3635.70461,-0.0054914
3634.74023,-0.0053621
3633.77585,-0.0052559
3632.81147,-0.0052172
3631.84710,-0.0052047
3630.88272,-0.0051679
3629.91834,-0.0051075
3628.95396,-0.0051043
3627.98959,-0.0051066
3627.02521,-0.0051594
3626.06083,-0.0052336
3625.09645,-0.0052979
3624.13207,-0.0053863
3623.16770,-0.0054550
3622.20332,-0.0055376
3621.23894,-0.0056163
3620.27456,-0.0057014
3619.31018,-0.0057396
3618.34581,-0.0057056
3617.38143,-0.0056453
3616.41705,-0.0055668
3615.45267,-0.0055502
3614.48829,-0.0055074
3613.52392,-0.0054192
3612.55954,-0.0053471
3611.59516,-0.0052588
3610.63078,-0.0051871
3609.66641,-0.0051272
3608.70203,-0.0050875
3607.73765,-0.0050468
3606.77327,-0.0050053
3605.80889,-0.0049791
3604.84452,-0.0049931
3603.88014,-0.0050617
3602.91576,-0.0050703
3601.95138,-0.0050391
3600.98700,-0.0050309
3600.02263,-0.0050740
3599.05825,-0.0051735
3598.09387,-0.0052348
3597.12949,-0.0052559
3596.16512,-0.0052795
3595.20074,-0.0053465
3594.23636,-0.0054501
3593.27198,-0.0055134
3592.30760,-0.0054629
3591.34323,-0.0053085
3590.37885,-0.0051671
3589.41447,-0.0050955
3588.45009,-0.0050955
3587.48571,-0.0050876
3586.52134,-0.0050356
3585.55696,-0.0050395
3584.59258,-0.0051013
3583.62820,-0.0051732
3582.66382,-0.0052220
3581.69945,-0.0052059
3580.73507,-0.0051253
3579.77069,-0.0050232
3578.80631,-0.0049564
3577.84194,-0.0049629
3576.87756,-0.0050342
3575.91318,-0.0051096
3574.94880,-0.0051769
3573.98442,-0.0052625
3573.02005,-0.0053385
3572.05567,-0.0053471
3571.09129,-0.0053127
3570.12691,-0.0053135
3569.16253,-0.0053209
3568.19816,-0.0052704
3567.23378,-0.0051657
3566.26940,-0.0050511
3565.30502,-0.0049681
3564.34065,-0.0048670
3563.37627,-0.0046991
3562.41189,-0.0045682
3561.44751,-0.0045257
3560.48313,-0.0045087
3559.51876,-0.0045657
3558.55438,-0.0046947
3557.59000,-0.0047805
3556.62562,-0.0047872
3555.66124,-0.0047483
3554.69687,-0.0047319
3553.73249,-0.0047510
3552.76811,-0.0047453
3551.80373,-0.0046882
3550.83935,-0.0046427
3549.87498,-0.0046649
3548.91060,-0.0047413
3547.94622,-0.0048483
3546.98184,-0.0049062
3546.01747,-0.0049102
3545.05309,-0.0049242
3544.08871,-0.0049063
3543.12433,-0.0048545
3542.15995,-0.0048131
3541.19558,-0.0047630
3540.23120,-0.0046723
3539.26682,-0.0045967
3538.30244,-0.0046211
3537.33806,-0.0046877
3536.37369,-0.0047122
3535.40931,-0.0047304
3534.44493,-0.0047867
3533.48055,-0.0048187
3532.51618,-0.0047829
3531.55180,-0.0047365
3530.58742,-0.0047035
3529.62304,-0.0046664
3528.65866,-0.0046255
3527.69429,-0.0045941
3526.72991,-0.0045989
3525.76553,-0.0046286
3524.80115,-0.0046305
3523.83677,-0.0046289
3522.87240,-0.0046625
3521.90802,-0.0046948
3520.94364,-0.0047283
3519.97926,-0.0047407
3519.01488,-0.0047038
3518.05051,-0.0046843
3517.08613,-0.0046887
3516.12175,-0.0046759
3515.15737,-0.0046685
3514.19300,-0.0046647
3513.22862,-0.0046008
3512.26424,-0.0045185
3511.29986,-0.0044918
3510.33548,-0.0044544
3509.37111,-0.0043838
3508.40673,-0.0043121
3507.44235,-0.0042669
3506.47797,-0.0042968
3505.51359,-0.0043624
3504.54922,-0.0044096
3503.58484,-0.0044506
3502.62046,-0.0044873
3501.65608,-0.0044811
3500.69171,-0.0044589
3499.72733,-0.0044689
3498.76295,-0.0044663
3497.79857,-0.0044407
3496.83419,-0.0043752
3495.86982,-0.0042738
3494.90544,-0.0042241
3493.94106,-0.0042268
3492.97668,-0.0042410
3492.01230,-0.0042506
3491.04793,-0.0042644
3490.08355,-0.0042756
3489.11917,-0.0042753
3488.15479,-0.0043215
3487.19041,-0.0043834
3486.22604,-0.0043852
3485.26166,-0.0043272
3484.29728,-0.0042718
3483.33290,-0.0042657
3482.36853,-0.0042521
3481.40415,-0.0042220
3480.43977,-0.0042017
3479.47539,-0.0041790
3478.51101,-0.0041495
3477.54664,-0.0041280
3476.58226,-0.0041420
3475.61788,-0.0041449
3474.65350,-0.0041212
3473.68912,-0.0041026
3472.72475,-0.0040827
3471.76037,-0.0040402
3470.79599,-0.0039424
3469.83161,-0.0038431
3468.86724,-0.0037804
3467.90286,-0.0037461
3466.93848,-0.0037704
3465.97410,-0.0038396
3465.00972,-0.0039268
3464.04535,-0.0039920
3463.08097,-0.0040334
3462.11659,-0.0040816
3461.15221,-0.0040856
3460.18783,-0.0040072
3459.22346,-0.0038623
3458.25908,-0.0036874
3457.29470,-0.0035524
3456.33032,-0.0035186
3455.36594,-0.0035591
3454.40157,-0.0036082
3453.43719,-0.0036704
3452.47281,-0.0037571
3451.50843,-0.0038413
3450.54406,-0.0038951
3449.57968,-0.0038818
3448.61530,-0.0038010
3447.65092,-0.0036791
3446.68654,-0.0035463
3445.72217,-0.0034799
3444.75779,-0.0034645
3443.79341,-0.0034316
3442.82903,-0.0034174
3441.86465,-0.0034428
3440.90028,-0.0035104
3439.93590,-0.0035821
3438.97152,-0.0036146
3438.00714,-0.0036665
3437.04276,-0.0037415
3436.07839,-0.0037734
3435.11401,-0.0037492
3434.14963,-0.0036981
3433.18525,-0.0036132
3432.22088,-0.0035200
3431.25650,-0.0034740
3430.29212,-0.0034517
3429.32774,-0.0034524
3428.36336,-0.0034724
3427.39899,-0.0035134
3426.43461,-0.0035948
3425.47023,-0.0036680
3424.50585,-0.0037043
3423.54147,-0.0037063
3422.57710,-0.0037079
3421.61272,-0.0037415
3420.64834,-0.0037839
3419.68396,-0.0037940
3418.71959,-0.0037838
3417.75521,-0.0037755
3416.79083,-0.0037281
3415.82645,-0.0036594
3414.86207,-0.0035952
3413.89770,-0.0035629
3412.93332,-0.0035994
3411.96894,-0.0036461
3411.00456,-0.0036938
3410.04018,-0.0037464
3409.07581,-0.0037523
3408.11143,-0.0037120
3407.14705,-0.0036690
3406.18267,-0.0036088
3405.21829,-0.0035148
3404.25392,-0.0034438
3403.28954,-0.0034143
3402.32516,-0.0034497
3401.36078,-0.0035260
3400.39641,-0.0035879
3399.43203,-0.0036354
3398.46765,-0.0036172
3397.50327,-0.0035708
3396.53889,-0.0035529
3395.57452,-0.0035129
3394.61014,-0.0034399
3393.64576,-0.0033803
3392.68138,-0.0033439
3391.71700,-0.0032906
3390.75263,-0.0032631
3389.78825,-0.0032871
3388.82387,-0.0033107
3387.85949,-0.0033020
3386.89512,-0.0032685
3385.93074,-0.0032830
3384.96636,-0.0033328
3384.00198,-0.0033659
3383.03760,-0.0034070
3382.07323,-0.0034558
3381.10885,-0.0034793
3380.14447,-0.0034586
3379.18009,-0.0034382
3378.21571,-0.0034510
3377.25134,-0.0034493
3376.28696,-0.0033927
3375.32258,-0.0033087
3374.35820,-0.0032359
3373.39382,-0.0031815
3372.42945,-0.0031640
3371.46507,-0.0031792
3370.50069,-0.0031998
3369.53631,-0.0032353
3368.57194,-0.0032907
3367.60756,-0.0033184
3366.64318,-0.0033124
3365.67880,-0.0032985
3364.71442,-0.0032407
3363.75005,-0.0031479
3362.78567,-0.0030425
3361.82129,-0.0029563
3360.85691,-0.0029435
3359.89253,-0.0029605
3358.92816,-0.0029916
3357.96378,-0.0030566
3356.99940,-0.0031290
3356.03502,-0.0031603
3355.07065,-0.0031530
3354.10627,-0.0031758
3353.14189,-0.0032074
3352.17751,-0.0032060
3351.21313,-0.0031728
3350.24876,-0.0031374
3349.28438,-0.0031316
3348.32000,-0.0031122
3347.35562,-0.0030854
3346.39124,-0.0030883
3345.42687,-0.0030908
3344.46249,-0.0030160
3343.49811,-0.0028976
3342.53373,-0.0028669
3341.56935,-0.0028769
3340.60498,-0.0028547
3339.64060,-0.0028280
3338.67622,-0.0028084
3337.71184,-0.0028011
3336.74747,-0.0028020
3335.78309,-0.0028482
3334.81871,-0.0029381
3333.85433,-0.0029786
3332.88995,-0.0029442
3331.92558,-0.0029352
3330.96120,-0.0029826
3329.99682,-0.0029934
3329.03244,-0.0029698
3328.06806,-0.0029412
3327.10369,-0.0028800
3326.13931,-0.0028036
3325.17493,-0.0027549
3324.21055,-0.0027536
3323.24618,-0.0027626
3322.28180,-0.0027442
3321.31742,-0.0027114
3320.35304,-0.0026844
3319.38866,-0.0026552
3318.42429,-0.0026429
3317.45991,-0.0027020
3316.49553,-0.0027774
3315.53115,-0.0027917
3314.56677,-0.0028124
3313.60240,-0.0028731
3312.63802,-0.0029109
3311.67364,-0.0029340
3310.70926,-0.0029561
3309.74488,-0.0029561
3308.78051,-0.0029359
3307.81613,-0.0028902
3306.85175,-0.0028647
3305.88737,-0.0028845
3304.92300,-0.0028743
3303.95862,-0.0027920
3302.99424,-0.0027029
3302.02986,-0.0026514
3301.06548,-0.0026046
3300.10111,-0.0025772
3299.13673,-0.0025754
3298.17235,-0.0025924
3297.20797,-0.0026392
3296.24359,-0.0026710
3295.27922,-0.0026875
3294.31484,-0.0027065
3293.35046,-0.0027002
3292.38608,-0.0026634
3291.42171,-0.0026480
3290.45733,-0.0026701
3289.49295,-0.0026719
3288.52857,-0.0026665
3287.56419,-0.0026920
3286.59982,-0.0027525
3285.63544,-0.0028186
3284.67106,-0.0028217
3283.70668,-0.0027745
3282.74230,-0.0027388
3281.77793,-0.0027197
3280.81355,-0.0027074
3279.84917,-0.0027115
3278.88479,-0.0027209
3277.92041,-0.0027404
3276.95604,-0.0027749
3275.99166,-0.0027952
3275.02728,-0.0028035
3274.06290,-0.0028076
3273.09853,-0.0027882
3272.13415,-0.0027288
3271.16977,-0.0026661
3270.20539,-0.0026215
3269.24101,-0.0025866
3268.27664,-0.0025822
3267.31226,-0.0026041
3266.34788,-0.0026483
3265.38350,-0.0026555
3264.41912,-0.0026208
3263.45475,-0.0026293
3262.49037,-0.0026505
3261.52599,-0.0026405
3260.56161,-0.0026035
3259.59724,-0.0025835
3258.63286,-0.0025882
3257.66848,-0.0025792
3256.70410,-0.0025824
3255.73972,-0.0026066
3254.77535,-0.0026367
3253.81097,-0.0026312
3252.84659,-0.0026101
3251.88221,-0.0026447
3250.91783,-0.0026846
3249.95346,-0.0026911
3248.98908,-0.0027390
3248.02470,-0.0028568
3247.06032,-0.0029691
3246.09594,-0.0030463
3245.13157,-0.0031078
3244.16719,-0.0031644
3243.20281,-0.0031781
3242.23843,-0.0031043
3241.27406,-0.0029921
3240.30968,-0.0028730
3239.34530,-0.0027591
3238.38092,-0.0026315
3237.41654,-0.0025330
3236.45217,-0.0025469
3235.48779,-0.0026074
3234.52341,-0.0026983
3233.55903,-0.0028218
3232.59465,-0.0029499
3231.63028,-0.0030558
3230.66590,-0.0030931
3229.70152,-0.0030718
3228.73714,-0.0030073
3227.77276,-0.0029675
3226.80839,-0.0029372
3225.84401,-0.0028949
3224.87963,-0.0029096
3223.91525,-0.0029403
3222.95088,-0.0029676
3221.98650,-0.0029757
3221.02212,-0.0029525
3220.05774,-0.0029144
3219.09336,-0.0028638
3218.12899,-0.0028386
3217.16461,-0.0028246
3216.20023,-0.0028359
3215.23585,-0.0028861
3214.27147,-0.0029463
3213.30710,-0.0029942
3212.34272,-0.0029936
3211.37834,-0.0029566
3210.41396,-0.0028972
3209.44959,-0.0028363
3208.48521,-0.0027924
3207.52083,-0.0027925
3206.55645,-0.0028554
3205.59207,-0.0029083
3204.62770,-0.0029455
3203.66332,-0.0029851
3202.69894,-0.0029738
3201.73456,-0.0029125
3200.77018,-0.0028352
3199.80581,-0.0027611
3198.84143,-0.0026812
3197.87705,-0.0026065
3196.91267,-0.0025789
3195.94829,-0.0026002
3194.98392,-0.0026826
3194.01954,-0.0028009
3193.05516,-0.0029045
3192.09078,-0.0029860
3191.12641,-0.0030264
3190.16203,-0.0030597
3189.19765,-0.0030849
3188.23327,-0.0030544
3187.26889,-0.0029972
3186.30452,-0.0029395
3185.34014,-0.0028997
3184.37576,-0.0028873
3183.41138,-0.0029185
3182.44700,-0.0029769
3181.48263,-0.0030239
3180.51825,-0.0030581
3179.55387,-0.0030747
3178.58949,-0.0030851
3177.62512,-0.0030499
3176.66074,-0.0029940
3175.69636,-0.0029475
3174.73198,-0.0028751
3173.76760,-0.0028434
3172.80323,-0.0028358
3171.83885,-0.0028192
3170.87447,-0.0028022
3169.91009,-0.0027737
3168.94571,-0.0027629
3167.98134,-0.0027546
3167.01696,-0.0027296
3166.05258,-0.0026840
3165.08820,-0.0026848
3164.12382,-0.0027150
3163.15945,-0.0027105
3162.19507,-0.0027297
3161.23069,-0.0027299
3160.26631,-0.0026973
3159.30194,-0.0026630
3158.33756,-0.0026473
3157.37318,-0.0026711
3156.40880,-0.0026912
3155.44442,-0.0027213
3154.48005,-0.0027645
3153.51567,-0.0028469
3152.55129,-0.0029242
3151.58691,-0.0029072
3150.62253,-0.0028474
3149.65816,-0.0027703
3148.69378,-0.0026884
3147.72940,-0.0026152
3146.76502,-0.0025547
3145.80065,-0.0025068
3144.83627,-0.0024748
3143.87189,-0.0024792
3142.90751,-0.0025064
3141.94313,-0.0025660
3140.97876,-0.0026066
3140.01438,-0.0026056
3139.05000,-0.0026195
3138.08562,-0.0026516
3137.12124,-0.0026964
3136.15687,-0.0027396
3135.19249,-0.0027733
3134.22811,-0.0027904
3133.26373,-0.0028138
3132.29935,-0.0028417
3131.33498,-0.0028426
3130.37060,-0.0028297
3129.40622,-0.0027949
3128.44184,-0.0027531
3127.47747,-0.0027009
3126.51309,-0.0026498
3125.54871,-0.0026335
3124.58433,-0.0026269
3123.61995,-0.0026151
3122.65558,-0.0026043
3121.69120,-0.0026198
3120.72682,-0.0026231
3119.76244,-0.0026276
3118.79806,-0.0026910
3117.83369,-0.0027550
3116.86931,-0.0028068
3115.90493,-0.0028564
3114.94055,-0.0029152
3113.97618,-0.0029822
3113.01180,-0.0030178
3112.04742,-0.0030101
3111.08304,-0.0029690
3110.11866,-0.0029324
3109.15429,-0.0028766
3108.18991,-0.0028128
3107.22553,-0.0027701
3106.26115,-0.0027101
3105.29677,-0.0026507
3104.33240,-0.0026214
3103.36802,-0.0026449
3102.40364,-0.0026936
3101.43926,-0.0027303
3100.47488,-0.0027573
3099.51051,-0.0027733
3098.54613,-0.0028017
3097.58175,-0.0028000
3096.61737,-0.0027367
3095.65300,-0.0026462
3094.68862,-0.0025466
3093.72424,-0.0024702
3092.75986,-0.0024661
3091.79548,-0.0025201
3090.83111,-0.0025566
3089.86673,-0.0025949
3088.90235,-0.0026657
3087.93797,-0.0027219
3086.97359,-0.0027377
3086.00922,-0.0027220
3085.04484,-0.0026922
3084.08046,-0.0026382
3083.11608,-0.0025964
3082.15171,-0.0026046
3081.18733,-0.0026215
3080.22295,-0.0026057
3079.25857,-0.0025913
3078.29419,-0.0026458
3077.32982,-0.0026992
3076.36544,-0.0026867
3075.40106,-0.0026560
3074.43668,-0.0026436
3073.47230,-0.0026465
3072.50793,-0.0026383
3071.54355,-0.0026489
3070.57917,-0.0026591
3069.61479,-0.0026244
3068.65041,-0.0025839
3067.68604,-0.0025695
3066.72166,-0.0025835
3065.75728,-0.0025694
3064.79290,-0.0025436
3063.82853,-0.0025484
3062.86415,-0.0025396
3061.89977,-0.0025587
3060.93539,-0.0026172
3059.97101,-0.0026272
3059.00664,-0.0025765
3058.04226,-0.0025106
3057.07788,-0.0024379
3056.11350,-0.0023694
3055.14912,-0.0023550
3054.18475,-0.0023945
3053.22037,-0.0024513
3052.25599,-0.0025150
3051.29161,-0.0025951
3050.32724,-0.0027025
3049.36286,-0.0027976
3048.39848,-0.0028277
3047.43410,-0.0028087
3046.46972,-0.0027683
3045.50535,-0.0027077
3044.54097,-0.0026658
3043.57659,-0.0026755
3042.61221,-0.0027110
3041.64783,-0.0027212
3040.68346,-0.0027106
3039.71908,-0.0027096
3038.75470,-0.0026828
3037.79032,-0.0026423
3036.82594,-0.0026159
3035.86157,-0.0025820
3034.89719,-0.0025390
3033.93281,-0.0024886
3032.96843,-0.0024631
3032.00406,-0.0024575
3031.03968,-0.0024397
3030.07530,-0.0024268
3029.11092,-0.0024323
3028.14654,-0.0024553
3027.18217,-0.0024557
3026.21779,-0.0024322
3025.25341,-0.0024230
3024.28903,-0.0024198
3023.32465,-0.0024034
3022.36028,-0.0023809
3021.39590,-0.0023807
3020.43152,-0.0023761
3019.46714,-0.0023648
3018.50276,-0.0023777
3017.53839,-0.0023934
3016.57401,-0.0024087
3015.60963,-0.0023984
3014.64525,-0.0023560
3013.68088,-0.0023217
3012.71650,-0.0022979
3011.75212,-0.0022877
3010.78774,-0.0022918
3009.82336,-0.0023045
3008.85899,-0.0023267
3007.89461,-0.0023668
3006.93023,-0.0024005
3005.96585,-0.0023961
3005.00147,-0.0023873
3004.03710,-0.0023752
3003.07272,-0.0023465
3002.10834,-0.0023190
3001.14396,-0.0022915
3000.17959,-0.0022788
2999.21521,-0.0022696
2998.25083,-0.0022598
2997.28645,-0.0022909
2996.32207,-0.0023530
2995.35770,-0.0023907
2994.39332,-0.0023914
2993.42894,-0.0023896
2992.46456,-0.0023750
2991.50018,-0.0023336
2990.53581,-0.0022856
2989.57143,-0.0022316
2988.60705,-0.0021809
2987.64267,-0.0021333
2986.67829,-0.0021269
2985.71392,-0.0021982
2984.74954,-0.0022786
2983.78516,-0.0023180
2982.82078,-0.0023279
2981.85641,-0.0023287
2980.89203,-0.0023231
2979.92765,-0.0022952
2978.96327,-0.0022300
2977.99889,-0.0021445
2977.03452,-0.0020767
2976.07014,-0.0020247
2975.10576,-0.0020129
2974.14138,-0.0020202
2973.17700,-0.0019829
2972.21263,-0.0019226
2971.24825,-0.0018568
2970.28387,-0.0018201
2969.31949,-0.0018113
2968.35512,-0.0017779
2967.39074,-0.0017336
2966.42636,-0.0017183
2965.46198,-0.0017452
2964.49760,-0.0017678
2963.53323,-0.0017804
2962.56885,-0.0017914
2961.60447,-0.0017658
2960.64009,-0.0017067
2959.67571,-0.0016422
2958.71134,-0.0016203
2957.74696,-0.0016162
2956.78258,-0.0015983
2955.81820,-0.0015909
2954.85382,-0.0015839
2953.88945,-0.0015721
2952.92507,-0.0015357
2951.96069,-0.0014930
2950.99631,-0.0014808
2950.03194,-0.0014596
2949.06756,-0.0013923
2948.10318,-0.0013227
2947.13880,-0.0012973
2946.17442,-0.0012877
2945.21005,-0.0012821
2944.24567,-0.0012601
2943.28129,-0.0012133
2942.31691,-0.0011572
2941.35253,-0.0010746
2940.38816,-0.0009940
2939.42378,-0.0009160
2938.45940,-0.0008156
2937.49502,-0.0006924
2936.53065,-0.0005902
2935.56627,-0.0005460
2934.60189,-0.0005129
2933.63751,-0.0004859
2932.67313,-0.0004533
2931.70876,-0.0004212
2930.74438,-0.0003970
2929.78000,-0.0003294
2928.81562,-0.0002362
2927.85124,-0.0001208
2926.88687,-0.0000121
2925.92249,0.0000505
2924.95811,0.0000831
2923.99373,0.0000993
2923.02935,0.0001271
2922.06498,0.0001409
2921.10060,0.0001367
2920.13622,0.0001081
2919.17184,0.0000327
2918.20747,-0.0000468
2917.24309,-0.0001304
2916.27871,-0.0002197
2915.31433,-0.0003203
2914.34995,-0.0004408
2913.38558,-0.0005577
2912.42120,-0.0006665
2911.45682,-0.0007726
2910.49244,-0.0008760
2909.52806,-0.0009413
2908.56369,-0.0009839
2907.59931,-0.0010289
2906.63493,-0.0010545
2905.67055,-0.0010681
2904.70618,-0.0010643
2903.74180,-0.0010694
2902.77742,-0.0010917
2901.81304,-0.0011272
2900.84866,-0.0012063
2899.88429,-0.0012940
2898.91991,-0.0013612
2897.95553,-0.0013862
2896.99115,-0.0013714
2896.02677,-0.0013606
2895.06240,-0.0013611
2894.09802,-0.0013670
2893.13364,-0.0013760
2892.16926,-0.0014119
2891.20488,-0.0014555
2890.24051,-0.0014819
2889.27613,-0.0015052
2888.31175,-0.0015025
2887.34737,-0.0014884
2886.38300,-0.0014663
2885.41862,-0.0014432
2884.45424,-0.0014437
2883.48986,-0.0014395
2882.52548,-0.0014440
2881.56111,-0.0014667
2880.59673,-0.0014985
2879.63235,-0.0015179
2878.66797,-0.0015027
2877.70359,-0.0014874
2876.73922,-0.0014693
2875.77484,-0.0014567
2874.81046,-0.0014837
2873.84608,-0.0015333
2872.88171,-0.0015652
2871.91733,-0.0015622
2870.95295,-0.0015613
2869.98857,-0.0015656
2869.02419,-0.0015555
2868.05982,-0.0015352
2867.09544,-0.0014997
2866.13106,-0.0014508
2865.16668,-0.0013851
2864.20230,-0.0013230
2863.23793,-0.0012710
2862.27355,-0.0012090
2861.30917,-0.0011320
2860.34479,-0.0010282
2859.38041,-0.0009297
2858.41604,-0.0008391
2857.45166,-0.0007469
2856.48728,-0.0007004
2855.52290,-0.0006752
2854.55853,-0.0006381
2853.59415,-0.0005994
2852.62977,-0.0005715
2851.66539,-0.0005770
2850.70101,-0.0006155
2849.73664,-0.0006759
2848.77226,-0.0007450
2847.80788,-0.0008268
2846.84350,-0.0009240
2845.87912,-0.0010539
2844.91475,-0.0012230
2843.95037,-0.0013580
2842.98599,-0.0014453
2842.02161,-0.0015128
2841.05724,-0.0015705
2840.09286,-0.0016194
2839.12848,-0.0016390
2838.16410,-0.0016546
2837.19972,-0.0016628
2836.23535,-0.0016692
2835.27097,-0.0017025
2834.30659,-0.0017420
2833.34221,-0.0017759
2832.37783,-0.0017927
2831.41346,-0.0018081
2830.44908,-0.0018241
2829.48470,-0.0018173
2828.52032,-0.0017879
2827.55594,-0.0017619
2826.59157,-0.0017713
2825.62719,-0.0017884
2824.66281,-0.0018058
2823.69843,-0.0018139
2822.73406,-0.0017970
2821.76968,-0.0017888
2820.80530,-0.0017881
2819.84092,-0.0017876
2818.87654,-0.0017881
2817.91217,-0.0017905
2816.94779,-0.0017882
2815.98341,-0.0017917
2815.01903,-0.0018127
2814.05465,-0.0018148
2813.09028,-0.0018081
2812.12590,-0.0018044
2811.16152,-0.0017975
2810.19714,-0.0017934
2809.23276,-0.0017838
2808.26839,-0.0017920
2807.30401,-0.0018266
2806.33963,-0.0018543
2805.37525,-0.0018428
2804.41088,-0.0018150
2803.44650,-0.0018069
2802.48212,-0.0018084
2801.51774,-0.0018196
2800.55336,-0.0018444
2799.58899,-0.0018801
2798.62461,-0.0019133
2797.66023,-0.0019425
2796.69585,-0.0019847
2795.73147,-0.0020084
2794.76710,-0.0019927
2793.80272,-0.0019666
2792.83834,-0.0019447
2791.87396,-0.0019282
2790.90959,-0.0019073
2789.94521,-0.0018571
2788.98083,-0.0017967
2788.01645,-0.0017691
2787.05207,-0.0017739
2786.08770,-0.0017863
2785.12332,-0.0017877
2784.15894,-0.0017752
2783.19456,-0.0017825
2782.23018,-0.0018246
2781.26581,-0.0018421
2780.30143,-0.0018265
2779.33705,-0.0018162
2778.37267,-0.0017958
2777.40829,-0.0017743
2776.44392,-0.0017827
2775.47954,-0.0018188
2774.51516,-0.0018508
2773.55078,-0.0018582
2772.58641,-0.0018546
2771.62203,-0.0018592
2770.65765,-0.0018585
2769.69327,-0.0018138
2768.72889,-0.0017785
2767.76452,-0.0017876
2766.80014,-0.0017845
2765.83576,-0.0017677
2764.87138,-0.0017530
2763.90700,-0.0017466
2762.94263,-0.0017478
2761.97825,-0.0017468
2761.01387,-0.0017432
2760.04949,-0.0017374
2759.08512,-0.0017264
2758.12074,-0.0017013
2757.15636,-0.0016903
2756.19198,-0.0016952
2755.22760,-0.0016913
2754.26323,-0.0016810
2753.29885,-0.0016733
2752.33447,-0.0016866
2751.37009,-0.0017020
2750.40571,-0.0017154
2749.44134,-0.0017365
2748.47696,-0.0017564
2747.51258,-0.0017775
2746.54820,-0.0017818
2745.58382,-0.0017765
2744.61945,-0.0017818
2743.65507,-0.0017849
2742.69069,-0.0017702
2741.72631,-0.0017488
2740.76194,-0.0017320
2739.79756,-0.0016992
2738.83318,-0.0016607
2737.86880,-0.0016435
2736.90442,-0.0016574
2735.94005,-0.0016879
2734.97567,-0.0017005
2734.01129,-0.0017034
2733.04691,-0.0017120
2732.08253,-0.0017149
2731.11816,-0.0017071
2730.15378,-0.0016873
2729.18940,-0.0016683
2728.22502,-0.0016687
2727.26065,-0.0016796
2726.29627,-0.0016873
2725.33189,-0.0016811
2724.36751,-0.0016580
2723.40313,-0.0016376
2722.43876,-0.0016283
2721.47438,-0.0016263
2720.51000,-0.0016245
2719.54562,-0.0016122
2718.58124,-0.0015949
2717.61687,-0.0015973
2716.65249,-0.0016225
2715.68811,-0.0016460
2714.72373,-0.0016530
2713.75935,-0.0016314
2712.79498,-0.0016112
2711.83060,-0.0016148
2710.86622,-0.0016038
2709.90184,-0.0015883
2708.93747,-0.0015853
2707.97309,-0.0015907
2707.00871,-0.0016182
2706.04433,-0.0016491
2705.07995,-0.0016655
2704.11558,-0.0016852
2703.15120,-0.0017081
2702.18682,-0.0017048
2701.22244,-0.0016845
2700.25806,-0.0016509
2699.29369,-0.0015913
2698.32931,-0.0015513
2697.36493,-0.0015535
2696.40055,-0.0015799
2695.43618,-0.0016146
2694.47180,-0.0016346
2693.50742,-0.0016524
2692.54304,-0.0016802
2691.57866,-0.0016813
2690.61429,-0.0016487
2689.64991,-0.0016060
2688.68553,-0.0015520
2687.72115,-0.0014996
2686.75677,-0.0014671
2685.79240,-0.0014563
2684.82802,-0.0014605
2683.86364,-0.0014724
2682.89926,-0.0014962
2681.93488,-0.0015273
2680.97051,-0.0015637
2680.00613,-0.0015977
2679.04175,-0.0016227
2678.07737,-0.0016288
2677.11300,-0.0016068
2676.14862,-0.0015921
2675.18424,-0.0015862
2674.21986,-0.0015739
2673.25548,-0.0015749
2672.29111,-0.0015866
2671.32673,-0.0015938
2670.36235,-0.0015871
2669.39797,-0.0015938
2668.43359,-0.0016318
2667.46922,-0.0016508
2666.50484,-0.0016238
2665.54046,-0.0015904
2664.57608,-0.0015813
2663.61171,-0.0015768
2662.64733,-0.0015678
2661.68295,-0.0015715
2660.71857,-0.0015777
2659.75419,-0.0015555
2658.78982,-0.0015097
2657.82544,-0.0014805
2656.86106,-0.0014677
2655.89668,-0.0014339
2654.93230,-0.0013980
2653.96793,-0.0014089
2653.00355,-0.0014435
2652.03917,-0.0014671
2651.07479,-0.0014953
2650.11041,-0.0015385
2649.14604,-0.0015737
2648.18166,-0.0015706
2647.21728,-0.0015413
2646.25290,-0.0015086
2645.28853,-0.0014790
2644.32415,-0.0014644
2643.35977,-0.0014695
2642.39539,-0.0014793
2641.43101,-0.0014640
2640.46664,-0.0014456
2639.50226,-0.0014575
2638.53788,-0.0014800
2637.57350,-0.0014886
2636.60912,-0.0014658
2635.64475,-0.0014314
2634.68037,-0.0014286
2633.71599,-0.0014513
2632.75161,-0.0014559
2631.78724,-0.0014421
2630.82286,-0.0014303
2629.85848,-0.0014140
2628.89410,-0.0014143
2627.92972,-0.0014336
2626.96535,-0.0014512
2626.00097,-0.0014688
2625.03659,-0.0014710
2624.07221,-0.0014650
2623.10783,-0.0014784
2622.14346,-0.0014858
2621.17908,-0.0014565
2620.21470,-0.0014084
2619.25032,-0.0013529
2618.28594,-0.0012987
2617.32157,-0.0012653
2616.35719,-0.0012698
2615.39281,-0.0013165
2614.42843,-0.0013530
2613.46406,-0.0013557
2612.49968,-0.0013488
2611.53530,-0.0013436
2610.57092,-0.0013615
2609.60654,-0.0013773
2608.64217,-0.0013427
2607.67779,-0.0013073
2606.71341,-0.0013124
2605.74903,-0.0013006
2604.78465,-0.0012980
2603.82028,-0.0013349
2602.85590,-0.0013457
2601.89152,-0.0013448
2600.92714,-0.0013683
2599.96276,-0.0014263
2598.99839,-0.0014880
2598.03401,-0.0015101
2597.06963,-0.0015225
2596.10525,-0.0015383
2595.14088,-0.0015443
2594.17650,-0.0015241
2593.21212,-0.0015077
2592.24774,-0.0015097
2591.28336,-0.0014883
2590.31899,-0.0014573
2589.35461,-0.0014443
2588.39023,-0.0014448
2587.42585,-0.0014207
2586.46147,-0.0013959
2585.49710,-0.0013867
2584.53272,-0.0013453
2583.56834,-0.0013204
2582.60396,-0.0013325
2581.63959,-0.0013221
2580.67521,-0.0012584
2579.71083,-0.0011951
2578.74645,-0.0011915
2577.78207,-0.0012175
2576.81770,-0.0012466
2575.85332,-0.0012744
2574.88894,-0.0013159
2573.92456,-0.0013425
2572.96018,-0.0013495
2571.99581,-0.0013829
2571.03143,-0.0014111
2570.06705,-0.0013995
2569.10267,-0.0013512
2568.13829,-0.0013423
2567.17392,-0.0013774
2566.20954,-0.0013861
2565.24516,-0.0013785
2564.28078,-0.0013604
2563.31641,-0.0013742
2562.35203,-0.0013808
2561.38765,-0.0013253
2560.42327,-0.0012792
2559.45889,-0.0012550
2558.49452,-0.0012382
2557.53014,-0.0012168
2556.56576,-0.0012186
2555.60138,-0.0012839
2554.63700,-0.0013602
2553.67263,-0.0013983
2552.70825,-0.0014097
2551.74387,-0.0014049
2550.77949,-0.0013274
2549.81512,-0.0011977
2548.85074,-0.0011240
2547.88636,-0.0010918
2546.92198,-0.0010162
2545.95760,-0.0009294
2544.99323,-0.0009544
2544.02885,-0.0010811
2543.06447,-0.0011931
2542.10009,-0.0012831
2541.13571,-0.0013622
2540.17134,-0.0013939
2539.20696,-0.0014346
2538.24258,-0.0015149
2537.27820,-0.0015678
2536.31382,-0.0015494
2535.34945,-0.0014644
2534.38507,-0.0014197
2533.42069,-0.0014096
2532.45631,-0.0013074
2531.49194,-0.0011578
2530.52756,-0.0010240
2529.56318,-0.0008998
2528.59880,-0.0008586
2527.63442,-0.0009715
2526.67005,-0.0010901
2525.70567,-0.0011052
2524.74129,-0.0011480
2523.77691,-0.0012327
2522.81253,-0.0012707
2521.84816,-0.0012171
2520.88378,-0.0011074
2519.91940,-0.0010274
2518.95502,-0.0009988
2517.99065,-0.0010503
2517.02627,-0.0011608
2516.06189,-0.0012783
2515.09751,-0.0013326
2514.13313,-0.0013261
2513.16876,-0.0013450
2512.20438,-0.0013058
2511.24000,-0.0012031
2510.27562,-0.0011573
2509.31124,-0.0011601
2508.34687,-0.0011720
2507.38249,-0.0012276
2506.41811,-0.0013398
2505.45373,-0.0014265
2504.48935,-0.0014882
2503.52498,-0.0015435
2502.56060,-0.0015877
2501.59622,-0.0016150
2500.63184,-0.0015555
2499.66747,-0.0014753
2498.70309,-0.0014186
2497.73871,-0.0013230
2496.77433,-0.0012170
2495.80995,-0.0011342
2494.84558,-0.0010794
2493.88120,-0.0010684
2492.91682,-0.0010990
2491.95244,-0.0011223
2490.98806,-0.0011371
2490.02369,-0.0011529
2489.05931,-0.0011518
2488.09493,-0.0011631
2487.13055,-0.0011726
2486.16618,-0.0011997
2485.20180,-0.0012540
2484.23742,-0.0012522
2483.27304,-0.0012030
2482.30866,-0.0011649
2481.34429,-0.0011422
2480.37991,-0.0011072
2479.41553,-0.0010652
2478.45115,-0.0010884
2477.48677,-0.0011657
2476.52240,-0.0011988
2475.55802,-0.0012125
2474.59364,-0.0012501
2473.62926,-0.0012464
2472.66488,-0.0011898
2471.70051,-0.0011114
2470.73613,-0.0010254
2469.77175,-0.0009744
2468.80737,-0.0010052
2467.84300,-0.0011106
2466.87862,-0.0012554
2465.91424,-0.0013846
2464.94986,-0.0014413
2463.98548,-0.0014779
2463.02111,-0.0015046
2462.05673,-0.0015021
2461.09235,-0.0014932
2460.12797,-0.0014275
2459.16359,-0.0013540
2458.19922,-0.0013207
2457.23484,-0.0012908
2456.27046,-0.0012675
2455.30608,-0.0012421
2454.34171,-0.0012220
2453.37733,-0.0011980
2452.41295,-0.0011992
2451.44857,-0.0012588
2450.48419,-0.0013225
2449.51982,-0.0013469
2448.55544,-0.0013554
2447.59106,-0.0014163
2446.62668,-0.0014650
2445.66230,-0.0014172
2444.69793,-0.0013371
2443.73355,-0.0012647
2442.76917,-0.0011839
2441.80479,-0.0011182
2440.84041,-0.0011299
2439.87604,-0.0011704
2438.91166,-0.0011652
2437.94728,-0.0011508
2436.98290,-0.0011477
2436.01853,-0.0011395
2435.05415,-0.0010905
2434.08977,-0.0009941
2433.12539,-0.0009054
2432.16101,-0.0008677
2431.19664,-0.0008814
2430.23226,-0.0009277
2429.26788,-0.0009746
2428.30350,-0.0009953
2427.33912,-0.0010438
2426.37475,-0.0011125
2425.41037,-0.0011277
2424.44599,-0.0011215
2423.48161,-0.0011065
2422.51724,-0.0010922
2421.55286,-0.0011249
2420.58848,-0.0011768
2419.62410,-0.0012032
2418.65972,-0.0011861
2417.69535,-0.0011578
2416.73097,-0.0011720
2415.76659,-0.0012022
2414.80221,-0.0011924
2413.83783,-0.0011356
2412.87346,-0.0010521
2411.90908,-0.0009778
2410.94470,-0.0009470
2409.98032,-0.0009338
2409.01594,-0.0009157
2408.05157,-0.0009399
2407.08719,-0.0009961
2406.12281,-0.0010399
2405.15843,-0.0010975
2404.19406,-0.0011540
2403.22968,-0.0011465
2402.26530,-0.0010450
2401.30092,-0.0008900
2400.33654,-0.0007666
2399.37217,-0.0006782
2398.40779,-0.0006101
2397.44341,-0.0006102
2396.47903,-0.0006865
2395.51465,-0.0007523
2394.55028,-0.0007647
2393.58590,-0.0008097
2392.62152,-0.0008951
2391.65714,-0.0009514
2390.69276,-0.0009691
2389.72839,-0.0009553
2388.76401,-0.0009383
2387.79963,-0.0009320
2386.83525,-0.0009400
2385.87088,-0.0009430
2384.90650,-0.0009043
2383.94212,-0.0008409
2382.97774,-0.0007604
2382.01336,-0.0006985
2381.04899,-0.0006854
2380.08461,-0.0006818
2379.12023,-0.0006607
2378.15585,-0.0006023
2377.19147,-0.0005404
2376.22710,-0.0005270
2375.26272,-0.0005167
2374.29834,-0.0004393
2373.33396,-0.0003296
2372.36959,-0.0002444
2371.40521,-0.0001630
2370.44083,-0.0000943
2369.47645,-0.0000403
2368.51207,-0.0000016
2367.54770,0.0000031
2366.58332,0.0000157
2365.61894,0.0000081
2364.65456,-0.0000481
2363.69018,-0.0000810
2362.72581,-0.0000798
2361.76143,-0.0000979
2360.79705,-0.0001360
2359.83267,-0.0001532
2358.86829,-0.0001437
2357.90392,-0.0001236
2356.93954,-0.0001164
2355.97516,-0.0001208
2355.01078,-0.0001182
2354.04641,-0.0001351
2353.08203,-0.0001767
2352.11765,-0.0002332
2351.15327,-0.0003181
2350.18889,-0.0004172
2349.22452,-0.0004856
2348.26014,-0.0005024
2347.29576,-0.0004915
2346.33138,-0.0004652
2345.36700,-0.0004173
2344.40263,-0.0003542
2343.43825,-0.0002979
2342.47387,-0.0002736
2341.50949,-0.0002726
2340.54512,-0.0002612
2339.58074,-0.0002415
2338.61636,-0.0002254
2337.65198,-0.0001991
2336.68760,-0.0001686
2335.72323,-0.0001450
2334.75885,-0.0001367
2333.79447,-0.0001383
2332.83009,-0.0001189
2331.86571,-0.0000929
2330.90134,-0.0001035
2329.93696,-0.0001352
2328.97258,-0.0001334
2328.00820,-0.0001207
2327.04382,-0.0001293
2326.07945,-0.0001504
2325.11507,-0.0002047
2324.15069,-0.0002603
2323.18631,-0.0003116
2322.22194,-0.0003587
2321.25756,-0.0003486
2320.29318,-0.0003393
2319.32880,-0.0003876
2318.36442,-0.0004343
2317.40005,-0.0004247
2316.43567,-0.0003866
2315.47129,-0.0003566
2314.50691,-0.0003506
2313.54253,-0.0003847
2312.57816,-0.0004103
2311.61378,-0.0004326
2310.64940,-0.0004705
2309.68502,-0.0004938
2308.72065,-0.0005456
2307.75627,-0.0006221
2306.79189,-0.0006649
2305.82751,-0.0006746
2304.86313,-0.0006649
2303.89876,-0.0006510
2302.93438,-0.0006448
2301.97000,-0.0006431
2301.00562,-0.0006415
2300.04124,-0.0006399
2299.07687,-0.0006382
2298.11249,-0.0006366
2297.14811,-0.0006350
2296.18373,-0.0006333
2295.21935,-0.0006317
2294.25498,-0.0006300
2293.29060,-0.0006284
2292.32622,-0.0006268
2291.36184,-0.0006251
2290.39747,-0.0006235
2289.43309,-0.0006219
2288.46871,-0.0006202
2287.50433,-0.0006186
2286.53995,-0.0006170
2285.57558,-0.0006153
2284.61120,-0.0006137
2283.64682,-0.0006121
2282.68244,-0.0006104
2281.71806,-0.0006088
2280.75369,-0.0006071
2279.78931,-0.0006055
2278.82493,-0.0006039
2277.86055,-0.0006022
2276.89618,-0.0006006
2275.93180,-0.0005990
2274.96742,-0.0005973
2274.00304,-0.0005957
2273.03866,-0.0005941
2272.07429,-0.0005924
2271.10991,-0.0005908
2270.14553,-0.0005892
2269.18115,-0.0005875
2268.21677,-0.0005859
2267.25240,-0.0005843
2266.28802,-0.0005826
2265.32364,-0.0005810
2264.35926,-0.0005793
2263.39488,-0.0005777
2262.43051,-0.0005761
2261.46613,-0.0005744
2260.50175,-0.0005728
2259.53737,-0.0005712
2258.57300,-0.0005695
2257.60862,-0.0005679
2256.64424,-0.0005663
2255.67986,-0.0005646
2254.71548,-0.0005630
2253.75111,-0.0005614
2252.78673,-0.0005597
2251.82235,-0.0005581
2250.85797,-0.0005565
2249.89359,-0.0005548
2248.92922,-0.0005532
2247.96484,-0.0005515
2247.00046,-0.0005499
2246.03608,-0.0005483
2245.07171,-0.0005466
2244.10733,-0.0005450
2243.14295,-0.0005434
2242.17857,-0.0005417
2241.21419,-0.0005401
2240.24982,-0.0005385
2239.28544,-0.0005368
2238.32106,-0.0005352
2237.35668,-0.0005336
2236.39230,-0.0005319
2235.42793,-0.0005303
2234.46355,-0.0005286
2233.49917,-0.0005270
2232.53479,-0.0005254
2231.57041,-0.0005237
2230.60604,-0.0005221
2229.64166,-0.0005205
2228.67728,-0.0005188
2227.71290,-0.0005172
2226.74853,-0.0005156
2225.78415,-0.0005139
2224.81977,-0.0005123
2223.85539,-0.0005107
2222.89101,-0.0005090
2221.92664,-0.0005074
2220.96226,-0.0005058
2219.99788,-0.0005041
2219.03350,-0.0005025
2218.06912,-0.0005008
2217.10475,-0.0004992
2216.14037,-0.0004976
2215.17599,-0.0004959
2214.21161,-0.0004943
2213.24724,-0.0004927
2212.28286,-0.0004910
2211.31848,-0.0004894
2210.35410,-0.0004878
2209.38972,-0.0004861
2208.42535,-0.0004845
2207.46097,-0.0004829
2206.49659,-0.0004812
2205.53221,-0.0004796
2204.56783,-0.0004780
2203.60346,-0.0004763
2202.63908,-0.0004747
2201.67470,-0.0004730
2200.71032,-0.0004714
2199.74594,-0.0004698
2198.78157,-0.0004681
2197.81719,-0.0004665
2196.85281,-0.0004649
2195.88843,-0.0004632
2194.92406,-0.0004616
2193.95968,-0.0004600
2192.99530,-0.0004583
2192.03092,-0.0004567
2191.06654,-0.0004551
2190.10217,-0.0004534
2189.13779,-0.0004518
2188.17341,-0.0004501
2187.20903,-0.0004485
2186.24465,-0.0004469
2185.28028,-0.0004452
2184.31590,-0.0004436
2183.35152,-0.0004420
2182.38714,-0.0004403
2181.42276,-0.0004387
2180.45839,-0.0004371
2179.49401,-0.0004354
2178.52963,-0.0004338
2177.56525,-0.0004322
2176.60088,-0.0004305
2175.63650,-0.0004289
2174.67212,-0.0004273
2173.70774,-0.0004256
2172.74336,-0.0004240
2171.77899,-0.0004223
2170.81461,-0.0004207
2169.85023,-0.0004191
2168.88585,-0.0004174
2167.92147,-0.0004158
2166.95710,-0.0004142
2165.99272,-0.0004125
2165.02834,-0.0004109
2164.06396,-0.0004093
2163.09959,-0.0004076
2162.13521,-0.0004060
2161.17083,-0.0004044
2160.20645,-0.0004027
2159.24207,-0.0004011
2158.27770,-0.0003994
2157.31332,-0.0003978
2156.34894,-0.0003962
2155.38456,-0.0003945
2154.42018,-0.0003929
2153.45581,-0.0003913
2152.49143,-0.0003896
2151.52705,-0.0003880
2150.56267,-0.0003864
2149.59829,-0.0003847
2148.63392,-0.0003831
2147.66954,-0.0003815
2146.70516,-0.0003798
2145.74078,-0.0003782
2144.77641,-0.0003766
2143.81203,-0.0003749
2142.84765,-0.0003733
2141.88327,-0.0003716
2140.91889,-0.0003700
2139.95452,-0.0003684
2138.99014,-0.0003667
2138.02576,-0.0003651
2137.06138,-0.0003635
2136.09700,-0.0003618
2135.13263,-0.0003602
2134.16825,-0.0003586
2133.20387,-0.0003569
2132.23949,-0.0003553
2131.27512,-0.0003537
2130.31074,-0.0003520
2129.34636,-0.0003504
2128.38198,-0.0003488
2127.41760,-0.0003471
2126.45323,-0.0003455
2125.48885,-0.0003438
2124.52447,-0.0003422
2123.56009,-0.0003406
2122.59571,-0.0003389
2121.63134,-0.0003373
2120.66696,-0.0003357
2119.70258,-0.0003340
2118.73820,-0.0003324
2117.77382,-0.0003308
2116.80945,-0.0003291
2115.84507,-0.0003275
2114.88069,-0.0003259
2113.91631,-0.0003242
2112.95194,-0.0003226
2111.98756,-0.0003209
2111.02318,-0.0003193
2110.05880,-0.0003177
2109.09442,-0.0003160
2108.13005,-0.0003144
2107.16567,-0.0003128
2106.20129,-0.0003111
2105.23691,-0.0003095
2104.27253,-0.0003079
2103.30816,-0.0003062
2102.34378,-0.0003046
2101.37940,-0.0003030
2100.41502,-0.0003013
2099.45065,-0.0002997
2098.48627,-0.0002981
2097.52189,-0.0002964
2096.55751,-0.0002948
2095.59313,-0.0002931
2094.62876,-0.0002915
2093.66438,-0.0002899
2092.70000,-0.0002882
2091.73562,-0.0002866
2090.77124,-0.0002850
2089.80687,-0.0002833
2088.84249,-0.0002817
2087.87811,-0.0002801
2086.91373,-0.0002784
2085.94935,-0.0002768
2084.98498,-0.0002752
2084.02060,-0.0002735
2083.05622,-0.0002719
2082.09184,-0.0002703
2081.12747,-0.0002686
2080.16309,-0.0002670
2079.19871,-0.0002653
2078.23433,-0.0002637
2077.26995,-0.0002621
2076.30558,-0.0002604
2075.34120,-0.0002588
2074.37682,-0.0002572
2073.41244,-0.0002555
2072.44806,-0.0002539
2071.48369,-0.0002523
2070.51931,-0.0002506
2069.55493,-0.0002490
2068.59055,-0.0002474
2067.62618,-0.0002457
2066.66180,-0.0002441
2065.69742,-0.0002424
2064.73304,-0.0002408
2063.76866,-0.0002392
2062.80429,-0.0002375
2061.83991,-0.0002359
2060.87553,-0.0002343
2059.91115,-0.0002326
2058.94677,-0.0002310
2057.98240,-0.0002294
2057.01802,-0.0002277
2056.05364,-0.0002261
2055.08926,-0.0002245
2054.12488,-0.0002228
2053.16051,-0.0002212
2052.19613,-0.0002196
2051.23175,-0.0002179
2050.26737,-0.0002163
2049.30300,-0.0002146
2048.33862,-0.0002130
2047.37424,-0.0002114
2046.40986,-0.0002097
2045.44548,-0.0002081
2044.48111,-0.0002065
2043.51673,-0.0002048
2042.55235,-0.0002032
2041.58797,-0.0002016
2040.62359,-0.0001999
2039.65922,-0.0001983
2038.69484,-0.0001967
2037.73046,-0.0001950
2036.76608,-0.0001934
2035.80171,-0.0001917
2034.83733,-0.0001901
2033.87295,-0.0001885
2032.90857,-0.0001868
2031.94419,-0.0001852
2030.97982,-0.0001836
2030.01544,-0.0001819
2029.05106,-0.0001803
2028.08668,-0.0001787
2027.12230,-0.0001770
2026.15793,-0.0001754
2025.19355,-0.0001738
2024.22917,-0.0001721
2023.26479,-0.0001705
2022.30041,-0.0001689
2021.33604,-0.0001672
2020.37166,-0.0001656
2019.40728,-0.0001639
2018.44290,-0.0001623
2017.47853,-0.0001607
2016.51415,-0.0001590
2015.54977,-0.0001574
2014.58539,-0.0001558
2013.62101,-0.0001541
2012.65664,-0.0001525
2011.69226,-0.0001509
2010.72788,-0.0001492
2009.76350,-0.0001476
2008.79912,-0.0001460
2007.83475,-0.0001443
2006.87037,-0.0001427
2005.90599,-0.0001411
2004.94161,-0.0001394
2003.97724,-0.0001378
2003.01286,-0.0001361
2002.04848,-0.0001345
2001.08410,-0.0001329
2000.11972,-0.0001312
1999.15535,-0.0001296
1998.19097,-0.0001280
1997.22659,-0.0001263
1996.26221,-0.0001247
1995.29783,-0.0001231
1994.33346,-0.0001214
1993.36908,-0.0001198
1992.40470,-0.0001182
1991.44032,-0.0001165
1990.47594,-0.0001149
1989.51157,-0.0001132
1988.54719,-0.0001116
1987.58281,-0.0001100
1986.61843,-0.0001083
1985.65406,-0.0001067
1984.68968,-0.0001051
1983.72530,-0.0001034
1982.76092,-0.0001018
1981.79654,-0.0001002
1980.83217,-0.0000985
1979.86779,-0.0000969
1978.90341,-0.0000953
1977.93903,-0.0000936
1976.97465,-0.0000920
1976.01028,-0.0000904
1975.04590,-0.0000887
1974.08152,-0.0000871
1973.11714,-0.0000854
1972.15276,-0.0000838
1971.18839,-0.0000822
1970.22401,-0.0000805
1969.25963,-0.0000789
1968.29525,-0.0000773
1967.33088,-0.0000756
1966.36650,-0.0000740
1965.40212,-0.0000724
1964.43774,-0.0000707
1963.47336,-0.0000691
1962.50899,-0.0000675
1961.54461,-0.0000658
1960.58023,-0.0000642
1959.61585,-0.0000626
1958.65147,-0.0000609
1957.68710,-0.0000593
1956.72272,-0.0000576
1955.75834,-0.0000560
1954.79396,-0.0000544
1953.82959,-0.0000527
1952.86521,-0.0000511
1951.90083,-0.0000495
1950.93645,-0.0000478
1949.97207,-0.0000462
1949.00770,-0.0000446
1948.04332,-0.0000429
1947.07894,-0.0000413
1946.11456,-0.0000397
1945.15018,-0.0000380
1944.18581,-0.0000364
1943.22143,-0.0000347
1942.25705,-0.0000331
1941.29267,-0.0000315
1940.32829,-0.0000298
1939.36392,-0.0000282
1938.39954,-0.0000266
1937.43516,-0.0000249
1936.47078,-0.0000233
1935.50641,-0.0000217
1934.54203,-0.0000200
1933.57765,-0.0000184
1932.61327,-0.0000168
1931.64889,-0.0000151
1930.68452,-0.0000135
1929.72014,-0.0000119
1928.75576,-0.0000102
1927.79138,-0.0000086
1926.82700,-0.0000069
1925.86263,-0.0000053
1924.89825,-0.0000037
1923.93387,-0.0000020
1922.96949,-0.0000004
1922.00512,0.0000012
1921.04074,0.0000029
1920.07636,0.0000045
1919.11198,0.0000061
1918.14760,0.0000078
1917.18323,0.0000094
1916.21885,0.0000110
1915.25447,0.0000127
1914.29009,0.0000143
1913.32571,0.0000160
1912.36134,0.0000176
1911.39696,0.0000192
1910.43258,0.0000209
1909.46820,0.0000225
1908.50382,0.0000241
1907.53945,0.0000258
1906.57507,0.0000274
1905.61069,0.0000290
1904.64631,0.0000307
1903.68194,0.0000323
1902.71756,0.0000339
1901.75318,0.0000356
1900.78880,0.0000372
1899.82442,0.0000388
1898.86005,0.0000405
1897.89567,0.0000421
1896.93129,0.0000438
1895.96691,0.0000454
1895.00253,0.0000470
1894.03816,0.0000487
1893.07378,0.0000503
1892.10940,0.0000519
1891.14502,0.0000536
1890.18065,0.0000552
1889.21627,0.0000568
1888.25189,0.0000585
1887.28751,0.0000601
1886.32313,0.0000617
1885.35876,0.0000634
1884.39438,0.0000650
1883.43000,0.0000666
1882.46562,0.0000683
1881.50124,0.0000699
1880.53687,0.0000716
1879.57249,0.0000732
1878.60811,0.0000748
1877.64373,0.0000765
1876.67935,0.0000781
1875.71498,0.0000797
1874.75060,0.0000814
1873.78622,0.0000738
1872.82184,0.0000588
1871.85747,0.0000727
1870.89309,0.0001267
1869.92871,0.0001855
1868.96433,0.0002096
1867.99995,0.0001962
1867.03558,0.0001702
1866.07120,0.0001297
1865.10682,0.0000711
1864.14244,0.0000192
1863.17806,-0.0000005
1862.21369,-0.0000239
1861.24931,-0.0000576
1860.28493,-0.0000162
1859.32055,0.0000816
1858.35618,0.0001569
1857.39180,0.0001921
1856.42742,0.0001925
1855.46304,0.0001776
1854.49866,0.0001568
1853.53429,0.0001532
1852.56991,0.0001739
1851.60553,0.0001919
1850.64115,0.0001607
1849.67677,0.0001050
1848.71240,0.0001129
1847.74802,0.0001309
1846.78364,0.0001250
1845.81926,0.0001312
1844.85488,0.0001211
1843.89051,0.0001172
1842.92613,0.0001517
1841.96175,0.0001946
1840.99737,0.0002031
1840.03300,0.0001913
1839.06862,0.0001780
1838.10424,0.0001667
1837.13986,0.0001771
1836.17548,0.0001512
1835.21111,0.0001218
1834.24673,0.0001417
1833.28235,0.0001424
1832.31797,0.0001477
1831.35359,0.0001808
1830.38922,0.0002144
1829.42484,0.0002411
1828.46046,0.0002743
1827.49608,0.0003225
1826.53171,0.0003380
1825.56733,0.0003264
1824.60295,0.0003070
1823.63857,0.0002956
1822.67419,0.0002845
1821.70982,0.0002306
1820.74544,0.0001995
1819.78106,0.0002040
1818.81668,0.0001940
1817.85230,0.0001742
1816.88793,0.0001590
1815.92355,0.0001713
1814.95917,0.0001790
1813.99479,0.0001743
1813.03041,0.0001800
1812.06604,0.0001787
1811.10166,0.0001754
1810.13728,0.0001733
1809.17290,0.0001794
1808.20853,0.0001872
1807.24415,0.0001909
1806.27977,0.0002182
1805.31539,0.0002647
1804.35101,0.0003275
1803.38664,0.0003838
1802.42226,0.0003934
1801.45788,0.0003896
1800.49350,0.0003944
1799.52912,0.0003811
1798.56475,0.0003414
1797.60037,0.0002866
1796.63599,0.0002437
1795.67161,0.0002367
1794.70724,0.0002567
1793.74286,0.0002837
1792.77848,0.0003164
1791.81410,0.0003404
1790.84972,0.0003470
1789.88535,0.0003634
1788.92097,0.0003806
1787.95659,0.0003783
1786.99221,0.0003656
1786.02783,0.0003483
1785.06346,0.0003441
1784.09908,0.0003620
1783.13470,0.0003780
1782.17032,0.0003700
1781.20594,0.0003558
1780.24157,0.0003492
1779.27719,0.0003355
1778.31281,0.0003272
1777.34843,0.0003408
1776.38406,0.0003766
1775.41968,0.0004184
1774.45530,0.0004592
1773.49092,0.0005175
1772.52654,0.0005655
1771.56217,0.0005699
1770.59779,0.0005414
1769.63341,0.0005088
1768.66903,0.0004737
1767.70465,0.0004195
1766.74028,0.0003827
1765.77590,0.0003894
1764.81152,0.0004154
1763.84714,0.0004244
1762.88276,0.0004203
1761.91839,0.0004524
1760.95401,0.0004933
1759.98963,0.0005085
1759.02525,0.0005224
1758.06088,0.0005320
1757.09650,0.0005441
1756.13212,0.0005905
1755.16774,0.0006596
1754.20336,0.0007238
1753.23899,0.0007851
1752.27461,0.0008338
1751.31023,0.0008733
1750.34585,0.0009279
1749.38147,0.0009736
1748.41710,0.0010033
1747.45272,0.0010226
1746.48834,0.0010091
1745.52396,0.0010021
1744.55959,0.0010319
1743.59521,0.0010476
1742.63083,0.0010394
1741.66645,0.0010229
1740.70207,0.0009845
1739.73770,0.0009542
1738.77332,0.0009754
1737.80894,0.0010326
1736.84456,0.0010886
1735.88018,0.0011142
1734.91581,0.0011099
1733.95143,0.0010985
1732.98705,0.0010737
1732.02267,0.0010121
1731.05829,0.0009178
1730.09392,0.0008014
1729.12954,0.0006970
1728.16516,0.0006607
1727.20078,0.0006795
1726.23641,0.0006954
1725.27203,0.0006898
1724.30765,0.0006776
1723.34327,0.0006876
1722.37889,0.0007241
1721.41452,0.0007635
1720.45014,0.0008037
1719.48576,0.0008580
1718.52138,0.0009087
1717.55700,0.0009411
1716.59263,0.0009581
1715.62825,0.0009477
1714.66387,0.0009119
1713.69949,0.0008570
1712.73512,0.0007878
1711.77074,0.0007392
1710.80636,0.0007322
1709.84198,0.0007482
1708.87760,0.0007911
1707.91323,0.0008394
1706.94885,0.0008328
1705.98447,0.0008334
1705.02009,0.0009236
1704.05571,0.0010549
1703.09134,0.0011644
1702.12696,0.0012150
1701.16258,0.0012674
1700.19820,0.0013683
1699.23382,0.0014633
1698.26945,0.0015247
1697.30507,0.0015478
1696.34069,0.0015112
1695.37631,0.0014276
1694.41194,0.0013841
1693.44756,0.0013996
1692.48318,0.0013904
1691.51880,0.0013223
1690.55442,0.0012508
1689.59005,0.0013100
1688.62567,0.0014684
1687.66129,0.0016002
1686.69691,0.0016927
1685.73253,0.0017662
1684.76816,0.0018215
1683.80378,0.0018457
1682.83940,0.0018371
1681.87502,0.0017880
1680.91065,0.0017218
1679.94627,0.0016861
1678.98189,0.0016940
1678.01751,0.0017736
1677.05313,0.0018837
1676.08876,0.0019583
1675.12438,0.0020063
1674.16000,0.0020697
1673.19562,0.0021292
1672.23124,0.0021460
1671.26687,0.0021314
1670.30249,0.0020879
1669.33811,0.0020509
1668.37373,0.0020522
1667.40935,0.0020636
1666.44498,0.0020797
1665.48060,0.0020950
1664.51622,0.0020948
1663.55184,0.0020960
1662.58747,0.0021190
1661.62309,0.0021302
1660.65871,0.0021147
1659.69433,0.0020892
1658.72995,0.0020879
1657.76558,0.0021872
1656.80120,0.0023603
1655.83682,0.0025294
1654.87244,0.0026401
1653.90806,0.0026835
1652.94369,0.0026803
1651.97931,0.0026533
1651.01493,0.0026352
1650.05055,0.0025946
1649.08618,0.0025113
1648.12180,0.0024151
1647.15742,0.0023650
1646.19304,0.0023911
1645.22866,0.0023912
1644.26429,0.0023297
1643.29991,0.0022423
1642.33553,0.0021454
1641.37115,0.0020786
1640.40677,0.0020975
1639.44240,0.0021867
1638.47802,0.0022644
1637.51364,0.0023031
1636.54926,0.0023115
1635.58488,0.0022972
1634.62051,0.0022603
1633.65613,0.0021981
1632.69175,0.0021322
1631.72737,0.0020623
1630.76300,0.0019819
1629.79862,0.0019323
1628.83424,0.0019603
1627.86986,0.0020242
1626.90548,0.0020693
1625.94111,0.0020950
1624.97673,0.0021138
1624.01235,0.0021239
1623.04797,0.0021102
1622.08359,0.0021231
1621.11922,0.0021807
1620.15484,0.0022141
1619.19046,0.0022085
1618.22608,0.0021906
1617.26171,0.0021869
1616.29733,0.0021852
1615.33295,0.0021628
1614.36857,0.0021327
1613.40419,0.0021068
1612.43982,0.0020797
1611.47544,0.0020554
1610.51106,0.0020705
1609.54668,0.0021032
1608.58230,0.0021039
1607.61793,0.0020869
1606.65355,0.0020723
1605.68917,0.0020628
1604.72479,0.0020636
1603.76041,0.0020792
1602.79604,0.0021032
1601.83166,0.0021353
1600.86728,0.0021665
1599.90290,0.0021822
1598.93853,0.0021807
1597.97415,0.0021656
1597.00977,0.0021555
1596.04539,0.0021545
1595.08101,0.0021542
1594.11664,0.0021491
1593.15226,0.0021396
1592.18788,0.0021271
1591.22350,0.0021152
1590.25912,0.0021156
1589.29475,0.0021180
1588.33037,0.0021146
1587.36599,0.0021039
1586.40161,0.0020931
1585.43724,0.0020934
1584.47286,0.0020969
1583.50848,0.0020867
1582.54410,0.0020517
1581.57972,0.0020514
1580.61535,0.0021182
1579.65097,0.0022021
1578.68659,0.0022737
1577.72221,0.0023191
1576.75783,0.0023266
1575.79346,0.0022983
1574.82908,0.0022749
1573.86470,0.0022601
1572.90032,0.0022240
1571.93594,0.0021642
1570.97157,0.0020945
1570.00719,0.0020782
1569.04281,0.0021055
1568.07843,0.0021046
1567.11406,0.0020591
1566.14968,0.0019827
1565.18530,0.0019301
1564.22092,0.0019444
1563.25654,0.0020571
1562.29217,0.0022197
1561.32779,0.0023327
1560.36341,0.0023940
1559.39903,0.0024477
1558.43465,0.0025002
1557.47028,0.0025136
1556.50590,0.0024558
1555.54152,0.0023339
1554.57714,0.0021982
1553.61276,0.0021116
1552.64839,0.0020631
1551.68401,0.0020364
1550.71963,0.0020246
1549.75525,0.0020108
1548.79088,0.0020072
1547.82650,0.0020495
1546.86212,0.0021317
1545.89774,0.0021924
1544.93336,0.0022491
1543.96899,0.0023559
1543.00461,0.0024723
1542.04023,0.0025430
1541.07585,0.0025405
1540.11147,0.0024775
1539.14710,0.0024076
1538.18272,0.0023478
1537.21834,0.0022611
1536.25396,0.0021606
1535.28959,0.0020622
1534.32521,0.0019554
1533.36083,0.0019015
1532.39645,0.0019038
1531.43207,0.0019017
1530.46770,0.0019001
1529.50332,0.0018923
1528.53894,0.0018607
1527.57456,0.0018279
1526.61018,0.0018428
1525.64581,0.0019079
1524.68143,0.0019739
1523.71705,0.0019966
1522.75267,0.0019983
1521.78829,0.0020139
1520.82392,0.0020159
1519.85954,0.0020074
1518.89516,0.0019832
1517.93078,0.0019234
1516.96641,0.0018409
1516.00203,0.0017528
1515.03765,0.0017073
1514.07327,0.0016920
1513.10889,0.0016657
1512.14452,0.0016635
1511.18014,0.0017364
1510.21576,0.0018659
1509.25138,0.0019761
1508.28700,0.0020371
1507.32263,0.0020479
1506.35825,0.0020250
1505.39387,0.0019637
1504.42949,0.0018626
1503.46512,0.0017487
1502.50074,0.0016042
1501.53636,0.0014977
1500.57198,0.0014963
1499.60760,0.0015474
1498.64323,0.0016040
1497.67885,0.0016276
1496.71447,0.0016127
1495.75009,0.0015891
1494.78571,0.0015727
1493.82134,0.0015534
1492.85696,0.0015399
1491.89258,0.0015367
1490.92820,0.0015218
1489.96382,0.0015320
1488.99945,0.0015632
1488.03507,0.0015661
1487.07069,0.0015478
1486.10631,0.0015203
1485.14194,0.0014855
1484.17756,0.0014575
1483.21318,0.0014424
1482.24880,0.0014263
1481.28442,0.0014257
1480.32005,0.0014391
1479.35567,0.0014410
1478.39129,0.0014515
1477.42691,0.0015004
1476.46253,0.0015860
1475.49816,0.0016667
1474.53378,0.0017347
1473.56940,0.0017951
1472.60502,0.0018255
1471.64065,0.0018222
1470.67627,0.0018018
1469.71189,0.0018070
1468.74751,0.0018120
1467.78313,0.0017940
1466.81876,0.0017977
1465.85438,0.0018213
1464.89000,0.0018443
1463.92562,0.0018357
1462.96124,0.0018158
1461.99687,0.0018625
1461.03249,0.0019595
1460.06811,0.0020547
1459.10373,0.0021380
1458.13935,0.0022158
1457.17498,0.0022674
1456.21060,0.0022748
1455.24622,0.0022371
1454.28184,0.0021424
1453.31747,0.0020200
1452.35309,0.0019116
1451.38871,0.0018488
1450.42433,0.0018620
1449.45995,0.0019054
1448.49558,0.0019321
1447.53120,0.0019542
1446.56682,0.0019767
1445.60244,0.0019940
1444.63806,0.0020052
1443.67369,0.0019899
1442.70931,0.0019577
1441.74493,0.0019818
1440.78055,0.0020665
1439.81618,0.0021438
1438.85180,0.0021928
1437.88742,0.0022250
1436.92304,0.0022437
1435.95866,0.0022474
1434.99429,0.0022272
1434.02991,0.0021864
1433.06553,0.0021357
1432.10115,0.0020726
1431.13677,0.0020164
1430.17240,0.0020153
1429.20802,0.0020464
1428.24364,0.0020647
1427.27926,0.0020822
1426.31488,0.0020903
1425.35051,0.0020966
1424.38613,0.0021431
1423.42175,0.0022147
1422.45737,0.0022854
1421.49300,0.0023453
1420.52862,0.0023917
1419.56424,0.0024244
1418.59986,0.0024448
1417.63548,0.0024637
1416.67111,0.0024687
1415.70673,0.0024442
1414.74235,0.0024020
1413.77797,0.0023800
1412.81359,0.0023917
1411.84922,0.0023895
1410.88484,0.0023696
1409.92046,0.0023652
1408.95608,0.0023761
1407.99171,0.0023951
1407.02733,0.0024127
1406.06295,0.0024219
1405.09857,0.0024244
1404.13419,0.0024279
1403.16982,0.0024409
1402.20544,0.0024509
1401.24106,0.0024363
1400.27668,0.0024033
1399.31230,0.0023899
1398.34793,0.0024075
1397.38355,0.0024321
1396.41917,0.0024500
1395.45479,0.0024550
1394.49041,0.0024392
1393.52604,0.0024154
1392.56166,0.0024109
1391.59728,0.0024182
1390.63290,0.0024100
1389.66853,0.0023811
1388.70415,0.0023524
1387.73977,0.0023470
1386.77539,0.0023478
1385.81101,0.0023439
1384.84664,0.0023431
1383.88226,0.0023392
1382.91788,0.0023317
1381.95350,0.0023207
1380.98912,0.0023184
1380.02475,0.0023269
1379.06037,0.0023361
1378.09599,0.0023452
1377.13161,0.0023413
1376.16724,0.0023251
1375.20286,0.0023041
1374.23848,0.0022814
1373.27410,0.0022645
1372.30972,0.0022495
1371.34535,0.0022314
1370.38097,0.0022004
1369.41659,0.0021702
1368.45221,0.0021766
1367.48783,0.0022128
1366.52346,0.0022474
1365.55908,0.0022679
1364.59470,0.0022753
1363.63032,0.0022759
1362.66594,0.0022764
1361.70157,0.0022788
1360.73719,0.0022737
1359.77281,0.0022505
1358.80843,0.0022166
1357.84406,0.0021860
1356.87968,0.0021660
1355.91530,0.0021531
1354.95092,0.0021422
1353.98654,0.0021322
1353.02217,0.0021080
1352.05779,0.0020789
1351.09341,0.0020698
1350.12903,0.0020712
1349.16465,0.0020709
1348.20028,0.0020685
1347.23590,0.0020719
1346.27152,0.0020770
1345.30714,0.0020744
1344.34276,0.0020812
1343.37839,0.0020969
1342.41401,0.0021045
1341.44963,0.0020989
1340.48525,0.0020939
1339.52088,0.0021031
1338.55650,0.0021060
1337.59212,0.0020892
1336.62774,0.0020684
1335.66336,0.0020507
1334.69899,0.0020269
1333.73461,0.0019974
1332.77023,0.0019735
1331.80585,0.0019537
1330.84147,0.0019327
1329.87710,0.0019149
1328.91272,0.0019101
1327.94834,0.0019132
1326.98396,0.0019084
1326.01959,0.0019007
1325.05521,0.0019006
1324.09083,0.0018974
1323.12645,0.0018912
1322.16207,0.0018953
1321.19770,0.0019036
1320.23332,0.0019171
1319.26894,0.0019338
1318.30456,0.0019402
1317.34018,0.0019384
1316.37581,0.0019256
1315.41143,0.0019078
1314.44705,0.0018934
1313.48267,0.0018792
1312.51829,0.0018625
1311.55392,0.0018488
1310.58954,0.0018462
1309.62516,0.0018405
1308.66078,0.0018345
1307.69641,0.0018343
1306.73203,0.0018237
1305.76765,0.0018068
1304.80327,0.0017883
1303.83889,0.0017748
1302.87452,0.0017687
1301.91014,0.0017668
1300.94576,0.0017721
1299.98138,0.0017838
1299.01700,0.0017996
1298.05263,0.0018015
1297.08825,0.0018010
1296.12387,0.0018161
1295.15949,0.0018256
1294.19512,0.0018225
1293.23074,0.0018090
1292.26636,0.0017909
1291.30198,0.0017775
1290.33760,0.0017785
1289.37323,0.0017977
1288.40885,0.0018183
1287.44447,0.0018293
1286.48009,0.0018256
1285.51571,0.0018181
1284.55134,0.0018186
1283.58696,0.0018168
1282.62258,0.0018066
1281.65820,0.0017935
1280.69382,0.0017867
1279.72945,0.0017872
1278.76507,0.0017941
1277.80069,0.0018091
1276.83631,0.0018245
1275.87194,0.0018297
1274.90756,0.0018276
1273.94318,0.0018310
1272.97880,0.0018400
1272.01442,0.0018509
1271.05005,0.0018655
1270.08567,0.0018849
1269.12129,0.0019058
1268.15691,0.0019153
1267.19253,0.0019067
1266.22816,0.0018916
1265.26378,0.0018771
1264.29940,0.0018563
1263.33502,0.0018427
1262.37065,0.0018435
1261.40627,0.0018384
1260.44189,0.0018287
1259.47751,0.0018297
1258.51313,0.0018466
1257.54876,0.0018632
1256.58438,0.0018621
1255.62000,0.0018506
1254.65562,0.0018363
1253.69124,0.0018234
1252.72687,0.0018191
1251.76249,0.0018303
1250.79811,0.0018423
1249.83373,0.0018405
1248.86935,0.0018348
1247.90498,0.0018349
1246.94060,0.0018467
1245.97622,0.0018508
1245.01184,0.0018370
1244.04747,0.0018203
1243.08309,0.0018015
1242.11871,0.0017880
1241.15433,0.0017807
1240.18995,0.0017727
1239.22558,0.0017650
1238.26120,0.0017606
1237.29682,0.0017629
1236.33244,0.0017736
1235.36806,0.0017960
1234.40369,0.0018152
1233.43931,0.0018181
1232.47493,0.0018142
1231.51055,0.0018177
1230.54618,0.0018267
1229.58180,0.0018202
1228.61742,0.0018010
1227.65304,0.0017842
1226.68866,0.0017713
1225.72429,0.0017648
1224.75991,0.0017662
1223.79553,0.0017698
1222.83115,0.0017661
1221.86677,0.0017540
1220.90240,0.0017350
1219.93802,0.0017201
1218.97364,0.0017144
1218.00926,0.0017032
1217.04488,0.0016854
1216.08051,0.0016743
1215.11613,0.0016796
1214.15175,0.0016887
1213.18737,0.0016927
1212.22300,0.0017005
1211.25862,0.0017082
1210.29424,0.0017150
1209.32986,0.0017146
1208.36548,0.0017117
1207.40111,0.0017246
1206.43673,0.0017356
1205.47235,0.0017321
1204.50797,0.0017276
1203.54359,0.0017244
1202.57922,0.0017162
1201.61484,0.0017063
1200.65046,0.0017116
1199.68608,0.0017293
1198.72171,0.0017477
1197.75733,0.0017608
1196.79295,0.0017696
1195.82857,0.0017872
1194.86419,0.0017984
1193.89982,0.0017936
1192.93544,0.0017869
1191.97106,0.0017734
1191.00668,0.0017584
1190.04230,0.0017529
1189.07793,0.0017620
1188.11355,0.0017815
1187.14917,0.0017960
1186.18479,0.0018085
1185.22041,0.0018262
1184.25604,0.0018498
1183.29166,0.0018669
1182.32728,0.0018717
1181.36290,0.0018859
1180.39853,0.0019086
1179.43415,0.0019346
1178.46977,0.0019658
1177.50539,0.0019868
1176.54101,0.0019998
1175.57664,0.0020160
1174.61226,0.0020321
1173.64788,0.0020434
1172.68350,0.0020438
1171.71912,0.0020333
1170.75475,0.0020359
1169.79037,0.0020636
1168.82599,0.0020961
1167.86161,0.0021269
1166.89724,0.0021589
1165.93286,0.0021809
1164.96848,0.0021978
1164.00410,0.0022116
1163.03972,0.0022090
1162.07535,0.0021961
1161.11097,0.0021815
1160.14659,0.0021818
1159.18221,0.0022101
1158.21783,0.0022365
1157.25346,0.0022533
1156.28908,0.0022791
1155.32470,0.0023030
1154.36032,0.0023146
1153.39594,0.0023225
1152.43157,0.0023221
1151.46719,0.0023093
1150.50281,0.0022893
1149.53843,0.0022621
1148.57406,0.0022496
1147.60968,0.0022646
1146.64530,0.0022859
1145.68092,0.0022966
1144.71654,0.0022921
1143.75217,0.0022859
1142.78779,0.0022918
1141.82341,0.0023139
1140.85903,0.0023353
1139.89465,0.0023384
1138.93028,0.0023279
1137.96590,0.0023124
1137.00152,0.0023204
1136.03714,0.0023583
1135.07276,0.0023945
1134.10839,0.0024094
1133.14401,0.0024204
1132.17963,0.0024517
1131.21525,0.0024905
1130.25088,0.0025169
1129.28650,0.0025112
1128.32212,0.0024869
1127.35774,0.0024645
1126.39336,0.0024446
1125.42899,0.0024456
1124.46461,0.0024534
1123.50023,0.0024552
1122.53585,0.0024633
1121.57147,0.0024938
1120.60710,0.0025439
1119.64272,0.0025836
1118.67834,0.0026101
1117.71396,0.0026249
1116.74959,0.0026396
1115.78521,0.0026472
1114.82083,0.0026269
1113.85645,0.0025910
1112.89207,0.0025515
1111.92770,0.0025306
1110.96332,0.0025237
1109.99894,0.0025266
1109.03456,0.0025438
1108.07018,0.0025671
1107.10581,0.0025958
1106.14143,0.0026077
1105.17705,0.0026121
1104.21267,0.0026158
1103.24829,0.0026018
1102.28392,0.0025942
1101.31954,0.0026123
1100.35516,0.0026444
1099.39078,0.0026595
1098.42641,0.0026524
1097.46203,0.0026488
1096.49765,0.0026505
1095.53327,0.0026348
1094.56889,0.0026112
1093.60452,0.0026100
1092.64014,0.0026217
1091.67576,0.0026385
1090.71138,0.0026560
1089.74700,0.0026640
1088.78263,0.0026657
1087.81825,0.0026505
1086.85387,0.0026173
1085.88949,0.0025827
1084.92512,0.0025587
1083.96074,0.0025511
1082.99636,0.0025611
1082.03198,0.0025890
1081.06760,0.0026334
1080.10323,0.0026720
1079.13885,0.0026785
1078.17447,0.0026722
1077.21009,0.0026738
1076.24571,0.0026604
1075.28134,0.0026228
1074.31696,0.0025923
1073.35258,0.0025999
1072.38820,0.0026334
1071.42382,0.0026643
1070.45945,0.0027099
1069.49507,0.0027729
1068.53069,0.0028069
1067.56631,0.0028076
1066.60194,0.0027914
1065.63756,0.0027704
1064.67318,0.0027521
1063.70880,0.0027362
1062.74442,0.0027448
1061.78005,0.0027692
1060.81567,0.0027907
1059.85129,0.0028103
1058.88691,0.0028402
1057.92253,0.0028806
1056.95816,0.0028987
1055.99378,0.0028967
1055.02940,0.0028775
1054.06502,0.0028603
1053.10065,0.0028674
1052.13627,0.0028740
1051.17189,0.0028825
1050.20751,0.0028896
1049.24313,0.0028964
1048.27876,0.0028955
1047.31438,0.0028753
1046.35000,0.0028574
1045.38562,0.0028356
1044.42124,0.0028184
1043.45687,0.0028112
1042.49249,0.0028148
1041.52811,0.0028367
1040.56373,0.0028565
1039.59935,0.0028737
1038.63498,0.0028933
1037.67060,0.0029141
1036.70622,0.0029152
1035.74184,0.0028977
1034.77747,0.0028876
1033.81309,0.0028783
1032.84871,0.0028771
1031.88433,0.0028730
1030.91995,0.0028619
1029.95558,0.0028607
1028.99120,0.0028598
1028.02682,0.0028695
1027.06244,0.0028932
1026.09806,0.0029205
1025.13369,0.0029417
1024.16931,0.0029479
1023.20493,0.0029458
1022.24055,0.0029377
1021.27618,0.0029122
1020.31180,0.0028611
1019.34742,0.0028089
1018.38304,0.0027703
1017.41866,0.0027411
1016.45429,0.0027298
1015.48991,0.0027238
1014.52553,0.0027173
1013.56115,0.0027161
1012.59677,0.0027066
1011.63240,0.0026943
1010.66802,0.0026863
1009.70364,0.0026683
1008.73926,0.0026315
1007.77488,0.0025827
1006.81051,0.0025456
1005.84613,0.0025235
1004.88175,0.0025026
1003.91737,0.0024928
1002.95300,0.0024964
1001.98862,0.0025041
1001.02424,0.0025158
1000.05986,0.0025296
999.09548,0.0025388
998.13111,0.0025266
997.16673,0.0024901
996.20235,0.0024609
995.23797,0.0024531
994.27359,0.0024488
993.30922,0.0024464
992.34484,0.0024534
991.38046,0.0024542
990.41608,0.0024296
989.45171,0.0023919
988.48733,0.0023613
987.52295,0.0023318
986.55857,0.0022998
985.59419,0.0022825
984.62982,0.0022814
983.66544,0.0022621
982.70106,0.0022292
981.73668,0.0022256
980.77230,0.0022404
979.80793,0.0022518
978.84355,0.0022537
977.87917,0.0022438
976.91479,0.0022300
975.95041,0.0022000
974.98604,0.0021571
974.02166,0.0021347
973.05728,0.0021240
972.09290,0.0020726
971.12853,0.0020124
970.16415,0.0020062
969.19977,0.0020274
968.23539,0.0020599
967.27101,0.0021010
966.30664,0.0021112
965.34226,0.0020665
964.37788,0.0020022
963.41350,0.0019707
962.44912,0.0019742
961.48475,0.0019945
960.52037,0.0020045
959.55599,0.0020070
958.59161,0.0020277
957.62724,0.0020591
956.66286,0.0020974
955.69848,0.0021347
954.73410,0.0021338
953.76972,0.0020846
952.80535,0.0020386
951.84097,0.0020120
950.87659,0.0019911
949.91221,0.0019847
948.94783,0.0019667
947.98346,0.0019431
947.01908,0.0019336
946.05470,0.0019239
945.09032,0.0019331
944.12594,0.0019598
943.16157,0.0019764
942.19719,0.0019980
941.23281,0.0020363
940.26843,0.0020710
939.30406,0.0020973
938.33968,0.0021001
937.37530,0.0020836
936.41092,0.0020772
935.44654,0.0020524
934.48217,0.0020027
933.51779,0.0019600
932.55341,0.0019302
931.58903,0.0019170
930.62465,0.0019235
929.66028,0.0019247
928.69590,0.0019033
927.73152,0.0018842
926.76714,0.0018824
925.80276,0.0019020
924.83839,0.0019206
923.87401,0.0019336
922.90963,0.0019548
921.94525,0.0019573
920.98088,0.0019675
920.01650,0.0019953
919.05212,0.0020082
918.08774,0.0020018
917.12336,0.0019704
916.15899,0.0019263
915.19461,0.0018699
914.23023,0.0018278
913.26585,0.0018337
912.30147,0.0018720
911.33710,0.0019094
910.37272,0.0019293
909.40834,0.0019597
908.44396,0.0019858
907.47959,0.0019877
906.51521,0.0019966
905.55083,0.0020039
904.58645,0.0019707
903.62207,0.0019075
902.65770,0.0018787
901.69332,0.0019127
900.72894,0.0019484
899.76456,0.0019384
898.80018,0.0019234
897.83581,0.0019149
896.87143,0.0019080
895.90705,0.0019247
894.94267,0.0019752
893.97829,0.0020541
893.01392,0.0020947
892.04954,0.0020902
891.08516,0.0020793
890.12078,0.0020632
889.15641,0.0020290
888.19203,0.0019495
887.22765,0.0018905
886.26327,0.0018744
885.29889,0.0018722
884.33452,0.0018908
883.37014,0.0019173
882.40576,0.0019644
881.44138,0.0019868
880.47700,0.0019706
879.51263,0.0019656
878.54825,0.0019804
877.58387,0.0019944
876.61949,0.0019662
875.65512,0.0019255
874.69074,0.0018972
873.72636,0.0018748
872.76198,0.0018540
871.79760,0.0018199
870.83323,0.0017764
869.86885,0.0017268
868.90447,0.0017350
867.94009,0.0018066
866.97571,0.0018645
866.01134,0.0019039
865.04696,0.0019348
864.08258,0.0019636
863.11820,0.0019935
862.15382,0.0020166
861.18945,0.0020327
860.22507,0.0020377
859.26069,0.0020200
858.29631,0.0020054
857.33194,0.0020277
856.36756,0.0020354
855.40318,0.0020032
854.43880,0.0019712
853.47442,0.0019584
852.51005,0.0019515
851.54567,0.0019181
850.58129,0.0018723
849.61691,0.0018517
848.65253,0.0018550
847.68816,0.0018633
846.72378,0.0018656
845.75940,0.0018614
844.79502,0.0018602
843.83065,0.0018630
842.86627,0.0018705
841.90189,0.0019039
840.93751,0.0019280
839.97313,0.0019050
839.00876,0.0018839
838.04438,0.0018851
837.08000,0.0019054
836.11562,0.0019352
835.15124,0.0019326
834.18687,0.0019156
833.22249,0.0019164
832.25811,0.0019214
831.29373,0.0019430
830.32935,0.0019641
829.36498,0.0019260
828.40060,0.0018611
827.43622,0.0018291
826.47184,0.0018155
825.50747,0.0018110
824.54309,0.0018077
823.57871,0.0017731
822.61433,0.0017215
821.64995,0.0016979
820.68558,0.0017016
819.72120,0.0017164
818.75682,0.0017248
817.79244,0.0017210
816.82806,0.0017385
815.86369,0.0017566
814.89931,0.0017655
813.93493,0.0018085
812.97055,0.0018634
812.00618,0.0019135
811.04180,0.0019592
810.07742,0.0019823
809.11304,0.0019729
808.14866,0.0019449
807.18429,0.0019406
806.21991,0.0019502
805.25553,0.0019367
804.29115,0.0018976
803.32677,0.0018659
802.36240,0.0018660
801.39802,0.0018859
800.43364,0.0019218
799.46926,0.0019310
798.50488,0.0018816
797.54051,0.0018273
796.57613,0.0018041
795.61175,0.0017844
794.64737,0.0017501
793.68300,0.0017169
792.71862,0.0016788
791.75424,0.0016382
790.78986,0.0016271
789.82548,0.0016768
788.86111,0.0017582
787.89673,0.0018168
786.93235,0.0018780
785.96797,0.0019504
785.00359,0.0020157
784.03922,0.0020524
783.07484,0.0020394
782.11046,0.0019922
781.14608,0.0019054
780.18171,0.0018301
779.21733,0.0018144
778.25295,0.0018276
777.28857,0.0018396
776.32419,0.0018404
775.35982,0.0018688
774.39544,0.0019359
773.43106,0.0020208
772.46668,0.0020865
771.50230,0.0020971
770.53793,0.0020806
769.57355,0.0020661
768.60917,0.0020779
767.64479,0.0021072
766.68041,0.0021306
765.71604,0.0021454
764.75166,0.0021457
763.78728,0.0021597
762.82290,0.0021758
761.85853,0.0021444
760.89415,0.0020735
759.92977,0.0019967
758.96539,0.0019219
758.00101,0.0018589
757.03664,0.0018353
756.07226,0.0018511
755.10788,0.0018961
754.14350,0.0019763
753.17912,0.0020710
752.21475,0.0021445
751.25037,0.0022115
750.28599,0.0022877
749.32161,0.0023503
748.35724,0.0023841
747.39286,0.0023696
746.42848,0.0023117
745.46410,0.0022383
744.49972,0.0021714
743.53535,0.0021206
742.57097,0.0020893
741.60659,0.0020792
740.64221,0.0020555
739.67783,0.0020609
738.71346,0.0021387
737.74908,0.0022191
736.78470,0.0022704
735.82032,0.0022947
734.85594,0.0022945
733.89157,0.0022869
732.92719,0.0022930
731.96281,0.0022777
730.99843,0.0022016
730.03406,0.0021421
729.06968,0.0021229
728.10530,0.0021115
727.14092,0.0021183
726.17654,0.0021338
725.21217,0.0021658
724.24779,0.0022000
723.28341,0.0022235
722.31903,0.0022630
721.35465,0.0022945
720.39028,0.0022877
719.42590,0.0022593
718.46152,0.0022686
717.49714,0.0023293
716.53276,0.0023654
715.56839,0.0023679
714.60401,0.0023953
713.63963,0.0024359
712.67525,0.0024212
711.71088,0.0023589
710.74650,0.0023178
709.78212,0.0022881
708.81774,0.0022447
707.85336,0.0021973
706.88899,0.0021523
705.92461,0.0021352
704.96023,0.0021379
703.99585,0.0021534
703.03147,0.0021921
702.06710,0.0022023
701.10272,0.0021689
700.13834,0.0021497
699.17396,0.0021620
698.20959,0.0021837
697.24521,0.0022000
696.28083,0.0021989
695.31645,0.0021873
694.35207,0.0021856
693.38770,0.0021910
692.42332,0.0022105
691.45894,0.0022349
690.49456,0.0022193
689.53018,0.0021914
688.56581,0.0021897
687.60143,0.0021875
686.63705,0.0021924
685.67267,0.0021997
684.70829,0.0021815
683.74392,0.0021744
682.77954,0.0021916
681.81516,0.0021979
680.85078,0.0021941
679.88641,0.0021750
678.92203,0.0021315
677.95765,0.0020980
676.99327,0.0020878
676.02889,0.0020829
675.06452,0.0020701
674.10014,0.0020596
673.13576,0.0021402
672.17138,0.0022974
671.20700,0.0024202
670.24263,0.0024943
669.27825,0.0025415
668.31387,0.0025481
667.34949,0.0025194
666.38512,0.0024603
665.42074,0.0023677
664.45636,0.0022577
663.49198,0.0021640
662.52760,0.0021447
661.56323,0.0022192
660.59885,0.0022787
659.63447,0.0022860
658.67009,0.0022887
657.70571,0.0022809
656.74134,0.0022569
655.77696,0.0022333
654.81258,0.0021942
653.84820,0.0021290
652.88382,0.0020842
651.91945,0.0020752
650.95507,0.0020748
649.99069,0.0020942
649.02631,0.0021273
648.06194,0.0021388
647.09756,0.0021027
646.13318,0.0020714
645.16880,0.0021250
644.20442,0.0022126
643.24005,0.0022600
642.27567,0.0022759
641.31129,0.0022880
640.34691,0.0022812
639.38253,0.0022742
638.41816,0.0023101
637.45378,0.0023404
636.48940,0.0023401
635.52502,0.0022943
634.56065,0.0022223
633.59627,0.0021784
632.63189,0.0020782
631.66751,0.0019926
630.70313,0.0019352
629.73876,0.0017826
628.77438,0.0017583
627.81000,0.0017449
626.84562,0.0017797
625.88124,0.0017791
624.91687,0.0014228
623.95249,0.0008328
622.98811,0.0003085
622.02373,0.0003715
621.05935,0.0009228
620.09498,0.0015245
619.13060,0.0019788
618.16622,0.0026187
617.20184,0.0036760
616.23747,0.0047352
615.27309,0.0059300
614.30871,0.0066514
613.34433,0.0067994
612.37995,0.0066801
611.41558,0.0063532
610.45120,0.0062553
609.48682,0.0058181
608.52244,0.0048419
607.55806,0.0038553
606.59369,0.0033019
605.62931,0.0030601
604.66493,0.0028859
603.70055,0.0030216
602.73618,0.0032202
601.77180,0.0035188
600.80742,0.0036336
599.84304,0.0034616
598.87866,0.0033000
597.91429,0.0029841
596.94991,0.0027132
595.98553,0.0025846
595.02115,0.0025390
594.05677,0.0025051
593.09240,0.0023731
592.12802,0.0023602
591.16364,0.0024691
590.19926,0.0024852
589.23488,0.0023811
588.27051,0.0022985
587.30613,0.0023012
586.34175,0.0022973
585.37737,0.0022613
584.41300,0.0022667
583.44862,0.0023524
582.48424,0.0024010
581.51986,0.0023792
580.55548,0.0023766
579.59111,0.0023333
578.62673,0.0022153
577.66235,0.0021094
576.69797,0.0020764
575.73359,0.0020741
574.76922,0.0020553
573.80484,0.0020456
572.84046,0.0020261
571.87608,0.0019637
570.91171,0.0019269
569.94733,0.0020248
568.98295,0.0021832
568.01857,0.0022537
567.05419,0.0023042
566.08982,0.0024067
565.12544,0.0025122
564.16106,0.0026226
563.19668,0.0027091
562.23230,0.0026921
561.26793,0.0025782
560.30355,0.0024636
559.33917,0.0024556
558.37479,0.0024783
557.41041,0.0023674
556.44604,0.0021690
555.48166,0.0020486
554.51728,0.0020667
553.55290,0.0021388
552.58853,0.0021781
551.62415,0.0021626
550.65977,0.0021848
549.69539,0.0023097
548.73101,0.0024244
547.76664,0.0024714
546.80226,0.0024075
545.83788,0.0022626
544.87350,0.0021832
543.90912,0.0022093
542.94475,0.0023255
541.98037,0.0024349
541.01599,0.0024513
540.05161,0.0024015
539.08724,0.0023913
538.12286,0.0024475
537.15848,0.0024124
536.19410,0.0022847
535.22972,0.0021735
534.26535,0.0020994
533.30097,0.0021009
532.33659,0.0021884
531.37221,0.0022747
530.40783,0.0022782
529.44346,0.0021941
528.47908,0.0020516
527.51470,0.0019479
526.55032,0.0019306
525.58594,0.0019057
524.62157,0.0018508
523.65719,0.0018368
522.69281,0.0018329
521.72843,0.0018497
520.76406,0.0019319
519.79968,0.0019519
518.83530,0.0019293
517.87092,0.0019337
516.90654,0.0019043
515.94217,0.0018638
514.97779,0.0018563
514.01341,0.0019213
513.04903,0.0020264
512.08465,0.0021325
511.12028,0.0021903
510.15590,0.0022146
509.19152,0.0022701
508.22714,0.0022783
507.26276,0.0022893
506.29839,0.0022749
505.33401,0.0021537
504.36963,0.0020317
503.40525,0.0019930
502.44088,0.0020939
501.47650,0.0022679
500.51212,0.0024086
499.54774,0.0024817
498.58336,0.0025691
497.61899,0.0026357
496.65461,0.0025852
495.69023,0.0025520
494.72585,0.0025343
493.76147,0.0024967
492.79710,0.0024466
491.83272,0.0024035
490.86834,0.0023780
489.90396,0.0022793
488.93959,0.0021600
487.97521,0.0020769
487.01083,0.0020395
486.04645,0.0019515
485.08207,0.0018402
484.11770,0.0018102
483.15332,0.0017643
482.18894,0.0017816
481.22456,0.0018716
480.26018,0.0019748
479.29581,0.0020380
478.33143,0.0020263
477.36705,0.0020984
476.40267,0.0022184
475.43829,0.0022715
474.47392,0.0022456
473.50954,0.0022318
472.54516,0.0021820
471.58078,0.0020402
470.61641,0.0019776
469.65203,0.0019621
468.68765,0.0020021
467.72327,0.0021214
466.75889,0.0022696
465.79452,0.0024295
464.83014,0.0024961
463.86576,0.0025151
462.90138,0.0025265
461.93700,0.0025220
460.97263,0.0024613
460.00825,0.0022963
459.04387,0.0021091
458.07949,0.0019519
457.11512,0.0018968
456.15074,0.0019465
455.18636,0.0019860
454.22198,0.0019288
453.25760,0.0017846
452.29323,0.0016493
451.32885,0.0015672
450.36447,0.0015325
449.40009,0.0015525
448.43571,0.0016363
447.47134,0.0017685
446.50696,0.0019398
445.54258,0.0021674
444.57820,0.0024309
443.61382,0.0025938
442.64945,0.0025879
441.68507,0.0025003
440.72069,0.0023918
439.75631,0.0023321
438.79194,0.0022936
437.82756,0.0022385
436.86318,0.0022185
435.89880,0.0022093
434.93442,0.0022304
433.97005,0.0022757
433.00567,0.0022730
432.04129,0.0022033
431.07691,0.0021511
430.11253,0.0021760
429.14816,0.0022156
428.18378,0.0022893
427.21940,0.0023419
426.25502,0.0023010
425.29065,0.0022847
424.32627,0.0023586
423.36189,0.0024539
422.39751,0.0025188
421.43313,0.0025933
420.46876,0.0026896
419.50438,0.0027760
418.54000,0.0028055
417.57562,0.0027583
416.61124,0.0026436
415.64687,0.0024045
414.68249,0.0021496
413.71811,0.0020115
412.75373,0.0019143
411.78935,0.0018348
410.82498,0.0018306
409.86060,0.0019001
408.89622,0.0019726
407.93184,0.0020354
406.96747,0.0021365
406.00309,0.0022076
405.03871,0.0022065
404.07433,0.0022065
403.10995,0.0022065
402.14558,0.0022065
401.18120,0.0022065
400.21682,0.0022065
399.25244,0.0022065
