3998.31069,-0.0074104
3997.34631,-0.0074104
3996.38194,-0.0074104
3995.41756,-0.0074104
3994.45318,-0.0074104
3993.48880,-0.0074104
3992.52442,-0.0074104
3991.56005,-0.0073944
3990.59567,-0.0073281
3989.63129,-0.0072830
3988.66691,-0.0071820
3987.70253,-0.0070555
3986.73816,-0.0069479
3985.77378,-0.0068292
3984.80940,-0.0067968
3983.84502,-0.0068461
3982.88065,-0.0068972
3981.91627,-0.0069493
3980.95189,-0.0070208
3979.98751,-0.0070712
3979.02313,-0.0070712
3978.05876,-0.0070974
3977.09438,-0.0071300
3976.13000,-0.0071178
3975.16562,-0.0071068
3974.20124,-0.0071076
3973.23687,-0.0071281
3972.27249,-0.0071359
3971.30811,-0.0070732
3970.34373,-0.0069995
3969.37935,-0.0069630
3968.41498,-0.0069140
3967.45060,-0.0068597
3966.48622,-0.0068615
3965.52184,-0.0068823
3964.55747,-0.0068910
3963.59309,-0.0069387
3962.62871,-0.0069758
3961.66433,-0.0069563
3960.69995,-0.0068873
3959.73558,-0.0067295
3958.77120,-0.0065723
3957.80682,-0.0065081
3956.84244,-0.0065141
3955.87806,-0.0065913
3954.91369,-0.0066894
3953.94931,-0.0067797
3952.98493,-0.0068813
3952.02055,-0.0069639
3951.05618,-0.0070121
3950.09180,-0.0070023
3949.12742,-0.0069329
3948.16304,-0.0068466
3947.19866,-0.0067925
3946.23429,-0.0067863
3945.26991,-0.0067684
3944.30553,-0.0067452
3943.34115,-0.0067298
3942.37677,-0.0066901
3941.41240,-0.0066861
3940.44802,-0.0067384
3939.48364,-0.0067633
3938.51926,-0.0067395
3937.55488,-0.0067423
3936.59051,-0.0067478
3935.62613,-0.0067054
3934.66175,-0.0066688
3933.69737,-0.0066377
3932.73300,-0.0066634
3931.76862,-0.0067715
3930.80424,-0.0068367
3929.83986,-0.0068705
3928.87548,-0.0069463
3927.91111,-0.0069918
3926.94673,-0.0069835
3925.98235,-0.0069527
3925.01797,-0.0068271
3924.05359,-0.0066771
3923.08922,-0.0065929
3922.12484,-0.0064843
3921.16046,-0.0063898
3920.19608,-0.0063488
3919.23171,-0.0063122
3918.26733,-0.0063264
3917.30295,-0.0064329
3916.33857,-0.0065361
3915.37419,-0.0065629
3914.40982,-0.0065628
3913.44544,-0.0065500
3912.48106,-0.0065900
3911.51668,-0.0066604
3910.55230,-0.0066624
3909.58793,-0.0066406
3908.62355,-0.0065821
3907.65917,-0.0065104
3906.69479,-0.0064560
3905.73041,-0.0064057
3904.76604,-0.0063752
3903.80166,-0.0063333
3902.83728,-0.0063042
3901.87290,-0.0063111
3900.90853,-0.0063854
3899.94415,-0.0064858
3898.97977,-0.0065333
3898.01539,-0.0065693
3897.05101,-0.0065663
3896.08664,-0.0065206
3895.12226,-0.0065047
3894.15788,-0.0065433
3893.19350,-0.0065936
3892.22912,-0.0065822
3891.26475,-0.0064967
3890.30037,-0.0063538
3889.33599,-0.0062220
3888.37161,-0.0061223
3887.40724,-0.0060556
3886.44286,-0.0060813
3885.47848,-0.0061360
3884.51410,-0.0061845
3883.54972,-0.0063112
3882.58535,-0.0064850
3881.62097,-0.0065878
3880.65659,-0.0065975
3879.69221,-0.0065494
3878.72783,-0.0064441
3877.76346,-0.0063442
3876.79908,-0.0063172
3875.83470,-0.0063146
3874.87032,-0.0062978
3873.90594,-0.0062830
3872.94157,-0.0063001
3871.97719,-0.0063504
3871.01281,-0.0063775
3870.04843,-0.0063553
3869.08406,-0.0062852
3868.11968,-0.0061979
3867.15530,-0.0061450
3866.19092,-0.0061714
3865.22654,-0.0062627
3864.26217,-0.0062989
3863.29779,-0.0062824
3862.33341,-0.0062982
3861.36903,-0.0063543
3860.40465,-0.0064237
3859.44028,-0.0064114
3858.47590,-0.0063226
3857.51152,-0.0061909
3856.54714,-0.0060158
3855.58276,-0.0058765
3854.61839,-0.0058413
3853.65401,-0.0058683
3852.68963,-0.0058645
3851.72525,-0.0058772
3850.76088,-0.0059665
3849.79650,-0.0060972
3848.83212,-0.0062037
3847.86774,-0.0062308
3846.90336,-0.0062669
3845.93899,-0.0062778
3844.97461,-0.0061606
3844.01023,-0.0060538
3843.04585,-0.0060416
3842.08147,-0.0059961
3841.11710,-0.0058759
3840.15272,-0.0057836
3839.18834,-0.0057623
3838.22396,-0.0057910
3837.25959,-0.0058307
3836.29521,-0.0058802
3835.33083,-0.0059646
3834.36645,-0.0060018
3833.40207,-0.0059837
3832.43770,-0.0059912
3831.47332,-0.0059817
3830.50894,-0.0059362
3829.54456,-0.0058831
3828.58018,-0.0058186
3827.61581,-0.0058156
3826.65143,-0.0058665
3825.68705,-0.0058803
3824.72267,-0.0058521
3823.75829,-0.0057966
3822.79392,-0.0057827
3821.82954,-0.0058263
3820.86516,-0.0058391
3819.90078,-0.0058291
3818.93641,-0.0058351
3817.97203,-0.0058503
3817.00765,-0.0058520
3816.04327,-0.0058632
3815.07889,-0.0058962
3814.11452,-0.0059232
3813.15014,-0.0059233
3812.18576,-0.0059137
3811.22138,-0.0059534
3810.25700,-0.0059666
3809.29263,-0.0058970
3808.32825,-0.0058356
3807.36387,-0.0058177
3806.39949,-0.0058038
3805.43512,-0.0057388
3804.47074,-0.0056840
3803.50636,-0.0056835
3802.54198,-0.0056983
3801.57760,-0.0056922
3800.61323,-0.0056173
3799.64885,-0.0055557
3798.68447,-0.0055449
3797.72009,-0.0055639
3796.75571,-0.0056332
3795.79134,-0.0056769
3794.82696,-0.0056661
3793.86258,-0.0056782
3792.89820,-0.0057592
3791.93382,-0.0058322
3790.96945,-0.0058650
3790.00507,-0.0058672
3789.04069,-0.0057984
3788.07631,-0.0057540
3787.11194,-0.0057250
3786.14756,-0.0056761
3785.18318,-0.0056577
3784.21880,-0.0056531
3783.25442,-0.0057241
3782.29005,-0.0058214
3781.32567,-0.0059063
3780.36129,-0.0059987
3779.39691,-0.0060258
3778.43253,-0.0060458
3777.46816,-0.0060958
3776.50378,-0.0061470
3775.53940,-0.0061818
3774.57502,-0.0062036
3773.61065,-0.0062172
3772.64627,-0.0061961
3771.68189,-0.0061478
3770.71751,-0.0060080
3769.75313,-0.0058352
3768.78876,-0.0057144
3767.82438,-0.0056015
3766.86000,-0.0055591
3765.89562,-0.0056058
3764.93124,-0.0057070
3763.96687,-0.0058316
3763.00249,-0.0059378
3762.03811,-0.0059743
3761.07373,-0.0059261
3760.10935,-0.0058745
3759.14498,-0.0058006
3758.18060,-0.0056977
3757.21622,-0.0055812
3756.25184,-0.0054276
3755.28747,-0.0052698
3754.32309,-0.0051094
3753.35871,-0.0049705
3752.39433,-0.0048945
3751.42995,-0.0049062
3750.46558,-0.0049345
3749.50120,-0.0049023
3748.53682,-0.0049290
3747.57244,-0.0050530
3746.60806,-0.0051680
3745.64369,-0.0052321
3744.67931,-0.0053409
3743.71493,-0.0054750
3742.75055,-0.0055260
3741.78618,-0.0055455
3740.82180,-0.0055560
3739.85742,-0.0055282
3738.89304,-0.0054545
3737.92866,-0.0053465
3736.96429,-0.0052739
3735.99991,-0.0052264
3735.03553,-0.0051688
3734.07115,-0.0051541
3733.10677,-0.0052271
3732.14240,-0.0053037
3731.17802,-0.0053261
3730.21364,-0.0053193
3729.24926,-0.0053016
3728.28488,-0.0053094
3727.32051,-0.0053609
3726.35613,-0.0054437
3725.39175,-0.0054496
3724.42737,-0.0053156
3723.46300,-0.0051674
3722.49862,-0.0051068
3721.53424,-0.0051580
3720.56986,-0.0052950
3719.60548,-0.0054350
3718.64111,-0.0055582
3717.67673,-0.0057124
3716.71235,-0.0058296
3715.74797,-0.0058254
3714.78359,-0.0057860
3713.81922,-0.0056866
3712.85484,-0.0054583
3711.89046,-0.0052257
3710.92608,-0.0050706
3709.96171,-0.0050204
3708.99733,-0.0050656
3708.03295,-0.0051343
3707.06857,-0.0051814
3706.10419,-0.0051869
3705.13982,-0.0051639
3704.17544,-0.0051277
3703.21106,-0.0051464
3702.24668,-0.0052389
3701.28230,-0.0052879
3700.31793,-0.0052775
3699.35355,-0.0052577
3698.38917,-0.0052761
3697.42479,-0.0053411
3696.46041,-0.0053492
3695.49604,-0.0052732
3694.53166,-0.0051724
3693.56728,-0.0050613
3692.60290,-0.0049574
3691.63853,-0.0049566
3690.67415,-0.0050794
3689.70977,-0.0051876
3688.74539,-0.0052468
3687.78101,-0.0052958
3686.81664,-0.0053647
3685.85226,-0.0054964
3684.88788,-0.0056391
3683.92350,-0.0057335
3682.95912,-0.0057607
3681.99475,-0.0057292
3681.03037,-0.0056867
3680.06599,-0.0056371
3679.10161,-0.0055594
3678.13724,-0.0054574
3677.17286,-0.0053564
3676.20848,-0.0052674
3675.24410,-0.0052011
3674.27972,-0.0051718
3673.31535,-0.0051801
3672.35097,-0.0051732
3671.38659,-0.0051467
3670.42221,-0.0051566
3669.45783,-0.0051215
3668.49346,-0.0050303
3667.52908,-0.0049870
3666.56470,-0.0050204
3665.60032,-0.0051397
3664.63594,-0.0052739
3663.67157,-0.0053627
3662.70719,-0.0054364
3661.74281,-0.0055401
3660.77843,-0.0056154
3659.81406,-0.0055812
3658.84968,-0.0054880
3657.88530,-0.0053396
3656.92092,-0.0051959
3655.95654,-0.0051240
3654.99217,-0.0050750
3654.02779,-0.0050151
3653.06341,-0.0048957
3652.09903,-0.0047839
3651.13465,-0.0047356
3650.17028,-0.0047469
3649.20590,-0.0048046
3648.24152,-0.0048317
3647.27714,-0.0048464
3646.31276,-0.0048596
3645.34839,-0.0048967
3644.38401,-0.0049662
3643.41963,-0.0050068
3642.45525,-0.0049920
3641.49088,-0.0049360
3640.52650,-0.0049329
3639.56212,-0.0049507
3638.59774,-0.0049694
3637.63336,-0.0050361
3636.66899,-0.0050743
3635.70461,-0.0050342
3634.74023,-0.0049151
3633.77585,-0.0047591
3632.81147,-0.0045854
3631.84710,-0.0044478
3630.88272,-0.0043669
3629.91834,-0.0043317
3628.95396,-0.0043893
3627.98959,-0.0044286
3627.02521,-0.0044509
3626.06083,-0.0045256
3625.09645,-0.0045701
3624.13207,-0.0045855
3623.16770,-0.0046077
3622.20332,-0.0046123
3621.23894,-0.0045771
3620.27456,-0.0045754
3619.31018,-0.0046148
3618.34581,-0.0046613
3617.38143,-0.0046868
3616.41705,-0.0046424
3615.45267,-0.0046106
3614.48829,-0.0045780
3613.52392,-0.0045127
3612.55954,-0.0044872
3611.59516,-0.0044920
3610.63078,-0.0044806
3609.66641,-0.0044398
3608.70203,-0.0044326
3607.73765,-0.0044793
3606.77327,-0.0045202
3605.80889,-0.0045153
3604.84452,-0.0045541
3603.88014,-0.0046547
3602.91576,-0.0046721
3601.95138,-0.0046576
3600.98700,-0.0046761
3600.02263,-0.0046943
3599.05825,-0.0046850
3598.09387,-0.0046135
3597.12949,-0.0045420
3596.16512,-0.0045190
3595.20074,-0.0045414
3594.23636,-0.0045736
3593.27198,-0.0046058
3592.30760,-0.0045917
3591.34323,-0.0044832
3590.37885,-0.0044011
3589.41447,-0.0043978
3588.45009,-0.0044330
3587.48571,-0.0044242
3586.52134,-0.0043310
3585.55696,-0.0042735
3584.59258,-0.0043125
3583.62820,-0.0044031
3582.66382,-0.0044402
3581.69945,-0.0043752
3580.73507,-0.0042784
3579.77069,-0.0042078
3578.80631,-0.0042113
3577.84194,-0.0042934
3576.87756,-0.0043949
3575.91318,-0.0044604
3574.94880,-0.0045152
3573.98442,-0.0046250
3573.02005,-0.0047383
3572.05567,-0.0047264
3571.09129,-0.0045706
3570.12691,-0.0043876
3569.16253,-0.0042687
3568.19816,-0.0042028
3567.23378,-0.0041612
3566.26940,-0.0041307
3565.30502,-0.0041015
3564.34065,-0.0040624
3563.37627,-0.0040105
3562.41189,-0.0039958
3561.44751,-0.0039844
3560.48313,-0.0039177
3559.51876,-0.0039110
3558.55438,-0.0040083
3557.59000,-0.0041223
3556.62562,-0.0041855
3555.66124,-0.0042021
3554.69687,-0.0042450
3553.73249,-0.0043024
3552.76811,-0.0043320
3551.80373,-0.0043339
3550.83935,-0.0043373
3549.87498,-0.0043370
3548.91060,-0.0043109
3547.94622,-0.0043189
3546.98184,-0.0043292
3546.01747,-0.0043014
3545.05309,-0.0042563
3544.08871,-0.0042091
3543.12433,-0.0042263
3542.15995,-0.0042886
3541.19558,-0.0043455
3540.23120,-0.0043569
3539.26682,-0.0043355
3538.30244,-0.0043310
3537.33806,-0.0042756
3536.37369,-0.0041819
3535.40931,-0.0040939
3534.44493,-0.0040324
3533.48055,-0.0040321
3532.51618,-0.0040317
3531.55180,-0.0040433
3530.58742,-0.0041059
3529.62304,-0.0041938
3528.65866,-0.0042647
3527.69429,-0.0042896
3526.72991,-0.0043041
3525.76553,-0.0042983
3524.80115,-0.0042674
3523.83677,-0.0042407
3522.87240,-0.0042241
3521.90802,-0.0042072
3520.94364,-0.0041675
3519.97926,-0.0041314
3519.01488,-0.0040962
3518.05051,-0.0040596
3517.08613,-0.0040257
3516.12175,-0.0039645
3515.15737,-0.0039334
3514.19300,-0.0039555
3513.22862,-0.0039873
3512.26424,-0.0040162
3511.29986,-0.0040039
3510.33548,-0.0039395
3509.37111,-0.0038789
3508.40673,-0.0038360
3507.44235,-0.0037765
3506.47797,-0.0037430
3505.51359,-0.0037668
3504.54922,-0.0037899
3503.58484,-0.0038173
3502.62046,-0.0038613
3501.65608,-0.0038713
3500.69171,-0.0038436
3499.72733,-0.0037800
3498.76295,-0.0036870
3497.79857,-0.0036148
3496.83419,-0.0035600
3495.86982,-0.0035311
3494.90544,-0.0035812
3493.94106,-0.0036761
3492.97668,-0.0037510
3492.01230,-0.0038032
3491.04793,-0.0038091
3490.08355,-0.0037402
3489.11917,-0.0036632
3488.15479,-0.0036261
3487.19041,-0.0036185
3486.22604,-0.0036107
3485.26166,-0.0035844
3484.29728,-0.0036170
3483.33290,-0.0037078
3482.36853,-0.0037644
3481.40415,-0.0037716
3480.43977,-0.0037500
3479.47539,-0.0037035
3478.51101,-0.0036256
3477.54664,-0.0035756
3476.58226,-0.0035706
3475.61788,-0.0035473
3474.65350,-0.0035179
3473.68912,-0.0035116
3472.72475,-0.0035369
3471.76037,-0.0035797
3470.79599,-0.0035787
3469.83161,-0.0035329
3468.86724,-0.0035166
3467.90286,-0.0035161
3466.93848,-0.0035002
3465.97410,-0.0035012
3465.00972,-0.0034771
3464.04535,-0.0034272
3463.08097,-0.0034076
3462.11659,-0.0034042
3461.15221,-0.0034020
3460.18783,-0.0033871
3459.22346,-0.0033301
3458.25908,-0.0032539
3457.29470,-0.0032107
3456.33032,-0.0031854
3455.36594,-0.0031861
3454.40157,-0.0032200
3453.43719,-0.0032277
3452.47281,-0.0032201
3451.50843,-0.0032076
3450.54406,-0.0031893
3449.57968,-0.0031968
3448.61530,-0.0032030
3447.65092,-0.0031416
3446.68654,-0.0030426
3445.72217,-0.0030111
3444.75779,-0.0030285
3443.79341,-0.0030518
3442.82903,-0.0031023
3441.86465,-0.0031630
3440.90028,-0.0032009
3439.93590,-0.0032140
3438.97152,-0.0032255
3438.00714,-0.0032308
3437.04276,-0.0032003
3436.07839,-0.0031055
3435.11401,-0.0030206
3434.14963,-0.0029973
3433.18525,-0.0029445
3432.22088,-0.0028923
3431.25650,-0.0028939
3430.29212,-0.0029104
3429.32774,-0.0029274
3428.36336,-0.0029339
3427.39899,-0.0029422
3426.43461,-0.0029434
3425.47023,-0.0029353
3424.50585,-0.0029585
3423.54147,-0.0030217
3422.57710,-0.0030826
3421.61272,-0.0031171
3420.64834,-0.0031644
3419.68396,-0.0032046
3418.71959,-0.0031962
3417.75521,-0.0031695
3416.79083,-0.0031254
3415.82645,-0.0030477
3414.86207,-0.0029672
3413.89770,-0.0029301
3412.93332,-0.0029524
3411.96894,-0.0030015
3411.00456,-0.0030465
3410.04018,-0.0030791
3409.07581,-0.0030976
3408.11143,-0.0031026
3407.14705,-0.0030708
3406.18267,-0.0030176
3405.21829,-0.0029771
3404.25392,-0.0029254
3403.28954,-0.0028695
3402.32516,-0.0028555
3401.36078,-0.0028932
3400.39641,-0.0029478
3399.43203,-0.0029775
3398.46765,-0.0029647
3397.50327,-0.0029566
3396.53889,-0.0029791
3395.57452,-0.0029675
3394.61014,-0.0029287
3393.64576,-0.0029019
3392.68138,-0.0028754
3391.71700,-0.0028373
3390.75263,-0.0028162
3389.78825,-0.0028650
3388.82387,-0.0029082
3387.85949,-0.0028783
3386.89512,-0.0028547
3385.93074,-0.0028666
3384.96636,-0.0028437
3384.00198,-0.0027827
3383.03760,-0.0027473
3382.07323,-0.0027355
3381.10885,-0.0027281
3380.14447,-0.0026972
3379.18009,-0.0026639
3378.21571,-0.0026944
3377.25134,-0.0027226
3376.28696,-0.0026891
3375.32258,-0.0026478
3374.35820,-0.0026259
3373.39382,-0.0025935
3372.42945,-0.0025764
3371.46507,-0.0026101
3370.50069,-0.0026636
3369.53631,-0.0027281
3368.57194,-0.0027828
3367.60756,-0.0028217
3366.64318,-0.0028660
3365.67880,-0.0028660
3364.71442,-0.0028004
3363.75005,-0.0027525
3362.78567,-0.0027333
3361.82129,-0.0026747
3360.85691,-0.0026177
3359.89253,-0.0025933
3358.92816,-0.0025694
3357.96378,-0.0025446
3356.99940,-0.0025198
3356.03502,-0.0024937
3355.07065,-0.0024709
3354.10627,-0.0024758
3353.14189,-0.0024922
3352.17751,-0.0025083
3351.21313,-0.0025246
3350.24876,-0.0025286
3349.28438,-0.0025241
3348.32000,-0.0024781
3347.35562,-0.0024115
3346.39124,-0.0023570
3345.42687,-0.0023167
3344.46249,-0.0022811
3343.49811,-0.0022667
3342.53373,-0.0023352
3341.56935,-0.0024221
3340.60498,-0.0024853
3339.64060,-0.0025445
3338.67622,-0.0025791
3337.71184,-0.0025707
3336.74747,-0.0025169
3335.78309,-0.0024898
3334.81871,-0.0024735
3333.85433,-0.0024188
3332.88995,-0.0023491
3331.92558,-0.0023019
3330.96120,-0.0022948
3329.99682,-0.0022739
3329.03244,-0.0022411
3328.06806,-0.0021932
3327.10369,-0.0021412
3326.13931,-0.0021048
3325.17493,-0.0020642
3324.21055,-0.0020859
3323.24618,-0.0021392
3322.28180,-0.0021769
3321.31742,-0.0022068
3320.35304,-0.0021874
3319.38866,-0.0021527
3318.42429,-0.0021512
3317.45991,-0.0021912
3316.49553,-0.0022239
3315.53115,-0.0022265
3314.56677,-0.0022416
3313.60240,-0.0022460
3312.63802,-0.0022332
3311.67364,-0.0022130
3310.70926,-0.0022006
3309.74488,-0.0022210
3308.78051,-0.0022334
3307.81613,-0.0022533
3306.85175,-0.0023041
3305.88737,-0.0023436
3304.92300,-0.0023617
3303.95862,-0.0023464
3302.99424,-0.0023168
3302.02986,-0.0022669
3301.06548,-0.0021796
3300.10111,-0.0021205
3299.13673,-0.0021073
3298.17235,-0.0021466
3297.20797,-0.0022031
3296.24359,-0.0022009
3295.27922,-0.0021562
3294.31484,-0.0021024
3293.35046,-0.0020627
3292.38608,-0.0020428
3291.42171,-0.0020653
3290.45733,-0.0021086
3289.49295,-0.0021247
3288.52857,-0.0021517
3287.56419,-0.0021871
3286.59982,-0.0022322
3285.63544,-0.0022564
3284.67106,-0.0022003
3283.70668,-0.0021279
3282.74230,-0.0020895
3281.77793,-0.0020896
3280.81355,-0.0021315
3279.84917,-0.0021780
3278.88479,-0.0021940
3277.92041,-0.0021998
3276.95604,-0.0022008
3275.99166,-0.0021842
3275.02728,-0.0021593
3274.06290,-0.0021051
3273.09853,-0.0020412
3272.13415,-0.0019939
3271.16977,-0.0019519
3270.20539,-0.0019190
3269.24101,-0.0018950
3268.27664,-0.0018842
3267.31226,-0.0018947
3266.34788,-0.0019318
3265.38350,-0.0019449
3264.41912,-0.0019420
3263.45475,-0.0019866
3262.49037,-0.0020487
3261.52599,-0.0021065
3260.56161,-0.0021302
3259.59724,-0.0021320
3258.63286,-0.0021709
3257.66848,-0.0022138
3256.70410,-0.0022207
3255.73972,-0.0021915
3254.77535,-0.0021466
3253.81097,-0.0020790
3252.84659,-0.0020055
3251.88221,-0.0019955
3250.91783,-0.0020237
3249.95346,-0.0020196
3248.98908,-0.0020144
3248.02470,-0.0020728
3247.06032,-0.0021775
3246.09594,-0.0022845
3245.13157,-0.0023771
3244.16719,-0.0024553
3243.20281,-0.0025000
3242.23843,-0.0024747
3241.27406,-0.0024057
3240.30968,-0.0023539
3239.34530,-0.0023074
3238.38092,-0.0021999
3237.41654,-0.0020846
3236.45217,-0.0020399
3235.48779,-0.0020282
3234.52341,-0.0020506
3233.55903,-0.0021051
3232.59465,-0.0021609
3231.63028,-0.0022132
3230.66590,-0.0022333
3229.70152,-0.0022219
3228.73714,-0.0022245
3227.77276,-0.0022598
3226.80839,-0.0022946
3225.84401,-0.0023332
3224.87963,-0.0023978
3223.91525,-0.0024569
3222.95088,-0.0024905
3221.98650,-0.0025056
3221.02212,-0.0025093
3220.05774,-0.0024721
3219.09336,-0.0023869
3218.12899,-0.0023054
3217.16461,-0.0022483
3216.20023,-0.0022093
3215.23585,-0.0022011
3214.27147,-0.0022382
3213.30710,-0.0022973
3212.34272,-0.0023457
3211.37834,-0.0023771
3210.41396,-0.0024146
3209.44959,-0.0024330
3208.48521,-0.0023895
3207.52083,-0.0023712
3206.55645,-0.0023824
3205.59207,-0.0023229
3204.62770,-0.0022566
3203.66332,-0.0022495
3202.69894,-0.0022782
3201.73456,-0.0022951
3200.77018,-0.0022624
3199.80581,-0.0022461
3198.84143,-0.0022505
3197.87705,-0.0022248
3196.91267,-0.0022222
3195.94829,-0.0022490
3194.98392,-0.0022420
3194.01954,-0.0022140
3193.05516,-0.0022480
3192.09078,-0.0023445
3191.12641,-0.0024355
3190.16203,-0.0024899
3189.19765,-0.0024976
3188.23327,-0.0025027
3187.26889,-0.0024927
3186.30452,-0.0024457
3185.34014,-0.0024011
3184.37576,-0.0023393
3183.41138,-0.0022767
3182.44700,-0.0022228
3181.48263,-0.0021811
3180.51825,-0.0021602
3179.55387,-0.0021395
3178.58949,-0.0021370
3177.62512,-0.0021286
3176.66074,-0.0021319
3175.69636,-0.0021347
3174.73198,-0.0021031
3173.76760,-0.0020944
3172.80323,-0.0021112
3171.83885,-0.0021523
3170.87447,-0.0021862
3169.91009,-0.0021978
3168.94571,-0.0022064
3167.98134,-0.0022303
3167.01696,-0.0022638
3166.05258,-0.0022254
3165.08820,-0.0021905
3164.12382,-0.0021712
3163.15945,-0.0021219
3162.19507,-0.0021112
3161.23069,-0.0020893
3160.26631,-0.0020649
3159.30194,-0.0020567
3158.33756,-0.0020534
3157.37318,-0.0020772
3156.40880,-0.0021083
3155.44442,-0.0021390
3154.48005,-0.0021535
3153.51567,-0.0022275
3152.55129,-0.0023464
3151.58691,-0.0024203
3150.62253,-0.0024479
3149.65816,-0.0024067
3148.69378,-0.0023554
3147.72940,-0.0023079
3146.76502,-0.0022480
3145.80065,-0.0021950
3144.83627,-0.0021325
3143.87189,-0.0020918
3142.90751,-0.0020696
3141.94313,-0.0020758
3140.97876,-0.0021046
3140.01438,-0.0020941
3139.05000,-0.0020627
3138.08562,-0.0020566
3137.12124,-0.0020772
3136.15687,-0.0021132
3135.19249,-0.0021753
3134.22811,-0.0022474
3133.26373,-0.0023203
3132.29935,-0.0023591
3131.33498,-0.0023254
3130.37060,-0.0022909
3129.40622,-0.0022832
3128.44184,-0.0022764
3127.47747,-0.0022368
3126.51309,-0.0021493
3125.54871,-0.0020859
3124.58433,-0.0020874
3123.61995,-0.0021046
3122.65558,-0.0021052
3121.69120,-0.0021238
3120.72682,-0.0021306
3119.76244,-0.0021351
3118.79806,-0.0022168
3117.83369,-0.0023349
3116.86931,-0.0024341
3115.90493,-0.0024473
3114.94055,-0.0023790
3113.97618,-0.0023413
3113.01180,-0.0023440
3112.04742,-0.0023485
3111.08304,-0.0023347
3110.11866,-0.0023339
3109.15429,-0.0023501
3108.18991,-0.0023371
3107.22553,-0.0023255
3106.26115,-0.0023203
3105.29677,-0.0022941
3104.33240,-0.0022602
3103.36802,-0.0022479
3102.40364,-0.0022692
3101.43926,-0.0023082
3100.47488,-0.0023442
3099.51051,-0.0023534
3098.54613,-0.0023476
3097.58175,-0.0023137
3096.61737,-0.0022278
3095.65300,-0.0021549
3094.68862,-0.0021219
3093.72424,-0.0021126
3092.75986,-0.0021462
3091.79548,-0.0021972
3090.83111,-0.0022282
3089.86673,-0.0022549
3088.90235,-0.0022880
3087.93797,-0.0023017
3086.97359,-0.0022809
3086.00922,-0.0022532
3085.04484,-0.0022429
3084.08046,-0.0022406
3083.11608,-0.0022404
3082.15171,-0.0022431
3081.18733,-0.0022348
3080.22295,-0.0022026
3079.25857,-0.0021724
3078.29419,-0.0021765
3077.32982,-0.0021907
3076.36544,-0.0021784
3075.40106,-0.0021605
3074.43668,-0.0021816
3073.47230,-0.0022110
3072.50793,-0.0021937
3071.54355,-0.0021568
3070.57917,-0.0021345
3069.61479,-0.0021126
3068.65041,-0.0020705
3067.68604,-0.0020293
3066.72166,-0.0020326
3065.75728,-0.0020555
3064.79290,-0.0020694
3063.82853,-0.0021012
3062.86415,-0.0021419
3061.89977,-0.0021727
3060.93539,-0.0021979
3059.97101,-0.0022129
3059.00664,-0.0022279
3058.04226,-0.0022377
3057.07788,-0.0022046
3056.11350,-0.0021406
3055.14912,-0.0021032
3054.18475,-0.0020732
3053.22037,-0.0020401
3052.25599,-0.0020599
3051.29161,-0.0021000
3050.32724,-0.0021527
3049.36286,-0.0022315
3048.39848,-0.0022796
3047.43410,-0.0023265
3046.46972,-0.0023873
3045.50535,-0.0024115
3044.54097,-0.0023895
3043.57659,-0.0023379
3042.61221,-0.0022833
3041.64783,-0.0022407
3040.68346,-0.0022094
3039.71908,-0.0021640
3038.75470,-0.0021101
3037.79032,-0.0020737
3036.82594,-0.0020640
3035.86157,-0.0021050
3034.89719,-0.0021762
3033.93281,-0.0022351
3032.96843,-0.0022494
3032.00406,-0.0022207
3031.03968,-0.0021887
3030.07530,-0.0021542
3029.11092,-0.0021103
3028.14654,-0.0020686
3027.18217,-0.0020312
3026.21779,-0.0019973
3025.25341,-0.0019805
3024.28903,-0.0019825
3023.32465,-0.0019981
3022.36028,-0.0020130
3021.39590,-0.0019983
3020.43152,-0.0019690
3019.46714,-0.0019598
3018.50276,-0.0019952
3017.53839,-0.0020478
3016.57401,-0.0020876
3015.60963,-0.0021135
3014.64525,-0.0020924
3013.68088,-0.0020502
3012.71650,-0.0020111
3011.75212,-0.0019690
3010.78774,-0.0019323
3009.82336,-0.0018934
3008.85899,-0.0018826
3007.89461,-0.0019154
3006.93023,-0.0019692
3005.96585,-0.0020094
3005.00147,-0.0020375
3004.03710,-0.0020642
3003.07272,-0.0020538
3002.10834,-0.0020192
3001.14396,-0.0019719
3000.17959,-0.0019241
2999.21521,-0.0019002
2998.25083,-0.0018934
2997.28645,-0.0019162
2996.32207,-0.0019548
2995.35770,-0.0019832
2994.39332,-0.0020039
2993.42894,-0.0020070
2992.46456,-0.0019699
2991.50018,-0.0019155
2990.53581,-0.0018712
2989.57143,-0.0018285
2988.60705,-0.0018020
2987.64267,-0.0018056
2986.67829,-0.0018425
2985.71392,-0.0018884
2984.74954,-0.0019105
2983.78516,-0.0019095
2982.82078,-0.0018941
2981.85641,-0.0018655
2980.89203,-0.0018240
2979.92765,-0.0018005
2978.96327,-0.0017743
2977.99889,-0.0017299
2977.03452,-0.0016925
2976.07014,-0.0016417
2975.10576,-0.0016056
2974.14138,-0.0015811
2973.17700,-0.0015357
2972.21263,-0.0014912
2971.24825,-0.0014704
2970.28387,-0.0014842
2969.31949,-0.0014918
2968.35512,-0.0014842
2967.39074,-0.0014748
2966.42636,-0.0014520
2965.46198,-0.0014131
2964.49760,-0.0013518
2963.53323,-0.0013077
2962.56885,-0.0012992
2961.60447,-0.0012916
2960.64009,-0.0012677
2959.67571,-0.0012433
2958.71134,-0.0012404
2957.74696,-0.0012507
2956.78258,-0.0012634
2955.81820,-0.0012761
2954.85382,-0.0012856
2953.88945,-0.0012762
2952.92507,-0.0012388
2951.96069,-0.0011974
2950.99631,-0.0011780
2950.03194,-0.0011640
2949.06756,-0.0011002
2948.10318,-0.0010060
2947.13880,-0.0009497
2946.17442,-0.0009209
2945.21005,-0.0008645
2944.24567,-0.0007833
2943.28129,-0.0007264
2942.31691,-0.0006892
2941.35253,-0.0006592
2940.38816,-0.0006491
2939.42378,-0.0006313
2938.45940,-0.0005861
2937.49502,-0.0005267
2936.53065,-0.0004746
2935.56627,-0.0004418
2934.60189,-0.0003901
2933.63751,-0.0002968
2932.67313,-0.0002046
2931.70876,-0.0001468
2930.74438,-0.0001086
2929.78000,-0.0000459
2928.81562,0.0000529
2927.85124,0.0001834
2926.88687,0.0003282
2925.92249,0.0004298
2924.95811,0.0004963
2923.99373,0.0005582
2923.02935,0.0006120
2922.06498,0.0006438
2921.10060,0.0006210
2920.13622,0.0005528
2919.17184,0.0004536
2918.20747,0.0003432
2917.24309,0.0002441
2916.27871,0.0001474
2915.31433,0.0000510
2914.34995,-0.0000703
2913.38558,-0.0002202
2912.42120,-0.0003644
2911.45682,-0.0004734
2910.49244,-0.0005432
2909.52806,-0.0005958
2908.56369,-0.0006361
2907.59931,-0.0006557
2906.63493,-0.0006470
2905.67055,-0.0006291
2904.70618,-0.0006230
2903.74180,-0.0006403
2902.77742,-0.0006838
2901.81304,-0.0007426
2900.84866,-0.0008287
2899.88429,-0.0009126
2898.91991,-0.0009710
2897.95553,-0.0010137
2896.99115,-0.0010360
2896.02677,-0.0010546
2895.06240,-0.0010791
2894.09802,-0.0011164
2893.13364,-0.0011481
2892.16926,-0.0011561
2891.20488,-0.0011503
2890.24051,-0.0011321
2889.27613,-0.0011191
2888.31175,-0.0011092
2887.34737,-0.0011006
2886.38300,-0.0010957
2885.41862,-0.0011071
2884.45424,-0.0011585
2883.48986,-0.0012124
2882.52548,-0.0012482
2881.56111,-0.0012734
2880.59673,-0.0012894
2879.63235,-0.0012901
2878.66797,-0.0012575
2877.70359,-0.0012148
2876.73922,-0.0011885
2875.77484,-0.0011684
2874.81046,-0.0011490
2873.84608,-0.0011517
2872.88171,-0.0011646
2871.91733,-0.0011588
2870.95295,-0.0011543
2869.98857,-0.0011632
2869.02419,-0.0011702
2868.05982,-0.0011497
2867.09544,-0.0011102
2866.13106,-0.0010762
2865.16668,-0.0010350
2864.20230,-0.0009785
2863.23793,-0.0009045
2862.27355,-0.0008286
2861.30917,-0.0007567
2860.34479,-0.0006693
2859.38041,-0.0005850
2858.41604,-0.0005072
2857.45166,-0.0004197
2856.48728,-0.0003476
2855.52290,-0.0002972
2854.55853,-0.0002391
2853.59415,-0.0001837
2852.62977,-0.0001641
2851.66539,-0.0001866
2850.70101,-0.0002578
2849.73664,-0.0003622
2848.77226,-0.0004663
2847.80788,-0.0005804
2846.84350,-0.0007112
2845.87912,-0.0008502
2844.91475,-0.0009921
2843.95037,-0.0010983
2842.98599,-0.0011560
2842.02161,-0.0011942
2841.05724,-0.0012267
2840.09286,-0.0012631
2839.12848,-0.0013006
2838.16410,-0.0013230
2837.19972,-0.0013261
2836.23535,-0.0013381
2835.27097,-0.0013794
2834.30659,-0.0014182
2833.34221,-0.0014334
2832.37783,-0.0014438
2831.41346,-0.0014703
2830.44908,-0.0014936
2829.48470,-0.0014933
2828.52032,-0.0014877
2827.55594,-0.0014831
2826.59157,-0.0014824
2825.62719,-0.0014793
2824.66281,-0.0014833
2823.69843,-0.0015035
2822.73406,-0.0015039
2821.76968,-0.0014955
2820.80530,-0.0015027
2819.84092,-0.0015162
2818.87654,-0.0015231
2817.91217,-0.0015058
2816.94779,-0.0014803
2815.98341,-0.0014714
2815.01903,-0.0014791
2814.05465,-0.0014807
2813.09028,-0.0014793
2812.12590,-0.0015011
2811.16152,-0.0015229
2810.19714,-0.0015380
2809.23276,-0.0015527
2808.26839,-0.0015733
2807.30401,-0.0016209
2806.33963,-0.0016480
2805.37525,-0.0016374
2804.41088,-0.0016268
2803.44650,-0.0016150
2802.48212,-0.0016015
2801.51774,-0.0015864
2800.55336,-0.0015896
2799.58899,-0.0016111
2798.62461,-0.0016098
2797.66023,-0.0016026
2796.69585,-0.0016194
2795.73147,-0.0016381
2794.76710,-0.0016223
2793.80272,-0.0015912
2792.83834,-0.0015691
2791.87396,-0.0015416
2790.90959,-0.0015209
2789.94521,-0.0015010
2788.98083,-0.0014896
2788.01645,-0.0015033
2787.05207,-0.0015091
2786.08770,-0.0015192
2785.12332,-0.0015489
2784.15894,-0.0015743
2783.19456,-0.0015945
2782.23018,-0.0016114
2781.26581,-0.0015963
2780.30143,-0.0015458
2779.33705,-0.0015113
2778.37267,-0.0015007
2777.40829,-0.0014949
2776.44392,-0.0014989
2775.47954,-0.0015108
2774.51516,-0.0015388
2773.55078,-0.0015816
2772.58641,-0.0016118
2771.62203,-0.0016159
2770.65765,-0.0015884
2769.69327,-0.0015351
2768.72889,-0.0015121
2767.76452,-0.0015276
2766.80014,-0.0015167
2765.83576,-0.0014624
2764.87138,-0.0013969
2763.90700,-0.0013595
2762.94263,-0.0013522
2761.97825,-0.0013560
2761.01387,-0.0013687
2760.04949,-0.0013797
2759.08512,-0.0013891
2758.12074,-0.0014207
2757.15636,-0.0014861
2756.19198,-0.0015334
2755.22760,-0.0015342
2754.26323,-0.0015206
2753.29885,-0.0015037
2752.33447,-0.0014923
2751.37009,-0.0014736
2750.40571,-0.0014528
2749.44134,-0.0014481
2748.47696,-0.0014353
2747.51258,-0.0014189
2746.54820,-0.0014110
2745.58382,-0.0014163
2744.61945,-0.0014377
2743.65507,-0.0014664
2742.69069,-0.0014848
2741.72631,-0.0014747
2740.76194,-0.0014572
2739.79756,-0.0014504
2738.83318,-0.0014467
2737.86880,-0.0014330
2736.90442,-0.0014170
2735.94005,-0.0014174
2734.97567,-0.0014129
2734.01129,-0.0013922
2733.04691,-0.0013709
2732.08253,-0.0013578
2731.11816,-0.0013369
2730.15378,-0.0013060
2729.18940,-0.0012984
2728.22502,-0.0013170
2727.26065,-0.0013440
2726.29627,-0.0013608
2725.33189,-0.0013702
2724.36751,-0.0013901
2723.40313,-0.0013948
2722.43876,-0.0013782
2721.47438,-0.0013740
2720.51000,-0.0013872
2719.54562,-0.0013957
2718.58124,-0.0013942
2717.61687,-0.0014006
2716.65249,-0.0014212
2715.68811,-0.0014461
2714.72373,-0.0014466
2713.75935,-0.0014223
2712.79498,-0.0014144
2711.83060,-0.0014089
2710.86622,-0.0013845
2709.90184,-0.0013728
2708.93747,-0.0013798
2707.97309,-0.0013958
2707.00871,-0.0014192
2706.04433,-0.0014378
2705.07995,-0.0014500
2704.11558,-0.0014623
2703.15120,-0.0014692
2702.18682,-0.0014611
2701.22244,-0.0014415
2700.25806,-0.0014085
2699.29369,-0.0013674
2698.32931,-0.0013517
2697.36493,-0.0013624
2696.40055,-0.0013854
2695.43618,-0.0014137
2694.47180,-0.0014257
2693.50742,-0.0014372
2692.54304,-0.0014638
2691.57866,-0.0014662
2690.61429,-0.0014289
2689.64991,-0.0013775
2688.68553,-0.0013302
2687.72115,-0.0012924
2686.75677,-0.0012542
2685.79240,-0.0012214
2684.82802,-0.0012136
2683.86364,-0.0012212
2682.89926,-0.0012369
2681.93488,-0.0012690
2680.97051,-0.0013079
2680.00613,-0.0013350
2679.04175,-0.0013530
2678.07737,-0.0013671
2677.11300,-0.0013701
2676.14862,-0.0013582
2675.18424,-0.0013225
2674.21986,-0.0012762
2673.25548,-0.0012458
2672.29111,-0.0012297
2671.32673,-0.0012186
2670.36235,-0.0012152
2669.39797,-0.0012325
2668.43359,-0.0012723
2667.46922,-0.0013053
2666.50484,-0.0012965
2665.54046,-0.0012691
2664.57608,-0.0012597
2663.61171,-0.0012429
2662.64733,-0.0012250
2661.68295,-0.0012357
2660.71857,-0.0012561
2659.75419,-0.0012583
2658.78982,-0.0012496
2657.82544,-0.0012588
2656.86106,-0.0012692
2655.89668,-0.0012523
2654.93230,-0.0012167
2653.96793,-0.0011964
2653.00355,-0.0011959
2652.03917,-0.0011847
2651.07479,-0.0011971
2650.11041,-0.0012399
2649.14604,-0.0012588
2648.18166,-0.0012468
2647.21728,-0.0012155
2646.25290,-0.0011871
2645.28853,-0.0011777
2644.32415,-0.0011798
2643.35977,-0.0011854
2642.39539,-0.0011835
2641.43101,-0.0011845
2640.46664,-0.0012182
2639.50226,-0.0012909
2638.53788,-0.0013577
2637.57350,-0.0013827
2636.60912,-0.0013757
2635.64475,-0.0013510
2634.68037,-0.0013329
2633.71599,-0.0013254
2632.75161,-0.0012997
2631.78724,-0.0012601
2630.82286,-0.0012319
2629.85848,-0.0012256
2628.89410,-0.0012368
2627.92972,-0.0012402
2626.96535,-0.0012282
2626.00097,-0.0012226
2625.03659,-0.0012245
2624.07221,-0.0012230
2623.10783,-0.0012282
2622.14346,-0.0012363
2621.17908,-0.0012374
2620.21470,-0.0012408
2619.25032,-0.0012331
2618.28594,-0.0012032
2617.32157,-0.0011459
2616.35719,-0.0010862
2615.39281,-0.0010765
2614.42843,-0.0010942
2613.46406,-0.0011195
2612.49968,-0.0011450
2611.53530,-0.0011537
2610.57092,-0.0011704
2609.60654,-0.0011970
2608.64217,-0.0012182
2607.67779,-0.0012245
2606.71341,-0.0012082
2605.74903,-0.0011516
2604.78465,-0.0010980
2603.82028,-0.0010924
2602.85590,-0.0010664
2601.89152,-0.0010380
2600.92714,-0.0010558
2599.96276,-0.0010997
2598.99839,-0.0011592
2598.03401,-0.0011968
2597.06963,-0.0012156
2596.10525,-0.0012406
2595.14088,-0.0012627
2594.17650,-0.0012370
2593.21212,-0.0011652
2592.24774,-0.0010874
2591.28336,-0.0010003
2590.31899,-0.0009660
2589.35461,-0.0010149
2588.39023,-0.0010959
2587.42585,-0.0011574
2586.46147,-0.0011691
2585.49710,-0.0011622
2584.53272,-0.0011508
2583.56834,-0.0011381
2582.60396,-0.0011195
2581.63959,-0.0010859
2580.67521,-0.0010413
2579.71083,-0.0009934
2578.74645,-0.0009863
2577.78207,-0.0010203
2576.81770,-0.0010615
2575.85332,-0.0010873
2574.88894,-0.0010992
2573.92456,-0.0011101
2572.96018,-0.0011321
2571.99581,-0.0012031
2571.03143,-0.0012901
2570.06705,-0.0013352
2569.10267,-0.0013411
2568.13829,-0.0013248
2567.17392,-0.0013082
2566.20954,-0.0013040
2565.24516,-0.0012737
2564.28078,-0.0011796
2563.31641,-0.0010958
2562.35203,-0.0010490
2561.38765,-0.0009928
2560.42327,-0.0009605
2559.45889,-0.0009328
2558.49452,-0.0008622
2557.53014,-0.0008047
2556.56576,-0.0008079
2555.60138,-0.0008560
2554.63700,-0.0009390
2553.67263,-0.0010215
2552.70825,-0.0010473
2551.74387,-0.0010305
2550.77949,-0.0009829
2549.81512,-0.0009272
2548.85074,-0.0009321
2547.88636,-0.0009736
2546.92198,-0.0009751
2545.95760,-0.0009467
2544.99323,-0.0009724
2544.02885,-0.0010625
2543.06447,-0.0011498
2542.10009,-0.0012257
2541.13571,-0.0012558
2540.17134,-0.0012231
2539.20696,-0.0012212
2538.24258,-0.0012638
2537.27820,-0.0012953
2536.31382,-0.0012950
2535.34945,-0.0012565
2534.38507,-0.0011881
2533.42069,-0.0011029
2532.45631,-0.0010205
2531.49194,-0.0009354
2530.52756,-0.0008491
2529.56318,-0.0007816
2528.59880,-0.0007731
2527.63442,-0.0008623
2526.67005,-0.0009562
2525.70567,-0.0009976
2524.74129,-0.0010491
2523.77691,-0.0011091
2522.81253,-0.0011167
2521.84816,-0.0010437
2520.88378,-0.0009715
2519.91940,-0.0009488
2518.95502,-0.0009115
2517.99065,-0.0008649
2517.02627,-0.0008503
2516.06189,-0.0008468
2515.09751,-0.0008404
2514.13313,-0.0008643
2513.16876,-0.0009288
2512.20438,-0.0009693
2511.24000,-0.0009481
2510.27562,-0.0009315
2509.31124,-0.0009529
2508.34687,-0.0009640
2507.38249,-0.0009695
2506.41811,-0.0009987
2505.45373,-0.0010203
2504.48935,-0.0010319
2503.52498,-0.0011182
2502.56060,-0.0012780
2501.59622,-0.0014215
2500.63184,-0.0015141
2499.66747,-0.0015198
2498.70309,-0.0014745
2497.73871,-0.0014150
2496.77433,-0.0012922
2495.80995,-0.0011639
2494.84558,-0.0010891
2493.88120,-0.0010691
2492.91682,-0.0011102
2491.95244,-0.0011609
2490.98806,-0.0011533
2490.02369,-0.0010903
2489.05931,-0.0010381
2488.09493,-0.0009813
2487.13055,-0.0009049
2486.16618,-0.0008479
2485.20180,-0.0007935
2484.23742,-0.0007586
2483.27304,-0.0007772
2482.30866,-0.0008406
2481.34429,-0.0009018
2480.37991,-0.0009048
2479.41553,-0.0008567
2478.45115,-0.0008411
2477.48677,-0.0009044
2476.52240,-0.0009618
2475.55802,-0.0009942
2474.59364,-0.0010250
2473.62926,-0.0010404
2472.66488,-0.0010615
2471.70051,-0.0010429
2470.73613,-0.0009556
2469.77175,-0.0008439
2468.80737,-0.0007687
2467.84300,-0.0007412
2466.87862,-0.0007693
2465.91424,-0.0008741
2464.94986,-0.0009656
2463.98548,-0.0010464
2463.02111,-0.0011201
2462.05673,-0.0011562
2461.09235,-0.0011995
2460.12797,-0.0011618
2459.16359,-0.0010467
2458.19922,-0.0009396
2457.23484,-0.0008312
2456.27046,-0.0007436
2455.30608,-0.0007492
2454.34171,-0.0008428
2453.37733,-0.0008933
2452.41295,-0.0009327
2451.44857,-0.0009963
2450.48419,-0.0010367
2449.51982,-0.0010847
2448.55544,-0.0010981
2447.59106,-0.0011092
2446.62668,-0.0011167
2445.66230,-0.0010550
2444.69793,-0.0010073
2443.73355,-0.0010032
2442.76917,-0.0009705
2441.80479,-0.0009171
2440.84041,-0.0009230
2439.87604,-0.0009524
2438.91166,-0.0009917
2437.94728,-0.0010509
2436.98290,-0.0010643
2436.01853,-0.0010611
2435.05415,-0.0010146
2434.08977,-0.0009148
2433.12539,-0.0008289
2432.16101,-0.0007539
2431.19664,-0.0007066
2430.23226,-0.0006864
2429.26788,-0.0006937
2428.30350,-0.0007326
2427.33912,-0.0007966
2426.37475,-0.0008515
2425.41037,-0.0008412
2424.44599,-0.0008025
2423.48161,-0.0007629
2422.51724,-0.0007471
2421.55286,-0.0007766
2420.58848,-0.0008268
2419.62410,-0.0008949
2418.65972,-0.0009512
2417.69535,-0.0010289
2416.73097,-0.0011359
2415.76659,-0.0011950
2414.80221,-0.0011990
2413.83783,-0.0011128
2412.87346,-0.0009590
2411.90908,-0.0008292
2410.94470,-0.0007159
2409.98032,-0.0006228
2409.01594,-0.0005909
2408.05157,-0.0006289
2407.08719,-0.0007091
2406.12281,-0.0008069
2405.15843,-0.0009034
2404.19406,-0.0009748
2403.22968,-0.0009992
2402.26530,-0.0009347
2401.30092,-0.0008382
2400.33654,-0.0007732
2399.37217,-0.0006967
2398.40779,-0.0006487
2397.44341,-0.0006951
2396.47903,-0.0007928
2395.51465,-0.0008687
2394.55028,-0.0009109
2393.58590,-0.0009449
2392.62152,-0.0009565
2391.65714,-0.0009269
2390.69276,-0.0008684
2389.72839,-0.0007963
2388.76401,-0.0007165
2387.79963,-0.0006454
2386.83525,-0.0006289
2385.87088,-0.0006640
2384.90650,-0.0006788
2383.94212,-0.0006742
2382.97774,-0.0006763
2382.01336,-0.0006513
2381.04899,-0.0005966
2380.08461,-0.0005153
2379.12023,-0.0004100
2378.15585,-0.0002919
2377.19147,-0.0001863
2376.22710,-0.0001116
2375.26272,-0.0000272
2374.29834,0.0000736
2373.33396,0.0001681
2372.36959,0.0002208
2371.40521,0.0002400
2370.44083,0.0002719
2369.47645,0.0003132
2368.51207,0.0003806
2367.54770,0.0004507
2366.58332,0.0005143
2365.61894,0.0005867
2364.65456,0.0006618
2363.69018,0.0007687
2362.72581,0.0008612
2361.76143,0.0009063
2360.79705,0.0009092
2359.83267,0.0008749
2358.86829,0.0008321
2357.90392,0.0007698
2356.93954,0.0006877
2355.97516,0.0005891
2355.01078,0.0004863
2354.04641,0.0003756
2353.08203,0.0002567
2352.11765,0.0001520
2351.15327,0.0000266
2350.18889,-0.0000967
2349.22452,-0.0001585
2348.26014,-0.0001641
2347.29576,-0.0001289
2346.33138,-0.0000477
2345.36700,0.0000719
2344.40263,0.0002003
2343.43825,0.0003104
2342.47387,0.0003705
2341.50949,0.0003919
2340.54512,0.0004082
2339.58074,0.0004171
2338.61636,0.0004140
2337.65198,0.0004152
2336.68760,0.0004305
2335.72323,0.0004567
2334.75885,0.0004861
2333.79447,0.0004804
2332.83009,0.0004623
2331.86571,0.0004659
2330.90134,0.0004378
2329.93696,0.0003723
2328.97258,0.0003346
2328.00820,0.0003505
2327.04382,0.0003651
2326.07945,0.0003535
2325.11507,0.0003269
2324.15069,0.0002837
2323.18631,0.0002190
2322.22194,0.0001457
2321.25756,0.0001403
2320.29318,0.0001495
2319.32880,0.0000763
2318.36442,-0.0000144
2317.40005,-0.0000515
2316.43567,-0.0000420
2315.47129,-0.0000325
2314.50691,-0.0000399
2313.54253,-0.0000813
2312.57816,-0.0001305
2311.61378,-0.0001876
2310.64940,-0.0002447
2309.68502,-0.0002806
2308.72065,-0.0003532
2307.75627,-0.0004592
2306.79189,-0.0005256
2305.82751,-0.0005620
2304.86313,-0.0005795
2303.89876,-0.0005660
2302.93438,-0.0005408
2301.97000,-0.0005394
2301.00562,-0.0005380
2300.04124,-0.0005366
2299.07687,-0.0005352
2298.11249,-0.0005338
2297.14811,-0.0005324
2296.18373,-0.0005310
2295.21935,-0.0005296
2294.25498,-0.0005282
2293.29060,-0.0005268
2292.32622,-0.0005254
2291.36184,-0.0005240
2290.39747,-0.0005226
2289.43309,-0.0005212
2288.46871,-0.0005198
2287.50433,-0.0005184
2286.53995,-0.0005170
2285.57558,-0.0005156
2284.61120,-0.0005142
2283.64682,-0.0005128
2282.68244,-0.0005114
2281.71806,-0.0005100
2280.75369,-0.0005086
2279.78931,-0.0005072
2278.82493,-0.0005058
2277.86055,-0.0005044
2276.89618,-0.0005030
2275.93180,-0.0005016
2274.96742,-0.0005002
2274.00304,-0.0004988
2273.03866,-0.0004974
2272.07429,-0.0004960
2271.10991,-0.0004946
2270.14553,-0.0004932
2269.18115,-0.0004918
2268.21677,-0.0004904
2267.25240,-0.0004890
2266.28802,-0.0004876
2265.32364,-0.0004862
2264.35926,-0.0004848
2263.39488,-0.0004834
2262.43051,-0.0004820
2261.46613,-0.0004806
2260.50175,-0.0004792
2259.53737,-0.0004778
2258.57300,-0.0004764
2257.60862,-0.0004750
2256.64424,-0.0004736
2255.67986,-0.0004722
2254.71548,-0.0004708
2253.75111,-0.0004694
2252.78673,-0.0004680
2251.82235,-0.0004666
2250.85797,-0.0004652
2249.89359,-0.0004638
2248.92922,-0.0004624
2247.96484,-0.0004610
2247.00046,-0.0004596
2246.03608,-0.0004582
2245.07171,-0.0004568
2244.10733,-0.0004554
2243.14295,-0.0004540
2242.17857,-0.0004526
2241.21419,-0.0004512
2240.24982,-0.0004498
2239.28544,-0.0004484
2238.32106,-0.0004470
2237.35668,-0.0004456
2236.39230,-0.0004442
2235.42793,-0.0004428
2234.46355,-0.0004414
2233.49917,-0.0004400
2232.53479,-0.0004386
2231.57041,-0.0004372
2230.60604,-0.0004358
2229.64166,-0.0004344
2228.67728,-0.0004330
2227.71290,-0.0004316
2226.74853,-0.0004302
2225.78415,-0.0004288
2224.81977,-0.0004274
2223.85539,-0.0004260
2222.89101,-0.0004246
2221.92664,-0.0004232
2220.96226,-0.0004218
2219.99788,-0.0004204
2219.03350,-0.0004190
2218.06912,-0.0004176
2217.10475,-0.0004162
2216.14037,-0.0004148
2215.17599,-0.0004134
2214.21161,-0.0004120
2213.24724,-0.0004106
2212.28286,-0.0004092
2211.31848,-0.0004078
2210.35410,-0.0004064
2209.38972,-0.0004050
2208.42535,-0.0004036
2207.46097,-0.0004022
2206.49659,-0.0004008
2205.53221,-0.0003994
2204.56783,-0.0003980
2203.60346,-0.0003966
2202.63908,-0.0003952
2201.67470,-0.0003938
2200.71032,-0.0003924
2199.74594,-0.0003910
2198.78157,-0.0003896
2197.81719,-0.0003882
2196.85281,-0.0003868
2195.88843,-0.0003854
2194.92406,-0.0003840
2193.95968,-0.0003826
2192.99530,-0.0003812
2192.03092,-0.0003798
2191.06654,-0.0003784
2190.10217,-0.0003770
2189.13779,-0.0003756
2188.17341,-0.0003742
2187.20903,-0.0003728
2186.24465,-0.0003714
2185.28028,-0.0003700
2184.31590,-0.0003686
2183.35152,-0.0003672
2182.38714,-0.0003658
2181.42276,-0.0003644
2180.45839,-0.0003630
2179.49401,-0.0003616
2178.52963,-0.0003602
2177.56525,-0.0003588
2176.60088,-0.0003574
2175.63650,-0.0003560
2174.67212,-0.0003546
2173.70774,-0.0003532
2172.74336,-0.0003518
2171.77899,-0.0003504
2170.81461,-0.0003490
2169.85023,-0.0003476
2168.88585,-0.0003462
2167.92147,-0.0003448
2166.95710,-0.0003434
2165.99272,-0.0003420
2165.02834,-0.0003406
2164.06396,-0.0003392
2163.09959,-0.0003378
2162.13521,-0.0003364
2161.17083,-0.0003350
2160.20645,-0.0003336
2159.24207,-0.0003322
2158.27770,-0.0003308
2157.31332,-0.0003294
2156.34894,-0.0003280
2155.38456,-0.0003266
2154.42018,-0.0003252
2153.45581,-0.0003238
2152.49143,-0.0003224
2151.52705,-0.0003210
2150.56267,-0.0003196
2149.59829,-0.0003182
2148.63392,-0.0003168
2147.66954,-0.0003154
2146.70516,-0.0003140
2145.74078,-0.0003126
2144.77641,-0.0003112
2143.81203,-0.0003098
2142.84765,-0.0003084
2141.88327,-0.0003070
2140.91889,-0.0003056
2139.95452,-0.0003042
2138.99014,-0.0003028
2138.02576,-0.0003014
2137.06138,-0.0003000
2136.09700,-0.0002986
2135.13263,-0.0002972
2134.16825,-0.0002958
2133.20387,-0.0002944
2132.23949,-0.0002930
2131.27512,-0.0002916
2130.31074,-0.0002902
2129.34636,-0.0002888
2128.38198,-0.0002874
2127.41760,-0.0002860
2126.45323,-0.0002846
2125.48885,-0.0002832
2124.52447,-0.0002818
2123.56009,-0.0002804
2122.59571,-0.0002790
2121.63134,-0.0002776
2120.66696,-0.0002762
2119.70258,-0.0002748
2118.73820,-0.0002734
2117.77382,-0.0002720
2116.80945,-0.0002706
2115.84507,-0.0002692
2114.88069,-0.0002678
2113.91631,-0.0002664
2112.95194,-0.0002650
2111.98756,-0.0002636
2111.02318,-0.0002622
2110.05880,-0.0002608
2109.09442,-0.0002594
2108.13005,-0.0002580
2107.16567,-0.0002566
2106.20129,-0.0002552
2105.23691,-0.0002538
2104.27253,-0.0002524
2103.30816,-0.0002510
2102.34378,-0.0002496
2101.37940,-0.0002482
2100.41502,-0.0002468
2099.45065,-0.0002454
2098.48627,-0.0002440
2097.52189,-0.0002426
2096.55751,-0.0002412
2095.59313,-0.0002398
2094.62876,-0.0002384
2093.66438,-0.0002370
2092.70000,-0.0002356
2091.73562,-0.0002342
2090.77124,-0.0002328
2089.80687,-0.0002314
2088.84249,-0.0002300
2087.87811,-0.0002286
2086.91373,-0.0002272
2085.94935,-0.0002258
2084.98498,-0.0002244
2084.02060,-0.0002230
2083.05622,-0.0002216
2082.09184,-0.0002202
2081.12747,-0.0002188
2080.16309,-0.0002174
2079.19871,-0.0002160
2078.23433,-0.0002146
2077.26995,-0.0002132
2076.30558,-0.0002118
2075.34120,-0.0002104
2074.37682,-0.0002090
2073.41244,-0.0002076
2072.44806,-0.0002062
2071.48369,-0.0002048
2070.51931,-0.0002034
2069.55493,-0.0002020
2068.59055,-0.0002006
2067.62618,-0.0001992
2066.66180,-0.0001978
2065.69742,-0.0001964
2064.73304,-0.0001950
2063.76866,-0.0001936
2062.80429,-0.0001922
2061.83991,-0.0001908
2060.87553,-0.0001894
2059.91115,-0.0001880
2058.94677,-0.0001866
2057.98240,-0.0001852
2057.01802,-0.0001838
2056.05364,-0.0001824
2055.08926,-0.0001810
2054.12488,-0.0001796
2053.16051,-0.0001782
2052.19613,-0.0001768
2051.23175,-0.0001754
2050.26737,-0.0001740
2049.30300,-0.0001726
2048.33862,-0.0001712
2047.37424,-0.0001698
2046.40986,-0.0001684
2045.44548,-0.0001670
2044.48111,-0.0001656
2043.51673,-0.0001642
2042.55235,-0.0001628
2041.58797,-0.0001614
2040.62359,-0.0001600
2039.65922,-0.0001586
2038.69484,-0.0001572
2037.73046,-0.0001558
2036.76608,-0.0001544
2035.80171,-0.0001530
2034.83733,-0.0001516
2033.87295,-0.0001502
2032.90857,-0.0001488
2031.94419,-0.0001474
2030.97982,-0.0001460
2030.01544,-0.0001446
2029.05106,-0.0001432
2028.08668,-0.0001418
2027.12230,-0.0001404
2026.15793,-0.0001390
2025.19355,-0.0001376
2024.22917,-0.0001362
2023.26479,-0.0001348
2022.30041,-0.0001334
2021.33604,-0.0001320
2020.37166,-0.0001306
2019.40728,-0.0001292
2018.44290,-0.0001278
2017.47853,-0.0001264
2016.51415,-0.0001250
2015.54977,-0.0001236
2014.58539,-0.0001222
2013.62101,-0.0001208
2012.65664,-0.0001194
2011.69226,-0.0001180
2010.72788,-0.0001166
2009.76350,-0.0001152
2008.79912,-0.0001138
2007.83475,-0.0001124
2006.87037,-0.0001110
2005.90599,-0.0001096
2004.94161,-0.0001082
2003.97724,-0.0001068
2003.01286,-0.0001054
2002.04848,-0.0001040
2001.08410,-0.0001026
2000.11972,-0.0001012
1999.15535,-0.0000998
1998.19097,-0.0000984
1997.22659,-0.0000970
1996.26221,-0.0000956
1995.29783,-0.0000942
1994.33346,-0.0000928
1993.36908,-0.0000914
1992.40470,-0.0000900
1991.44032,-0.0000886
1990.47594,-0.0000872
1989.51157,-0.0000858
1988.54719,-0.0000844
1987.58281,-0.0000830
1986.61843,-0.0000816
1985.65406,-0.0000802
1984.68968,-0.0000788
1983.72530,-0.0000774
1982.76092,-0.0000760
1981.79654,-0.0000746
1980.83217,-0.0000732
1979.86779,-0.0000718
1978.90341,-0.0000704
1977.93903,-0.0000690
1976.97465,-0.0000676
1976.01028,-0.0000662
1975.04590,-0.0000648
1974.08152,-0.0000634
1973.11714,-0.0000620
1972.15276,-0.0000606
1971.18839,-0.0000592
1970.22401,-0.0000578
1969.25963,-0.0000564
1968.29525,-0.0000550
1967.33088,-0.0000536
1966.36650,-0.0000522
1965.40212,-0.0000508
1964.43774,-0.0000494
1963.47336,-0.0000480
1962.50899,-0.0000466
1961.54461,-0.0000452
1960.58023,-0.0000438
1959.61585,-0.0000424
1958.65147,-0.0000410
1957.68710,-0.0000396
1956.72272,-0.0000382
1955.75834,-0.0000368
1954.79396,-0.0000354
1953.82959,-0.0000340
1952.86521,-0.0000326
1951.90083,-0.0000312
1950.93645,-0.0000298
1949.97207,-0.0000284
1949.00770,-0.0000270
1948.04332,-0.0000256
1947.07894,-0.0000242
1946.11456,-0.0000228
1945.15018,-0.0000214
1944.18581,-0.0000200
1943.22143,-0.0000186
1942.25705,-0.0000172
1941.29267,-0.0000158
1940.32829,-0.0000144
1939.36392,-0.0000130
1938.39954,-0.0000116
1937.43516,-0.0000102
1936.47078,-0.0000088
1935.50641,-0.0000074
1934.54203,-0.0000060
1933.57765,-0.0000047
1932.61327,-0.0000033
1931.64889,-0.0000019
1930.68452,-0.0000005
1929.72014,0.0000009
1928.75576,0.0000023
1927.79138,0.0000037
1926.82700,0.0000051
1925.86263,0.0000065
1924.89825,0.0000079
1923.93387,0.0000093
1922.96949,0.0000107
1922.00512,0.0000121
1921.04074,0.0000135
1920.07636,0.0000149
1919.11198,0.0000163
1918.14760,0.0000177
1917.18323,0.0000191
1916.21885,0.0000205
1915.25447,0.0000219
1914.29009,0.0000233
1913.32571,0.0000247
1912.36134,0.0000261
1911.39696,0.0000275
1910.43258,0.0000289
1909.46820,0.0000303
1908.50382,0.0000317
1907.53945,0.0000331
1906.57507,0.0000345
1905.61069,0.0000359
1904.64631,0.0000373
1903.68194,0.0000387
1902.71756,0.0000401
1901.75318,0.0000415
1900.78880,0.0000429
1899.82442,0.0000443
1898.86005,0.0000457
1897.89567,0.0000471
1896.93129,0.0000485
1895.96691,0.0000499
1895.00253,0.0000513
1894.03816,0.0000527
1893.07378,0.0000541
1892.10940,0.0000555
1891.14502,0.0000569
1890.18065,0.0000583
1889.21627,0.0000597
1888.25189,0.0000611
1887.28751,0.0000625
1886.32313,0.0000639
1885.35876,0.0000653
1884.39438,0.0000667
1883.43000,0.0000681
1882.46562,0.0000695
1881.50124,0.0000709
1880.53687,0.0000723
1879.57249,0.0000737
1878.60811,0.0000751
1877.64373,0.0000765
1876.67935,0.0000779
1875.71498,0.0000793
1874.75060,0.0000807
1873.78622,0.0000914
1872.82184,0.0000723
1871.85747,0.0000534
1870.89309,0.0000660
1869.92871,0.0000985
1868.96433,0.0001190
1867.99995,0.0001360
1867.03558,0.0001804
1866.07120,0.0002423
1865.10682,0.0003061
1864.14244,0.0003559
1863.17806,0.0003982
1862.21369,0.0004250
1861.24931,0.0003752
1860.28493,0.0002949
1859.32055,0.0001987
1858.35618,0.0000834
1857.39180,-0.0000405
1856.42742,-0.0001588
1855.46304,-0.0002327
1854.49866,-0.0002367
1853.53429,-0.0001909
1852.56991,-0.0001122
1851.60553,0.0000093
1850.64115,0.0001126
1849.67677,0.0001747
1848.71240,0.0002371
1847.74802,0.0002777
1846.78364,0.0002910
1845.81926,0.0002598
1844.85488,0.0001730
1843.89051,0.0001111
1842.92613,0.0001253
1841.96175,0.0001622
1840.99737,0.0001920
1840.03300,0.0002359
1839.06862,0.0002600
1838.10424,0.0002749
1837.13986,0.0002964
1836.17548,0.0002718
1835.21111,0.0002392
1834.24673,0.0002125
1833.28235,0.0001748
1832.31797,0.0001790
1831.35359,0.0002099
1830.38922,0.0002325
1829.42484,0.0002579
1828.46046,0.0003119
1827.49608,0.0003741
1826.53171,0.0003802
1825.56733,0.0003508
1824.60295,0.0003336
1823.63857,0.0003583
1822.67419,0.0003921
1821.70982,0.0003842
1820.74544,0.0003799
1819.78106,0.0003625
1818.81668,0.0003160
1817.85230,0.0002766
1816.88793,0.0002488
1815.92355,0.0002276
1814.95917,0.0001727
1813.99479,0.0001344
1813.03041,0.0001575
1812.06604,0.0001847
1811.10166,0.0001998
1810.13728,0.0002096
1809.17290,0.0002298
1808.20853,0.0002390
1807.24415,0.0002404
1806.27977,0.0002695
1805.31539,0.0002977
1804.35101,0.0003196
1803.38664,0.0003355
1802.42226,0.0003434
1801.45788,0.0003437
1800.49350,0.0003161
1799.52912,0.0002648
1798.56475,0.0002048
1797.60037,0.0001698
1796.63599,0.0001744
1795.67161,0.0002232
1794.70724,0.0002986
1793.74286,0.0003581
1792.77848,0.0004086
1791.81410,0.0004371
1790.84972,0.0004355
1789.88535,0.0004239
1788.92097,0.0003977
1787.95659,0.0003632
1786.99221,0.0003367
1786.02783,0.0003394
1785.06346,0.0003600
1784.09908,0.0003770
1783.13470,0.0003798
1782.17032,0.0003622
1781.20594,0.0003614
1780.24157,0.0003701
1779.27719,0.0003592
1778.31281,0.0003522
1777.34843,0.0003707
1776.38406,0.0004276
1775.41968,0.0004980
1774.45530,0.0005525
1773.49092,0.0006062
1772.52654,0.0006484
1771.56217,0.0006434
1770.59779,0.0006035
1769.63341,0.0005709
1768.66903,0.0005176
1767.70465,0.0004269
1766.74028,0.0003654
1765.77590,0.0003492
1764.81152,0.0003570
1763.84714,0.0003720
1762.88276,0.0003890
1761.91839,0.0004421
1760.95401,0.0005008
1759.98963,0.0005111
1759.02525,0.0004975
1758.06088,0.0004757
1757.09650,0.0004458
1756.13212,0.0004559
1755.16774,0.0005072
1754.20336,0.0005568
1753.23899,0.0006237
1752.27461,0.0007124
1751.31023,0.0007935
1750.34585,0.0008680
1749.38147,0.0009242
1748.41710,0.0009583
1747.45272,0.0009755
1746.48834,0.0009691
1745.52396,0.0009746
1744.55959,0.0010165
1743.59521,0.0010431
1742.63083,0.0010335
1741.66645,0.0010111
1740.70207,0.0009724
1739.73770,0.0009484
1738.77332,0.0009893
1737.80894,0.0010758
1736.84456,0.0011583
1735.88018,0.0012091
1734.91581,0.0012440
1733.95143,0.0012641
1732.98705,0.0012348
1732.02267,0.0011508
1731.05829,0.0010243
1730.09392,0.0008676
1729.12954,0.0007305
1728.16516,0.0006775
1727.20078,0.0006934
1726.23641,0.0007064
1725.27203,0.0006983
1724.30765,0.0006943
1723.34327,0.0007257
1722.37889,0.0007928
1721.41452,0.0008543
1720.45014,0.0009047
1719.48576,0.0009640
1718.52138,0.0010148
1717.55700,0.0010401
1716.59263,0.0010379
1715.62825,0.0010011
1714.66387,0.0009363
1713.69949,0.0008604
1712.73512,0.0007823
1711.77074,0.0007265
1710.80636,0.0007196
1709.84198,0.0007366
1708.87760,0.0007805
1707.91323,0.0008443
1706.94885,0.0008551
1705.98447,0.0008657
1705.02009,0.0009669
1704.05571,0.0011143
1703.09134,0.0012425
1702.12696,0.0013162
1701.16258,0.0013953
1700.19820,0.0015105
1699.23382,0.0016163
1698.26945,0.0016924
1697.30507,0.0017261
1696.34069,0.0016933
1695.37631,0.0016018
1694.41194,0.0015521
1693.44756,0.0015693
1692.48318,0.0015552
1691.51880,0.0014693
1690.55442,0.0013879
1689.59005,0.0014618
1688.62567,0.0016367
1687.66129,0.0017906
1686.69691,0.0019092
1685.73253,0.0019998
1684.76816,0.0020766
1683.80378,0.0021214
1682.83940,0.0021247
1681.87502,0.0020802
1680.91065,0.0020094
1679.94627,0.0019667
1678.98189,0.0019807
1678.01751,0.0020723
1677.05313,0.0021789
1676.08876,0.0022544
1675.12438,0.0023127
1674.16000,0.0023852
1673.19562,0.0024650
1672.23124,0.0025056
1671.26687,0.0024992
1670.30249,0.0024577
1669.33811,0.0024350
1668.37373,0.0024611
1667.40935,0.0024970
1666.44498,0.0025279
1665.48060,0.0025464
1664.51622,0.0025506
1663.55184,0.0025655
1662.58747,0.0026061
1661.62309,0.0026265
1660.65871,0.0026074
1659.69433,0.0025594
1658.72995,0.0025356
1657.76558,0.0026397
1656.80120,0.0028260
1655.83682,0.0030074
1654.87244,0.0031294
1653.90806,0.0031765
1652.94369,0.0031671
1651.97931,0.0031295
1651.01493,0.0030995
1650.05055,0.0030323
1649.08618,0.0029074
1648.12180,0.0027710
1647.15742,0.0026996
1646.19304,0.0027215
1645.22866,0.0027218
1644.26429,0.0026639
1643.29991,0.0025697
1642.33553,0.0024520
1641.37115,0.0023621
1640.40677,0.0023686
1639.44240,0.0024544
1638.47802,0.0025262
1637.51364,0.0025612
1636.54926,0.0025752
1635.58488,0.0025702
1634.62051,0.0025352
1633.65613,0.0024716
1632.69175,0.0024018
1631.72737,0.0023247
1630.76300,0.0022429
1629.79862,0.0021925
1628.83424,0.0022194
1627.86986,0.0022728
1626.90548,0.0023031
1625.94111,0.0023286
1624.97673,0.0023498
1624.01235,0.0023461
1623.04797,0.0022978
1622.08359,0.0022742
1621.11922,0.0023088
1620.15484,0.0023382
1619.19046,0.0023384
1618.22608,0.0023154
1617.26171,0.0022997
1616.29733,0.0022767
1615.33295,0.0022341
1614.36857,0.0022024
1613.40419,0.0021781
1612.43982,0.0021395
1611.47544,0.0020994
1610.51106,0.0021078
1609.54668,0.0021408
1608.58230,0.0021574
1607.61793,0.0021612
1606.65355,0.0021533
1605.68917,0.0021458
1604.72479,0.0021349
1603.76041,0.0021231
1602.79604,0.0021161
1601.83166,0.0021160
1600.86728,0.0021220
1599.90290,0.0021270
1598.93853,0.0021272
1597.97415,0.0021253
1597.00977,0.0021433
1596.04539,0.0021760
1595.08101,0.0022107
1594.11664,0.0022392
1593.15226,0.0022512
1592.18788,0.0022507
1591.22350,0.0022401
1590.25912,0.0022285
1589.29475,0.0022078
1588.33037,0.0021772
1587.36599,0.0021487
1586.40161,0.0021296
1585.43724,0.0021272
1584.47286,0.0021328
1583.50848,0.0021245
1582.54410,0.0020928
1581.57972,0.0021091
1580.61535,0.0022011
1579.65097,0.0023042
1578.68659,0.0023860
1577.72221,0.0024296
1576.75783,0.0024301
1575.79346,0.0024055
1574.82908,0.0023962
1573.86470,0.0023889
1572.90032,0.0023415
1571.93594,0.0022612
1570.97157,0.0021806
1570.00719,0.0021646
1569.04281,0.0021906
1568.07843,0.0021873
1567.11406,0.0021399
1566.14968,0.0020556
1565.18530,0.0019990
1564.22092,0.0020253
1563.25654,0.0021603
1562.29217,0.0023414
1561.32779,0.0024590
1560.36341,0.0025227
1559.39903,0.0025847
1558.43465,0.0026324
1557.47028,0.0026251
1556.50590,0.0025490
1555.54152,0.0024137
1554.57714,0.0022630
1553.61276,0.0021633
1552.64839,0.0021135
1551.68401,0.0020955
1550.71963,0.0020950
1549.75525,0.0020904
1548.79088,0.0020980
1547.82650,0.0021507
1546.86212,0.0022281
1545.89774,0.0022868
1544.93336,0.0023654
1543.96899,0.0025062
1543.00461,0.0026539
1542.04023,0.0027520
1541.07585,0.0027775
1540.11147,0.0027360
1539.14710,0.0026832
1538.18272,0.0026407
1537.21834,0.0025579
1536.25396,0.0024409
1535.28959,0.0023127
1534.32521,0.0021816
1533.36083,0.0021163
1532.39645,0.0021043
1531.43207,0.0020780
1530.46770,0.0020532
1529.50332,0.0020282
1528.53894,0.0019838
1527.57456,0.0019525
1526.61018,0.0019779
1525.64581,0.0020442
1524.68143,0.0020998
1523.71705,0.0021125
1522.75267,0.0021141
1521.78829,0.0021321
1520.82392,0.0021303
1519.85954,0.0021128
1518.89516,0.0020844
1517.93078,0.0020229
1516.96641,0.0019335
1516.00203,0.0018457
1515.03765,0.0017979
1514.07327,0.0017589
1513.10889,0.0016975
1512.14452,0.0016680
1511.18014,0.0017342
1510.21576,0.0018716
1509.25138,0.0019920
1508.28700,0.0020603
1507.32263,0.0020789
1506.35825,0.0020619
1505.39387,0.0019963
1504.42949,0.0018855
1503.46512,0.0017577
1502.50074,0.0016005
1501.53636,0.0014962
1500.57198,0.0015057
1499.60760,0.0015693
1498.64323,0.0016358
1497.67885,0.0016600
1496.71447,0.0016437
1495.75009,0.0016219
1494.78571,0.0016028
1493.82134,0.0015698
1492.85696,0.0015381
1491.89258,0.0015295
1490.92820,0.0015220
1489.96382,0.0015370
1488.99945,0.0015555
1488.03507,0.0015376
1487.07069,0.0015127
1486.10631,0.0014795
1485.14194,0.0014346
1484.17756,0.0014069
1483.21318,0.0013966
1482.24880,0.0013828
1481.28442,0.0013889
1480.32005,0.0014160
1479.35567,0.0014256
1478.39129,0.0014368
1477.42691,0.0014809
1476.46253,0.0015637
1475.49816,0.0016576
1474.53378,0.0017340
1473.56940,0.0017925
1472.60502,0.0018233
1471.64065,0.0018206
1470.67627,0.0018067
1469.71189,0.0018233
1468.74751,0.0018348
1467.78313,0.0018099
1466.81876,0.0018045
1465.85438,0.0018191
1464.89000,0.0018336
1463.92562,0.0018368
1462.96124,0.0018295
1461.99687,0.0018731
1461.03249,0.0019668
1460.06811,0.0020665
1459.10373,0.0021581
1458.13935,0.0022341
1457.17498,0.0022762
1456.21060,0.0022728
1455.24622,0.0022282
1454.28184,0.0021295
1453.31747,0.0020008
1452.35309,0.0018904
1451.38871,0.0018167
1450.42433,0.0018138
1449.45995,0.0018578
1448.49558,0.0018925
1447.53120,0.0019176
1446.56682,0.0019403
1445.60244,0.0019617
1444.63806,0.0019776
1443.67369,0.0019663
1442.70931,0.0019332
1441.74493,0.0019469
1440.78055,0.0020249
1439.81618,0.0020963
1438.85180,0.0021396
1437.88742,0.0021779
1436.92304,0.0022132
1435.95866,0.0022373
1434.99429,0.0022402
1434.02991,0.0022197
1433.06553,0.0021791
1432.10115,0.0021192
1431.13677,0.0020579
1430.17240,0.0020447
1429.20802,0.0020665
1428.24364,0.0020749
1427.27926,0.0020866
1426.31488,0.0020975
1425.35051,0.0021126
1424.38613,0.0021786
1423.42175,0.0022751
1422.45737,0.0023682
1421.49300,0.0024467
1420.52862,0.0025083
1419.56424,0.0025547
1418.59986,0.0025875
1417.63548,0.0026080
1416.67111,0.0026039
1415.70673,0.0025685
1414.74235,0.0025046
1413.77797,0.0024561
1412.81359,0.0024550
1411.84922,0.0024540
1410.88484,0.0024502
1409.92046,0.0024725
1408.95608,0.0025087
1407.99171,0.0025430
1407.02733,0.0025609
1406.06295,0.0025530
1405.09857,0.0025292
1404.13419,0.0025099
1403.16982,0.0024969
1402.20544,0.0024802
1401.24106,0.0024591
1400.27668,0.0024483
1399.31230,0.0024756
1398.34793,0.0025286
1397.38355,0.0025723
1396.41917,0.0025937
1395.45479,0.0025830
1394.49041,0.0025464
1393.52604,0.0025137
1392.56166,0.0025091
1391.59728,0.0025095
1390.63290,0.0024895
1389.66853,0.0024648
1388.70415,0.0024489
1387.73977,0.0024500
1386.77539,0.0024592
1385.81101,0.0024577
1384.84664,0.0024450
1383.88226,0.0024241
1382.91788,0.0024084
1381.95350,0.0024069
1380.98912,0.0024192
1380.02475,0.0024365
1379.06037,0.0024534
1378.09599,0.0024779
1377.13161,0.0024870
1376.16724,0.0024770
1375.20286,0.0024672
1374.23848,0.0024520
1373.27410,0.0024405
1372.30972,0.0024296
1371.34535,0.0024069
1370.38097,0.0023663
1369.41659,0.0023174
1368.45221,0.0023019
1367.48783,0.0023205
1366.52346,0.0023513
1365.55908,0.0023764
1364.59470,0.0023784
1363.63032,0.0023790
1362.66594,0.0023927
1361.70157,0.0024142
1360.73719,0.0024249
1359.77281,0.0024050
1358.80843,0.0023605
1357.84406,0.0023140
1356.87968,0.0022953
1355.91530,0.0022956
1354.95092,0.0022989
1353.98654,0.0022996
1353.02217,0.0022812
1352.05779,0.0022653
1351.09341,0.0022661
1350.12903,0.0022698
1349.16465,0.0022642
1348.20028,0.0022410
1347.23590,0.0022129
1346.27152,0.0021909
1345.30714,0.0021774
1344.34276,0.0021707
1343.37839,0.0021683
1342.41401,0.0021684
1341.44963,0.0021668
1340.48525,0.0021663
1339.52088,0.0021655
1338.55650,0.0021570
1337.59212,0.0021334
1336.62774,0.0021053
1335.66336,0.0020804
1334.69899,0.0020481
1333.73461,0.0020138
1332.77023,0.0019863
1331.80585,0.0019737
1330.84147,0.0019699
1329.87710,0.0019642
1328.91272,0.0019608
1327.94834,0.0019540
1326.98396,0.0019419
1326.01959,0.0019269
1325.05521,0.0019181
1324.09083,0.0019113
1323.12645,0.0018938
1322.16207,0.0018824
1321.19770,0.0018820
1320.23332,0.0018961
1319.26894,0.0019182
1318.30456,0.0019278
1317.34018,0.0019299
1316.37581,0.0019229
1315.41143,0.0019065
1314.44705,0.0018878
1313.48267,0.0018726
1312.51829,0.0018556
1311.55392,0.0018333
1310.58954,0.0018222
1309.62516,0.0018205
1308.66078,0.0018280
1307.69641,0.0018407
1306.73203,0.0018469
1305.76765,0.0018487
1304.80327,0.0018399
1303.83889,0.0018171
1302.87452,0.0017865
1301.91014,0.0017658
1300.94576,0.0017549
1299.98138,0.0017451
1299.01700,0.0017468
1298.05263,0.0017520
1297.08825,0.0017606
1296.12387,0.0017773
1295.15949,0.0017852
1294.19512,0.0017782
1293.23074,0.0017639
1292.26636,0.0017433
1291.30198,0.0017158
1290.33760,0.0017067
1289.37323,0.0017190
1288.40885,0.0017253
1287.44447,0.0017245
1286.48009,0.0017193
1285.51571,0.0017154
1284.55134,0.0017204
1283.58696,0.0017232
1282.62258,0.0017181
1281.65820,0.0017166
1280.69382,0.0017244
1279.72945,0.0017309
1278.76507,0.0017361
1277.80069,0.0017469
1276.83631,0.0017516
1275.87194,0.0017445
1274.90756,0.0017424
1273.94318,0.0017508
1272.97880,0.0017623
1272.01442,0.0017724
1271.05005,0.0017724
1270.08567,0.0017736
1269.12129,0.0017852
1268.15691,0.0017855
1267.19253,0.0017695
1266.22816,0.0017597
1265.26378,0.0017611
1264.29940,0.0017637
1263.33502,0.0017763
1262.37065,0.0017920
1261.40627,0.0017971
1260.44189,0.0017959
1259.47751,0.0017913
1258.51313,0.0017982
1257.54876,0.0018073
1256.58438,0.0018005
1255.62000,0.0017973
1254.65562,0.0018002
1253.69124,0.0017971
1252.72687,0.0017934
1251.76249,0.0017948
1250.79811,0.0017969
1249.83373,0.0017931
1248.86935,0.0017861
1247.90498,0.0017881
1246.94060,0.0017998
1245.97622,0.0018004
1245.01184,0.0017925
1244.04747,0.0017905
1243.08309,0.0017794
1242.11871,0.0017624
1241.15433,0.0017575
1240.18995,0.0017560
1239.22558,0.0017527
1238.26120,0.0017525
1237.29682,0.0017506
1236.33244,0.0017446
1235.36806,0.0017372
1234.40369,0.0017280
1233.43931,0.0017150
1232.47493,0.0017024
1231.51055,0.0016980
1230.54618,0.0017015
1229.58180,0.0017071
1228.61742,0.0017116
1227.65304,0.0017177
1226.68866,0.0017277
1225.72429,0.0017366
1224.75991,0.0017469
1223.79553,0.0017601
1222.83115,0.0017660
1221.86677,0.0017643
1220.90240,0.0017601
1219.93802,0.0017483
1218.97364,0.0017239
1218.00926,0.0016966
1217.04488,0.0016761
1216.08051,0.0016622
1215.11613,0.0016617
1214.15175,0.0016692
1213.18737,0.0016716
1212.22300,0.0016718
1211.25862,0.0016742
1210.29424,0.0016821
1209.32986,0.0016841
1208.36548,0.0016763
1207.40111,0.0016762
1206.43673,0.0016788
1205.47235,0.0016730
1204.50797,0.0016644
1203.54359,0.0016647
1202.57922,0.0016716
1201.61484,0.0016705
1200.65046,0.0016723
1199.68608,0.0016820
1198.72171,0.0016894
1197.75733,0.0016957
1196.79295,0.0017084
1195.82857,0.0017317
1194.86419,0.0017481
1193.89982,0.0017490
1192.93544,0.0017446
1191.97106,0.0017399
1191.00668,0.0017414
1190.04230,0.0017468
1189.07793,0.0017561
1188.11355,0.0017741
1187.14917,0.0017989
1186.18479,0.0018280
1185.22041,0.0018548
1184.25604,0.0018730
1183.29166,0.0018765
1182.32728,0.0018709
1181.36290,0.0018692
1180.39853,0.0018725
1179.43415,0.0018864
1178.46977,0.0019086
1177.50539,0.0019252
1176.54101,0.0019393
1175.57664,0.0019606
1174.61226,0.0019847
1173.64788,0.0020025
1172.68350,0.0020047
1171.71912,0.0019911
1170.75475,0.0019887
1169.79037,0.0020091
1168.82599,0.0020360
1167.86161,0.0020640
1166.89724,0.0020861
1165.93286,0.0020979
1164.96848,0.0021086
1164.00410,0.0021166
1163.03972,0.0021157
1162.07535,0.0021151
1161.11097,0.0021203
1160.14659,0.0021280
1159.18221,0.0021457
1158.21783,0.0021701
1157.25346,0.0021917
1156.28908,0.0022155
1155.32470,0.0022371
1154.36032,0.0022509
1153.39594,0.0022552
1152.43157,0.0022364
1151.46719,0.0022090
1150.50281,0.0022089
1149.53843,0.0022299
1148.57406,0.0022517
1147.60968,0.0022778
1146.64530,0.0023086
1145.68092,0.0023309
1144.71654,0.0023355
1143.75217,0.0023214
1142.78779,0.0022930
1141.82341,0.0022625
1140.85903,0.0022350
1139.89465,0.0022239
1138.93028,0.0022374
1137.96590,0.0022570
1137.00152,0.0022883
1136.03714,0.0023393
1135.07276,0.0023985
1134.10839,0.0024538
1133.14401,0.0024909
1132.17963,0.0025102
1131.21525,0.0025219
1130.25088,0.0025212
1129.28650,0.0024901
1128.32212,0.0024636
1127.35774,0.0024715
1126.39336,0.0024854
1125.42899,0.0025085
1124.46461,0.0025431
1123.50023,0.0025801
1122.53585,0.0026171
1121.57147,0.0026480
1120.60710,0.0026642
1119.64272,0.0026580
1118.67834,0.0026320
1117.71396,0.0025843
1116.74959,0.0025674
1115.78521,0.0025949
1114.82083,0.0026128
1113.85645,0.0026288
1112.89207,0.0026490
1111.92770,0.0026686
1110.96332,0.0026806
1109.99894,0.0026821
1109.03456,0.0026842
1108.07018,0.0026800
1107.10581,0.0026704
1106.14143,0.0026536
1105.17705,0.0026540
1104.21267,0.0026757
1103.24829,0.0026944
1102.28392,0.0027209
1101.31954,0.0027591
1100.35516,0.0028018
1099.39078,0.0028178
1098.42641,0.0028078
1097.46203,0.0027966
1096.49765,0.0027632
1095.53327,0.0027091
1094.56889,0.0026602
1093.60452,0.0026302
1092.64014,0.0026199
1091.67576,0.0026268
1090.71138,0.0026453
1089.74700,0.0026767
1088.78263,0.0027204
1087.81825,0.0027494
1086.85387,0.0027651
1085.88949,0.0027669
1084.92512,0.0027426
1083.96074,0.0027152
1082.99636,0.0026967
1082.03198,0.0026876
1081.06760,0.0026885
1080.10323,0.0026885
1079.13885,0.0026795
1078.17447,0.0026670
1077.21009,0.0026716
1076.24571,0.0026961
1075.28134,0.0027217
1074.31696,0.0027418
1073.35258,0.0027686
1072.38820,0.0028151
1071.42382,0.0028658
1070.45945,0.0029074
1069.49507,0.0029439
1068.53069,0.0029562
1067.56631,0.0029332
1066.60194,0.0028862
1065.63756,0.0028484
1064.67318,0.0028353
1063.70880,0.0028200
1062.74442,0.0028107
1061.78005,0.0028194
1060.81567,0.0028385
1059.85129,0.0028660
1058.88691,0.0029063
1057.92253,0.0029629
1056.95816,0.0029984
1055.99378,0.0030037
1055.02940,0.0030010
1054.06502,0.0029986
1053.10065,0.0029979
1052.13627,0.0029823
1051.17189,0.0029612
1050.20751,0.0029436
1049.24313,0.0029281
1048.27876,0.0029268
1047.31438,0.0029367
1046.35000,0.0029390
1045.38562,0.0029156
1044.42124,0.0028874
1043.45687,0.0028751
1042.49249,0.0028637
1041.52811,0.0028438
1040.56373,0.0028245
1039.59935,0.0028234
1038.63498,0.0028357
1037.67060,0.0028497
1036.70622,0.0028686
1035.74184,0.0028870
1034.77747,0.0028968
1033.81309,0.0029043
1032.84871,0.0029214
1031.88433,0.0029354
1030.91995,0.0029234
1029.95558,0.0029034
1028.99120,0.0028989
1028.02682,0.0029010
1027.06244,0.0028950
1026.09806,0.0028829
1025.13369,0.0028874
1024.16931,0.0029037
1023.20493,0.0029186
1022.24055,0.0029332
1021.27618,0.0029274
1020.31180,0.0028960
1019.34742,0.0028524
1018.38304,0.0028245
1017.41866,0.0028150
1016.45429,0.0027912
1015.48991,0.0027487
1014.52553,0.0027039
1013.56115,0.0026825
1012.59677,0.0026661
1011.63240,0.0026485
1010.66802,0.0026461
1009.70364,0.0026341
1008.73926,0.0026184
1007.77488,0.0025939
1006.81051,0.0025754
1005.84613,0.0025680
1004.88175,0.0025289
1003.91737,0.0024826
1002.95300,0.0024458
1001.98862,0.0024224
1001.02424,0.0024295
1000.05986,0.0024626
999.09548,0.0024943
998.13111,0.0024868
997.16673,0.0024522
996.20235,0.0024131
995.23797,0.0023860
994.27359,0.0023571
993.30922,0.0023149
992.34484,0.0022949
991.38046,0.0022870
990.41608,0.0022832
989.45171,0.0022939
988.48733,0.0022857
987.52295,0.0022237
986.55857,0.0021436
985.59419,0.0021180
984.62982,0.0021369
983.66544,0.0021298
982.70106,0.0020885
981.73668,0.0020729
980.77230,0.0020923
979.80793,0.0021190
978.84355,0.0021439
977.87917,0.0021453
976.91479,0.0021206
975.95041,0.0020852
974.98604,0.0020713
974.02166,0.0020943
973.05728,0.0021011
972.09290,0.0020557
971.12853,0.0020112
970.16415,0.0020134
969.19977,0.0020204
968.23539,0.0020193
967.27101,0.0020299
966.30664,0.0020357
965.34226,0.0020313
964.37788,0.0020104
963.41350,0.0019742
962.44912,0.0019581
961.48475,0.0019780
960.52037,0.0020007
959.55599,0.0020092
958.59161,0.0020123
957.62724,0.0020028
956.66286,0.0019988
955.69848,0.0020192
954.73410,0.0020275
953.76972,0.0019983
952.80535,0.0019440
951.84097,0.0018923
950.87659,0.0018916
949.91221,0.0019219
948.94783,0.0019102
947.98346,0.0018812
947.01908,0.0018816
946.05470,0.0018949
945.09032,0.0019114
944.12594,0.0019253
943.16157,0.0019050
942.19719,0.0018594
941.23281,0.0018223
940.26843,0.0017920
939.30406,0.0017839
938.33968,0.0017874
937.37530,0.0017852
936.41092,0.0017973
935.44654,0.0018032
934.48217,0.0017933
933.51779,0.0017817
932.55341,0.0017839
931.58903,0.0017987
930.62465,0.0018024
929.66028,0.0017991
928.69590,0.0017870
927.73152,0.0017874
926.76714,0.0018221
925.80276,0.0018588
924.83839,0.0018739
923.87401,0.0018681
922.90963,0.0018444
921.94525,0.0018127
920.98088,0.0018157
920.01650,0.0018426
919.05212,0.0018347
918.08774,0.0018013
917.12336,0.0017583
916.15899,0.0017132
915.19461,0.0016770
914.23023,0.0016504
913.26585,0.0016492
912.30147,0.0016566
911.33710,0.0016467
910.37272,0.0016465
909.40834,0.0016816
908.44396,0.0017188
907.47959,0.0017115
906.51521,0.0016820
905.55083,0.0016673
904.58645,0.0016528
903.62207,0.0016395
902.65770,0.0016515
901.69332,0.0016848
900.72894,0.0016982
899.76456,0.0016865
898.80018,0.0016739
897.83581,0.0016398
896.87143,0.0016146
895.90705,0.0016268
894.94267,0.0016682
893.97829,0.0017344
893.01392,0.0017693
892.04954,0.0017909
891.08516,0.0018282
890.12078,0.0018464
889.15641,0.0018412
888.19203,0.0018402
887.22765,0.0018579
886.26327,0.0018444
885.29889,0.0018442
884.33452,0.0018891
883.37014,0.0019106
882.40576,0.0019172
881.44138,0.0018962
880.47700,0.0018648
879.51263,0.0018438
878.54825,0.0018080
877.58387,0.0017930
876.61949,0.0018011
875.65512,0.0017789
874.69074,0.0016974
873.72636,0.0016248
872.76198,0.0015982
871.79760,0.0015965
870.83323,0.0016175
869.86885,0.0016250
868.90447,0.0016576
867.94009,0.0017227
866.97571,0.0017643
866.01134,0.0018009
865.04696,0.0018290
864.08258,0.0018147
863.11820,0.0017564
862.15382,0.0017159
861.18945,0.0017248
860.22507,0.0017399
859.26069,0.0017273
858.29631,0.0017057
857.33194,0.0017217
856.36756,0.0017481
855.40318,0.0017472
854.43880,0.0017221
853.47442,0.0016913
852.51005,0.0016653
851.54567,0.0016303
850.58129,0.0016186
849.61691,0.0016331
848.65253,0.0016368
847.68816,0.0016339
846.72378,0.0016425
845.75940,0.0016759
844.79502,0.0017319
843.83065,0.0017844
842.86627,0.0017984
841.90189,0.0018051
840.93751,0.0018281
839.97313,0.0018367
839.00876,0.0018246
838.04438,0.0017801
837.08000,0.0017212
836.11562,0.0016609
835.15124,0.0016101
834.18687,0.0016191
833.22249,0.0016719
832.25811,0.0017327
831.29373,0.0017915
830.32935,0.0018442
829.36498,0.0018731
828.40060,0.0018716
827.43622,0.0018578
826.47184,0.0018127
825.50747,0.0017478
824.54309,0.0016983
823.57871,0.0016796
822.61433,0.0016707
821.64995,0.0016390
820.68558,0.0016202
819.72120,0.0016336
818.75682,0.0016549
817.79244,0.0016534
816.82806,0.0016533
815.86369,0.0016876
814.89931,0.0017140
813.93493,0.0017467
812.97055,0.0018147
812.00618,0.0018856
811.04180,0.0019225
810.07742,0.0019225
809.11304,0.0019108
808.14866,0.0019028
807.18429,0.0019068
806.21991,0.0018891
805.25553,0.0018549
804.29115,0.0018304
803.32677,0.0017820
802.36240,0.0017351
801.39802,0.0017374
800.43364,0.0017682
799.46926,0.0017826
798.50488,0.0017788
797.54051,0.0017729
796.57613,0.0017647
795.61175,0.0017624
794.64737,0.0017588
793.68300,0.0017425
792.71862,0.0016998
791.75424,0.0016256
790.78986,0.0015655
789.82548,0.0015746
788.86111,0.0016162
787.89673,0.0016445
786.93235,0.0017012
785.96797,0.0017646
785.00359,0.0018086
784.03922,0.0018523
783.07484,0.0018840
782.11046,0.0019052
781.14608,0.0018952
780.18171,0.0018600
779.21733,0.0018350
778.25295,0.0018277
777.28857,0.0017989
776.32419,0.0017439
775.35982,0.0017382
774.39544,0.0017565
773.43106,0.0017649
772.46668,0.0017719
771.50230,0.0017770
770.53793,0.0018112
769.57355,0.0018508
768.60917,0.0018737
767.64479,0.0018776
766.68041,0.0018631
765.71604,0.0018245
764.75166,0.0018063
763.78728,0.0018698
762.82290,0.0019168
761.85853,0.0019056
760.89415,0.0018505
759.92977,0.0017475
758.96539,0.0016680
758.00101,0.0016254
757.03664,0.0016086
756.07226,0.0015932
755.10788,0.0015748
754.14350,0.0016033
753.17912,0.0016966
752.21475,0.0018217
751.25037,0.0019132
750.28599,0.0019738
749.32161,0.0019756
748.35724,0.0019384
747.39286,0.0019703
746.42848,0.0020010
745.46410,0.0019576
744.49972,0.0018980
743.53535,0.0018796
742.57097,0.0019147
741.60659,0.0019441
740.64221,0.0019207
739.67783,0.0018969
738.71346,0.0019126
737.74908,0.0019166
736.78470,0.0019308
735.82032,0.0019611
734.85594,0.0019220
733.89157,0.0018565
732.92719,0.0018456
731.96281,0.0018606
730.99843,0.0018558
730.03406,0.0018460
729.06968,0.0018779
728.10530,0.0019766
727.14092,0.0020903
726.17654,0.0021668
725.21217,0.0022391
724.24779,0.0022734
723.28341,0.0022560
722.31903,0.0022400
721.35465,0.0022007
720.39028,0.0021368
719.42590,0.0020841
718.46152,0.0020968
717.49714,0.0021796
716.53276,0.0022425
715.56839,0.0022611
714.60401,0.0022833
713.63963,0.0023169
712.67525,0.0022990
711.71088,0.0022347
710.74650,0.0021925
709.78212,0.0021623
708.81774,0.0021237
707.85336,0.0020877
706.88899,0.0020723
705.92461,0.0020638
704.96023,0.0020491
703.99585,0.0020613
703.03147,0.0020858
702.06710,0.0020841
701.10272,0.0020584
700.13834,0.0020441
699.17396,0.0020554
698.20959,0.0020440
697.24521,0.0020098
696.28083,0.0019884
695.31645,0.0019712
694.35207,0.0019588
693.38770,0.0019609
692.42332,0.0019744
691.45894,0.0019916
690.49456,0.0020121
689.53018,0.0020489
688.56581,0.0020909
687.60143,0.0020946
686.63705,0.0020536
685.67267,0.0020246
684.70829,0.0020293
683.74392,0.0020338
682.77954,0.0020463
681.81516,0.0020794
680.85078,0.0021079
679.88641,0.0021204
678.92203,0.0021222
677.95765,0.0021295
676.99327,0.0021276
676.02889,0.0020821
675.06452,0.0019907
674.10014,0.0019079
673.13576,0.0019730
672.17138,0.0021615
671.20700,0.0023537
670.24263,0.0025128
669.27825,0.0026011
668.31387,0.0026320
667.34949,0.0026238
666.38512,0.0025640
665.42074,0.0024594
664.45636,0.0022928
663.49198,0.0020896
662.52760,0.0019576
661.56323,0.0019848
660.59885,0.0020660
659.63447,0.0020932
658.67009,0.0020975
657.70571,0.0021119
656.74134,0.0021345
655.77696,0.0021319
654.81258,0.0021134
653.84820,0.0021122
652.88382,0.0021113
651.91945,0.0021184
650.95507,0.0021297
649.99069,0.0021285
649.02631,0.0021279
648.06194,0.0021071
647.09756,0.0020550
646.13318,0.0020169
645.16880,0.0020003
644.20442,0.0019710
643.24005,0.0019492
642.27567,0.0019527
641.31129,0.0019661
640.34691,0.0019881
639.38253,0.0020252
638.41816,0.0020894
637.45378,0.0021747
636.48940,0.0022361
635.52502,0.0022269
634.56065,0.0021836
633.59627,0.0021266
632.63189,0.0019955
631.66751,0.0018183
630.70313,0.0016036
629.73876,0.0015350
628.77438,0.0017543
627.81000,0.0018556
626.84562,0.0018463
625.88124,0.0018240
624.91687,0.0019807
623.95249,0.0021434
622.98811,0.0019756
622.02373,0.0018201
621.05935,0.0018554
620.09498,0.0022186
619.13060,0.0026945
618.16622,0.0033067
617.20184,0.0040609
616.23747,0.0043354
615.27309,0.0049178
614.30871,0.0059213
613.34433,0.0066492
612.37995,0.0066920
611.41558,0.0062126
610.45120,0.0058648
609.48682,0.0054026
608.52244,0.0048202
607.55806,0.0041569
606.59369,0.0033701
605.62931,0.0027096
604.66493,0.0022919
603.70055,0.0025638
602.73618,0.0030760
601.77180,0.0032154
600.80742,0.0031838
599.84304,0.0032113
598.87866,0.0031731
597.91429,0.0028258
596.94991,0.0024642
595.98553,0.0022528
595.02115,0.0020154
594.05677,0.0019304
593.09240,0.0020544
592.12802,0.0022230
591.16364,0.0024503
590.19926,0.0026057
589.23488,0.0025691
588.27051,0.0024605
587.30613,0.0023036
586.34175,0.0021511
585.37737,0.0020597
584.41300,0.0020474
583.44862,0.0021125
582.48424,0.0022118
581.51986,0.0023723
580.55548,0.0025389
579.59111,0.0026355
578.62673,0.0026030
577.66235,0.0024704
576.69797,0.0023163
575.73359,0.0021313
574.76922,0.0019804
573.80484,0.0018417
572.84046,0.0017462
571.87608,0.0017681
570.91171,0.0018598
569.94733,0.0020166
568.98295,0.0021474
568.01857,0.0022361
567.05419,0.0023312
566.08982,0.0024067
565.12544,0.0024147
564.16106,0.0023722
563.19668,0.0023562
562.23230,0.0023461
561.26793,0.0023732
560.30355,0.0023954
559.33917,0.0023972
558.37479,0.0023881
557.41041,0.0022658
556.44604,0.0021854
555.48166,0.0022183
554.51728,0.0022730
553.55290,0.0023053
552.58853,0.0022987
551.62415,0.0023492
550.65977,0.0024083
549.69539,0.0023541
548.73101,0.0022344
547.76664,0.0021707
546.80226,0.0020832
545.83788,0.0019167
544.87350,0.0018270
543.90912,0.0017886
542.94475,0.0017658
541.98037,0.0017627
541.01599,0.0017509
540.05161,0.0017714
539.08724,0.0017650
538.12286,0.0017452
537.15848,0.0017772
536.19410,0.0018362
535.22972,0.0019073
534.26535,0.0019607
533.30097,0.0020203
532.33659,0.0021326
531.37221,0.0022584
530.40783,0.0022761
529.44346,0.0021447
528.47908,0.0020198
527.51470,0.0019856
526.55032,0.0019930
525.58594,0.0019936
524.62157,0.0019941
523.65719,0.0020376
522.69281,0.0020626
521.72843,0.0020990
520.76406,0.0021473
519.79968,0.0020857
518.83530,0.0019847
517.87092,0.0018917
516.90654,0.0018519
515.94217,0.0018831
514.97779,0.0018989
514.01341,0.0019615
513.04903,0.0021048
512.08465,0.0022749
511.12028,0.0023564
510.15590,0.0023275
509.19152,0.0022526
508.22714,0.0021496
507.26276,0.0020938
506.29839,0.0019869
505.33401,0.0017909
504.36963,0.0016368
503.40525,0.0015724
502.44088,0.0016588
501.47650,0.0018613
500.51212,0.0020555
499.54774,0.0021626
498.58336,0.0022395
497.61899,0.0023231
496.65461,0.0023665
495.69023,0.0023924
494.72585,0.0023868
493.76147,0.0023276
492.79710,0.0022506
491.83272,0.0022204
490.86834,0.0021535
489.90396,0.0019683
488.93959,0.0017732
487.97521,0.0016495
487.01083,0.0016532
486.04645,0.0017338
485.08207,0.0018499
484.11770,0.0019827
483.15332,0.0020625
482.18894,0.0020960
481.22456,0.0020864
480.26018,0.0020936
479.29581,0.0020319
478.33143,0.0018685
477.36705,0.0017872
476.40267,0.0018159
475.43829,0.0019144
474.47392,0.0020082
473.50954,0.0020882
472.54516,0.0021293
471.58078,0.0021140
470.61641,0.0020912
469.65203,0.0020186
468.68765,0.0020315
467.72327,0.0021482
466.75889,0.0022477
465.79452,0.0023261
464.83014,0.0023257
463.86576,0.0022920
462.90138,0.0022314
461.93700,0.0021346
460.97263,0.0020753
460.00825,0.0020254
459.04387,0.0019599
458.07949,0.0018909
457.11512,0.0019034
456.15074,0.0020348
455.18636,0.0021519
454.22198,0.0021571
453.25760,0.0020560
452.29323,0.0019390
451.32885,0.0018463
450.36447,0.0017185
449.40009,0.0016492
448.43571,0.0016998
447.47134,0.0017824
446.50696,0.0018639
445.54258,0.0019236
444.57820,0.0020046
443.61382,0.0020668
442.64945,0.0020578
441.68507,0.0020629
440.72069,0.0020870
439.75631,0.0021175
438.79194,0.0020918
437.82756,0.0020881
436.86318,0.0021945
435.89880,0.0022418
434.93442,0.0022117
433.97005,0.0021247
433.00567,0.0020244
432.04129,0.0019699
431.07691,0.0019214
430.11253,0.0019207
429.14816,0.0019366
428.18378,0.0019653
427.21940,0.0019978
426.25502,0.0019865
425.29065,0.0019674
424.32627,0.0019537
423.36189,0.0019952
422.39751,0.0020799
421.43313,0.0021836
420.46876,0.0022767
419.50438,0.0022880
418.54000,0.0022818
417.57562,0.0023038
416.61124,0.0023094
415.64687,0.0022378
414.68249,0.0021110
413.71811,0.0020186
412.75373,0.0019859
411.78935,0.0020180
410.82498,0.0020839
409.86060,0.0021149
408.89622,0.0020851
407.93184,0.0020364
406.96747,0.0019876
406.00309,0.0019195
405.03871,0.0018681
404.07433,0.0018681
403.10995,0.0018681
402.14558,0.0018681
401.18120,0.0018681
400.21682,0.0018681
399.25244,0.0018681
