3998.31069,-0.0080046
3997.34631,-0.0080046
3996.38194,-0.0080046
3995.41756,-0.0080046
3994.45318,-0.0080046
3993.48880,-0.0080046
3992.52442,-0.0080046
3991.56005,-0.0081208
3990.59567,-0.0081911
3989.63129,-0.0082502
3988.66691,-0.0082687
3987.70253,-0.0082775
3986.73816,-0.0082469
3985.77378,-0.0081566
3984.80940,-0.0081197
3983.84502,-0.0081364
3982.88065,-0.0081454
3981.91627,-0.0081107
3980.95189,-0.0080787
3979.98751,-0.0080435
3979.02313,-0.0079765
3978.05876,-0.0079426
3977.09438,-0.0079269
3976.13000,-0.0079234
3975.16562,-0.0079288
3974.20124,-0.0079406
3973.23687,-0.0079588
3972.27249,-0.0079199
3971.30811,-0.0078353
3970.34373,-0.0077435
3969.37935,-0.0076764
3968.41498,-0.0076364
3967.45060,-0.0076088
3966.48622,-0.0076003
3965.52184,-0.0075809
3964.55747,-0.0075958
3963.59309,-0.0076831
3962.62871,-0.0077577
3961.66433,-0.0077772
3960.69995,-0.0077928
3959.73558,-0.0078287
3958.77120,-0.0078792
3957.80682,-0.0079541
3956.84244,-0.0080217
3955.87806,-0.0080490
3954.91369,-0.0080072
3953.94931,-0.0079151
3952.98493,-0.0078755
3952.02055,-0.0078797
3951.05618,-0.0078471
3950.09180,-0.0077698
3949.12742,-0.0077096
3948.16304,-0.0077254
3947.19866,-0.0077914
3946.23429,-0.0078572
3945.26991,-0.0078707
3944.30553,-0.0078370
3943.34115,-0.0078082
3942.37677,-0.0078021
3941.41240,-0.0078362
3940.44802,-0.0078809
3939.48364,-0.0078875
3938.51926,-0.0078397
3937.55488,-0.0077861
3936.59051,-0.0077513
3935.62613,-0.0076875
3934.66175,-0.0076154
3933.69737,-0.0075100
3932.73300,-0.0074142
3931.76862,-0.0074426
3930.80424,-0.0075005
3929.83986,-0.0075318
3928.87548,-0.0076141
3927.91111,-0.0077250
3926.94673,-0.0077944
3925.98235,-0.0078210
3925.01797,-0.0077638
3924.05359,-0.0076369
3923.08922,-0.0075446
3922.12484,-0.0074366
3921.16046,-0.0073295
3920.19608,-0.0072856
3919.23171,-0.0072510
3918.26733,-0.0072694
3917.30295,-0.0073548
3916.33857,-0.0074279
3915.37419,-0.0074634
3914.40982,-0.0074650
3913.44544,-0.0074184
3912.48106,-0.0073923
3911.51668,-0.0074109
3910.55230,-0.0073730
3909.58793,-0.0073026
3908.62355,-0.0072425
3907.65917,-0.0072308
3906.69479,-0.0072820
3905.73041,-0.0073307
3904.76604,-0.0073730
3903.80166,-0.0073778
3902.83728,-0.0073501
3901.87290,-0.0073241
3900.90853,-0.0073166
3899.94415,-0.0072861
3898.97977,-0.0071916
3898.01539,-0.0071656
3897.05101,-0.0071959
3896.08664,-0.0071876
3895.12226,-0.0071982
3894.15788,-0.0072848
3893.19350,-0.0074177
3892.22912,-0.0074683
3891.26475,-0.0074288
3890.30037,-0.0073663
3889.33599,-0.0072900
3888.37161,-0.0071737
3887.40724,-0.0070598
3886.44286,-0.0070820
3885.47848,-0.0071260
3884.51410,-0.0070901
3883.54972,-0.0071087
3882.58535,-0.0071967
3881.62097,-0.0072784
3880.65659,-0.0073062
3879.69221,-0.0072941
3878.72783,-0.0072694
3877.76346,-0.0072431
3876.79908,-0.0072619
3875.83470,-0.0073115
3874.87032,-0.0073137
3873.90594,-0.0072388
3872.94157,-0.0071237
3871.97719,-0.0070023
3871.01281,-0.0069172
3870.04843,-0.0068831
3869.08406,-0.0068530
3868.11968,-0.0068295
3867.15530,-0.0068186
3866.19092,-0.0068844
3865.22654,-0.0070698
3864.26217,-0.0072082
3863.29779,-0.0072200
3862.33341,-0.0072065
3861.36903,-0.0072148
3860.40465,-0.0072631
3859.44028,-0.0073164
3858.47590,-0.0072797
3857.51152,-0.0071346
3856.54714,-0.0069353
3855.58276,-0.0067424
3854.61839,-0.0066680
3853.65401,-0.0067027
3852.68963,-0.0067241
3851.72525,-0.0067574
3850.76088,-0.0068438
3849.79650,-0.0069627
3848.83212,-0.0071003
3847.86774,-0.0071910
3846.90336,-0.0072093
3845.93899,-0.0071566
3844.97461,-0.0070464
3844.01023,-0.0069704
3843.04585,-0.0069507
3842.08147,-0.0069029
3841.11710,-0.0068037
3840.15272,-0.0067039
3839.18834,-0.0066477
3838.22396,-0.0066310
3837.25959,-0.0066395
3836.29521,-0.0066663
3835.33083,-0.0066708
3834.36645,-0.0066564
3833.40207,-0.0066775
3832.43770,-0.0067370
3831.47332,-0.0067843
3830.50894,-0.0068263
3829.54456,-0.0068598
3828.58018,-0.0068649
3827.61581,-0.0069387
3826.65143,-0.0070297
3825.68705,-0.0070235
3824.72267,-0.0069462
3823.75829,-0.0068105
3822.79392,-0.0067208
3821.82954,-0.0067011
3820.86516,-0.0066603
3819.90078,-0.0066134
3818.93641,-0.0066140
3817.97203,-0.0066513
3817.00765,-0.0066579
3816.04327,-0.0066859
3815.07889,-0.0067331
3814.11452,-0.0067623
3813.15014,-0.0067841
3812.18576,-0.0067709
3811.22138,-0.0067889
3810.25700,-0.0067846
3809.29263,-0.0067128
3808.32825,-0.0066628
3807.36387,-0.0066475
3806.39949,-0.0066166
3805.43512,-0.0065132
3804.47074,-0.0064336
3803.50636,-0.0064306
3802.54198,-0.0064951
3801.57760,-0.0065945
3800.61323,-0.0066183
3799.64885,-0.0066243
3798.68447,-0.0066383
3797.72009,-0.0066462
3796.75571,-0.0066627
3795.79134,-0.0066493
3794.82696,-0.0066198
3793.86258,-0.0066041
3792.89820,-0.0066291
3791.93382,-0.0066980
3790.96945,-0.0068397
3790.00507,-0.0069687
3789.04069,-0.0069504
3788.07631,-0.0068638
3787.11194,-0.0067362
3786.14756,-0.0065756
3785.18318,-0.0064825
3784.21880,-0.0065068
3783.25442,-0.0065703
3782.29005,-0.0065698
3781.32567,-0.0066024
3780.36129,-0.0067292
3779.39691,-0.0068374
3778.43253,-0.0068530
3777.46816,-0.0068053
3776.50378,-0.0067655
3775.53940,-0.0067541
3774.57502,-0.0067609
3773.61065,-0.0067874
3772.64627,-0.0068321
3771.68189,-0.0068269
3770.71751,-0.0067470
3769.75313,-0.0067044
3768.78876,-0.0067022
3767.82438,-0.0066464
3766.86000,-0.0065665
3765.89562,-0.0065557
3764.93124,-0.0066351
3763.96687,-0.0067479
3763.00249,-0.0067941
3762.03811,-0.0067410
3761.07373,-0.0066776
3760.10935,-0.0066418
3759.14498,-0.0065964
3758.18060,-0.0065231
3757.21622,-0.0064201
3756.25184,-0.0062852
3755.28747,-0.0061113
3754.32309,-0.0059511
3753.35871,-0.0058225
3752.39433,-0.0057165
3751.42995,-0.0056849
3750.46558,-0.0056887
3749.50120,-0.0056026
3748.53682,-0.0054983
3747.57244,-0.0055235
3746.60806,-0.0055895
3745.64369,-0.0056077
3744.67931,-0.0056973
3743.71493,-0.0058346
3742.75055,-0.0059558
3741.78618,-0.0060657
3740.82180,-0.0061596
3739.85742,-0.0062707
3738.89304,-0.0063330
3737.92866,-0.0062671
3736.96429,-0.0061631
3735.99991,-0.0061053
3735.03553,-0.0060265
3734.07115,-0.0059215
3733.10677,-0.0059425
3732.14240,-0.0060298
3731.17802,-0.0060762
3730.21364,-0.0060996
3729.24926,-0.0061328
3728.28488,-0.0062260
3727.32051,-0.0063251
3726.35613,-0.0063839
3725.39175,-0.0063729
3724.42737,-0.0062876
3723.46300,-0.0061783
3722.49862,-0.0060718
3721.53424,-0.0060776
3720.56986,-0.0061809
3719.60548,-0.0062467
3718.64111,-0.0062839
3717.67673,-0.0063323
3716.71235,-0.0063537
3715.74797,-0.0062600
3714.78359,-0.0061045
3713.81922,-0.0059871
3712.85484,-0.0058877
3711.89046,-0.0057900
3710.92608,-0.0057109
3709.96171,-0.0057200
3708.99733,-0.0057910
3708.03295,-0.0058421
3707.06857,-0.0058953
3706.10419,-0.0059469
3705.13982,-0.0059926
3704.17544,-0.0060006
3703.21106,-0.0059610
3702.24668,-0.0059524
3701.28230,-0.0059236
3700.31793,-0.0058205
3699.35355,-0.0057283
3698.38917,-0.0057082
3697.42479,-0.0057365
3696.46041,-0.0057462
3695.49604,-0.0057568
3694.53166,-0.0058133
3693.56728,-0.0058238
3692.60290,-0.0057232
3691.63853,-0.0055669
3690.67415,-0.0054082
3689.70977,-0.0052465
3688.74539,-0.0051355
3687.78101,-0.0051405
3686.81664,-0.0052356
3685.85226,-0.0053724
3684.88788,-0.0054907
3683.92350,-0.0055913
3682.95912,-0.0056710
3681.99475,-0.0056557
3681.03037,-0.0055836
3680.06599,-0.0054720
3679.10161,-0.0052827
3678.13724,-0.0050811
3677.17286,-0.0049763
3676.20848,-0.0049599
3675.24410,-0.0049170
3674.27972,-0.0048441
3673.31535,-0.0047651
3672.35097,-0.0046432
3671.38659,-0.0045449
3670.42221,-0.0045209
3669.45783,-0.0044794
3668.49346,-0.0043878
3667.52908,-0.0043178
3666.56470,-0.0043320
3665.60032,-0.0044342
3664.63594,-0.0045207
3663.67157,-0.0045124
3662.70719,-0.0044675
3661.74281,-0.0044359
3660.77843,-0.0043973
3659.81406,-0.0043368
3658.84968,-0.0042330
3657.88530,-0.0040564
3656.92092,-0.0038754
3655.95654,-0.0037426
3654.99217,-0.0035943
3654.02779,-0.0033716
3653.06341,-0.0031243
3652.09903,-0.0029219
3651.13465,-0.0027368
3650.17028,-0.0025869
3649.20590,-0.0025065
3648.24152,-0.0024518
3647.27714,-0.0023833
3646.31276,-0.0022937
3645.34839,-0.0022174
3644.38401,-0.0021717
3643.41963,-0.0021334
3642.45525,-0.0020537
3641.49088,-0.0019715
3640.52650,-0.0019384
3639.56212,-0.0019065
3638.59774,-0.0018916
3637.63336,-0.0018901
3636.66899,-0.0018600
3635.70461,-0.0017382
3634.74023,-0.0015096
3633.77585,-0.0012776
3632.81147,-0.0010679
3631.84710,-0.0009084
3630.88272,-0.0007769
3629.91834,-0.0006729
3628.95396,-0.0006334
3627.98959,-0.0005933
3627.02521,-0.0005803
3626.06083,-0.0005786
3625.09645,-0.0005351
3624.13207,-0.0004739
3623.16770,-0.0004432
3622.20332,-0.0004564
3621.23894,-0.0004382
3620.27456,-0.0004293
3619.31018,-0.0004269
3618.34581,-0.0003873
3617.38143,-0.0002976
3616.41705,-0.0001582
3615.45267,-0.0000966
3614.48829,-0.0000453
3613.52392,0.0000929
3612.55954,0.0002128
3611.59516,0.0003005
3610.63078,0.0004118
3609.66641,0.0005359
3608.70203,0.0006079
3607.73765,0.0006021
3606.77327,0.0005360
3605.80889,0.0004952
3604.84452,0.0004757
3603.88014,0.0004096
3602.91576,0.0003949
3601.95138,0.0004221
3600.98700,0.0004205
3600.02263,0.0004154
3599.05825,0.0004147
3598.09387,0.0004450
3597.12949,0.0004687
3596.16512,0.0004535
3595.20074,0.0004285
3594.23636,0.0004003
3593.27198,0.0004001
3592.30760,0.0004786
3591.34323,0.0006070
3590.37885,0.0006691
3589.41447,0.0006511
3588.45009,0.0006357
3587.48571,0.0006897
3586.52134,0.0008301
3585.55696,0.0009508
3584.59258,0.0010152
3583.62820,0.0010837
3582.66382,0.0011466
3581.69945,0.0012340
3580.73507,0.0013428
3579.77069,0.0013899
3578.80631,0.0013449
3577.84194,0.0011999
3576.87756,0.0010202
3575.91318,0.0008845
3574.94880,0.0007659
3573.98442,0.0006357
3573.02005,0.0005468
3572.05567,0.0006093
3571.09129,0.0008072
3570.12691,0.0009855
3569.16253,0.0010918
3568.19816,0.0011844
3567.23378,0.0012557
3566.26940,0.0012502
3565.30502,0.0012307
3564.34065,0.0012866
3563.37627,0.0014042
3562.41189,0.0014908
3561.44751,0.0015135
3560.48313,0.0015603
3559.51876,0.0015858
3558.55438,0.0015072
3557.59000,0.0014001
3556.62562,0.0013358
3555.66124,0.0013228
3554.69687,0.0013283
3553.73249,0.0013548
3552.76811,0.0014326
3551.80373,0.0015609
3550.83935,0.0016764
3549.87498,0.0017281
3548.91060,0.0017456
3547.94622,0.0016935
3546.98184,0.0016152
3546.01747,0.0015910
3545.05309,0.0016170
3544.08871,0.0017117
3543.12433,0.0017776
3542.15995,0.0017960
3541.19558,0.0018567
3540.23120,0.0019547
3539.26682,0.0020446
3538.30244,0.0020699
3537.33806,0.0020823
3536.37369,0.0021080
3535.40931,0.0021267
3534.44493,0.0021506
3533.48055,0.0021557
3532.51618,0.0021692
3531.55180,0.0021734
3530.58742,0.0021720
3529.62304,0.0022023
3528.65866,0.0022425
3527.69429,0.0023047
3526.72991,0.0023728
3525.76553,0.0024417
3524.80115,0.0025085
3523.83677,0.0025550
3522.87240,0.0025680
3521.90802,0.0025449
3520.94364,0.0025455
3519.97926,0.0025873
3519.01488,0.0026733
3518.05051,0.0027731
3517.08613,0.0028663
3516.12175,0.0029865
3515.15737,0.0030570
3514.19300,0.0030523
3513.22862,0.0030547
3512.26424,0.0030903
3511.29986,0.0031339
3510.33548,0.0031756
3509.37111,0.0032100
3508.40673,0.0032450
3507.44235,0.0033118
3506.47797,0.0033333
3505.51359,0.0033062
3504.54922,0.0033174
3503.58484,0.0033271
3502.62046,0.0033519
3501.65608,0.0034438
3500.69171,0.0035845
3499.72733,0.0037125
3498.76295,0.0037685
3497.79857,0.0037979
3496.83419,0.0038566
3495.86982,0.0039260
3494.90544,0.0039527
3493.94106,0.0039518
3492.97668,0.0039891
3492.01230,0.0040593
3491.04793,0.0041456
3490.08355,0.0042577
3489.11917,0.0043670
3488.15479,0.0044130
3487.19041,0.0044088
3486.22604,0.0044110
3485.26166,0.0044062
3484.29728,0.0043645
3483.33290,0.0043121
3482.36853,0.0042848
3481.40415,0.0042796
3480.43977,0.0042999
3479.47539,0.0043665
3478.51101,0.0044921
3477.54664,0.0046221
3476.58226,0.0047156
3475.61788,0.0048263
3474.65350,0.0048964
3473.68912,0.0048905
3472.72475,0.0048909
3471.76037,0.0049121
3470.79599,0.0049751
3469.83161,0.0050582
3468.86724,0.0051371
3467.90286,0.0052183
3466.93848,0.0052585
3465.97410,0.0052745
3465.00972,0.0052896
3464.04535,0.0053036
3463.08097,0.0052884
3462.11659,0.0052401
3461.15221,0.0052397
3460.18783,0.0053070
3459.22346,0.0054212
3458.25908,0.0055388
3457.29470,0.0056295
3456.33032,0.0056804
3455.36594,0.0056696
3454.40157,0.0056807
3453.43719,0.0057258
3452.47281,0.0057455
3451.50843,0.0057657
3450.54406,0.0057930
3449.57968,0.0058305
3448.61530,0.0058720
3447.65092,0.0059044
3446.68654,0.0059310
3445.72217,0.0059392
3444.75779,0.0059425
3443.79341,0.0059680
3442.82903,0.0060323
3441.86465,0.0061014
3440.90028,0.0061321
3439.93590,0.0061577
3438.97152,0.0061905
3438.00714,0.0061774
3437.04276,0.0061181
3436.07839,0.0060713
3435.11401,0.0060346
3434.14963,0.0060265
3433.18525,0.0060981
3432.22088,0.0061912
3431.25650,0.0062787
3430.29212,0.0063634
3429.32774,0.0064002
3428.36336,0.0064250
3427.39899,0.0064650
3426.43461,0.0064956
3425.47023,0.0065265
3424.50585,0.0065379
3423.54147,0.0065083
3422.57710,0.0064880
3421.61272,0.0064862
3420.64834,0.0064648
3419.68396,0.0064509
3418.71959,0.0064390
3417.75521,0.0064170
3416.79083,0.0064537
3415.82645,0.0065320
3414.86207,0.0065855
3413.89770,0.0065943
3412.93332,0.0065472
3411.96894,0.0064887
3411.00456,0.0064733
3410.04018,0.0065174
3409.07581,0.0065959
3408.11143,0.0066615
3407.14705,0.0067242
3406.18267,0.0068059
3405.21829,0.0068960
3404.25392,0.0069720
3403.28954,0.0070100
3402.32516,0.0070051
3401.36078,0.0069687
3400.39641,0.0069213
3399.43203,0.0069005
3398.46765,0.0069420
3397.50327,0.0069782
3396.53889,0.0069402
3395.57452,0.0068932
3394.61014,0.0068772
3393.64576,0.0068751
3392.68138,0.0068735
3391.71700,0.0068737
3390.75263,0.0068578
3389.78825,0.0067915
3388.82387,0.0067596
3387.85949,0.0068127
3386.89512,0.0068718
3385.93074,0.0068905
3384.96636,0.0068816
3384.00198,0.0068784
3383.03760,0.0068712
3382.07323,0.0068464
3381.10885,0.0068293
3380.14447,0.0068536
3379.18009,0.0068783
3378.21571,0.0068471
3377.25134,0.0068649
3376.28696,0.0069587
3375.32258,0.0070393
3374.35820,0.0071194
3373.39382,0.0071911
3372.42945,0.0072128
3371.46507,0.0071903
3370.50069,0.0071688
3369.53631,0.0071539
3368.57194,0.0071203
3367.60756,0.0070937
3366.64318,0.0070665
3365.67880,0.0070633
3364.71442,0.0071111
3363.75005,0.0071422
3362.78567,0.0071589
3361.82129,0.0071740
3360.85691,0.0071398
3359.89253,0.0070653
3358.92816,0.0069940
3357.96378,0.0069394
3356.99940,0.0068938
3356.03502,0.0068776
3355.07065,0.0068723
3354.10627,0.0068418
3353.14189,0.0068390
3352.17751,0.0068778
3351.21313,0.0069251
3350.24876,0.0069690
3349.28438,0.0069757
3348.32000,0.0069571
3347.35562,0.0069503
3346.39124,0.0069493
3345.42687,0.0069392
3344.46249,0.0069200
3343.49811,0.0068883
3342.53373,0.0068572
3341.56935,0.0068687
3340.60498,0.0069031
3339.64060,0.0069253
3338.67622,0.0069438
3337.71184,0.0069470
3336.74747,0.0069343
3335.78309,0.0069125
3334.81871,0.0068901
3333.85433,0.0069062
3332.88995,0.0069369
3331.92558,0.0069165
3330.96120,0.0068734
3329.99682,0.0068427
3329.03244,0.0068170
3328.06806,0.0068274
3327.10369,0.0068854
3326.13931,0.0069487
3325.17493,0.0069621
3324.21055,0.0069391
3323.24618,0.0069214
3322.28180,0.0068976
3321.31742,0.0068694
3320.35304,0.0068226
3319.38866,0.0067602
3318.42429,0.0066946
3317.45991,0.0066109
3316.49553,0.0065723
3315.53115,0.0066084
3314.56677,0.0066194
3313.60240,0.0065497
3312.63802,0.0064940
3311.67364,0.0064827
3310.70926,0.0064434
3309.74488,0.0064232
3308.78051,0.0064492
3307.81613,0.0064513
3306.85175,0.0064139
3305.88737,0.0063784
3304.92300,0.0063825
3303.95862,0.0064161
3302.99424,0.0064398
3302.02986,0.0064456
3301.06548,0.0064636
3300.10111,0.0064797
3299.13673,0.0064835
3298.17235,0.0065014
3297.20797,0.0064924
3296.24359,0.0064504
3295.27922,0.0064421
3294.31484,0.0064704
3293.35046,0.0064975
3292.38608,0.0065232
3291.42171,0.0065509
3290.45733,0.0065624
3289.49295,0.0065530
3288.52857,0.0065304
3287.56419,0.0065069
3286.59982,0.0064540
3285.63544,0.0063458
3284.67106,0.0062663
3283.70668,0.0062618
3282.74230,0.0062526
3281.77793,0.0062193
3280.81355,0.0061983
3279.84917,0.0061983
3278.88479,0.0062323
3277.92041,0.0062568
3276.95604,0.0062576
3275.99166,0.0062636
3275.02728,0.0062583
3274.06290,0.0062528
3273.09853,0.0062579
3272.13415,0.0062784
3271.16977,0.0062980
3270.20539,0.0063211
3269.24101,0.0063478
3268.27664,0.0063215
3267.31226,0.0062737
3266.34788,0.0062100
3265.38350,0.0061726
3264.41912,0.0062052
3263.45475,0.0061970
3262.49037,0.0061672
3261.52599,0.0061780
3260.56161,0.0062136
3259.59724,0.0062415
3258.63286,0.0062204
3257.66848,0.0061589
3256.70410,0.0060683
3255.73972,0.0059877
3254.77535,0.0059267
3253.81097,0.0059066
3252.84659,0.0059382
3251.88221,0.0059462
3250.91783,0.0059550
3249.95346,0.0059972
3248.98908,0.0060060
3248.02470,0.0059421
3247.06032,0.0058565
3246.09594,0.0058028
3245.13157,0.0057636
3244.16719,0.0057042
3243.20281,0.0056511
3242.23843,0.0056638
3241.27406,0.0057157
3240.30968,0.0057700
3239.34530,0.0058002
3238.38092,0.0058270
3237.41654,0.0058914
3236.45217,0.0059165
3235.48779,0.0059005
3234.52341,0.0058599
3233.55903,0.0057812
3232.59465,0.0057127
3231.63028,0.0056642
3230.66590,0.0056391
3229.70152,0.0056254
3228.73714,0.0056164
3227.77276,0.0056136
3226.80839,0.0056689
3225.84401,0.0057823
3224.87963,0.0058150
3223.91525,0.0057713
3222.95088,0.0057255
3221.98650,0.0057090
3221.02212,0.0057302
3220.05774,0.0057586
3219.09336,0.0057864
3218.12899,0.0057823
3217.16461,0.0057386
3216.20023,0.0056821
3215.23585,0.0056476
3214.27147,0.0056108
3213.30710,0.0055332
3212.34272,0.0054732
3211.37834,0.0054626
3210.41396,0.0054926
3209.44959,0.0055319
3208.48521,0.0055680
3207.52083,0.0055822
3206.55645,0.0055504
3205.59207,0.0055086
3204.62770,0.0054435
3203.66332,0.0053850
3202.69894,0.0053531
3201.73456,0.0053203
3200.77018,0.0053232
3199.80581,0.0053405
3198.84143,0.0053518
3197.87705,0.0053564
3196.91267,0.0053496
3195.94829,0.0053484
3194.98392,0.0053400
3194.01954,0.0053063
3193.05516,0.0052286
3192.09078,0.0051537
3191.12641,0.0051055
3190.16203,0.0050382
3189.19765,0.0049740
3188.23327,0.0049230
3187.26889,0.0048664
3186.30452,0.0048142
3185.34014,0.0047937
3184.37576,0.0048208
3183.41138,0.0048777
3182.44700,0.0049515
3181.48263,0.0049918
3180.51825,0.0049972
3179.55387,0.0050140
3178.58949,0.0049987
3177.62512,0.0049418
3176.66074,0.0048797
3175.69636,0.0048270
3174.73198,0.0048000
3173.76760,0.0047975
3172.80323,0.0048208
3171.83885,0.0048768
3170.87447,0.0049497
3169.91009,0.0049655
3168.94571,0.0049215
3167.98134,0.0048797
3167.01696,0.0048331
3166.05258,0.0048010
3165.08820,0.0047902
3164.12382,0.0047953
3163.15945,0.0048200
3162.19507,0.0048452
3161.23069,0.0048898
3160.26631,0.0049447
3159.30194,0.0049523
3158.33756,0.0048572
3157.37318,0.0047201
3156.40880,0.0046305
3155.44442,0.0045716
3154.48005,0.0045219
3153.51567,0.0044509
3152.55129,0.0043920
3151.58691,0.0043986
3150.62253,0.0044648
3149.65816,0.0045475
3148.69378,0.0045742
3147.72940,0.0045684
3146.76502,0.0045601
3145.80065,0.0045589
3144.83627,0.0045688
3143.87189,0.0045547
3142.90751,0.0045220
3141.94313,0.0044812
3140.97876,0.0044534
3140.01438,0.0044382
3139.05000,0.0044309
3138.08562,0.0044090
3137.12124,0.0043597
3136.15687,0.0043276
3135.19249,0.0042715
3134.22811,0.0041882
3133.26373,0.0041212
3132.29935,0.0040852
3131.33498,0.0040985
3130.37060,0.0041215
3129.40622,0.0041200
3128.44184,0.0040849
3127.47747,0.0040814
3126.51309,0.0041307
3125.54871,0.0041512
3124.58433,0.0041277
3123.61995,0.0040965
3122.65558,0.0040999
3121.69120,0.0041134
3120.72682,0.0041360
3119.76244,0.0041584
3118.79806,0.0041032
3117.83369,0.0039718
3116.86931,0.0038085
3115.90493,0.0037229
3114.94055,0.0037175
3113.97618,0.0036866
3113.01180,0.0036453
3112.04742,0.0036192
3111.08304,0.0036123
3110.11866,0.0036031
3109.15429,0.0036061
3108.18991,0.0036224
3107.22553,0.0035871
3106.26115,0.0035346
3105.29677,0.0035149
3104.33240,0.0035474
3103.36802,0.0035875
3102.40364,0.0035725
3101.43926,0.0035269
3100.47488,0.0034829
3099.51051,0.0034658
3098.54613,0.0034676
3097.58175,0.0035051
3096.61737,0.0035601
3095.65300,0.0035600
3094.68862,0.0035484
3093.72424,0.0035420
3092.75986,0.0034909
3091.79548,0.0033989
3090.83111,0.0033191
3089.86673,0.0032890
3088.90235,0.0032886
3087.93797,0.0032994
3086.97359,0.0033269
3086.00922,0.0033686
3085.04484,0.0033732
3084.08046,0.0033367
3083.11608,0.0033050
3082.15171,0.0032652
3081.18733,0.0032127
3080.22295,0.0031650
3079.25857,0.0031383
3078.29419,0.0031271
3077.32982,0.0031302
3076.36544,0.0031482
3075.40106,0.0031580
3074.43668,0.0031588
3073.47230,0.0031393
3072.50793,0.0031170
3071.54355,0.0031018
3070.57917,0.0030740
3069.61479,0.0030533
3068.65041,0.0030509
3067.68604,0.0030695
3066.72166,0.0030863
3065.75728,0.0030955
3064.79290,0.0030976
3063.82853,0.0030803
3062.86415,0.0030693
3061.89977,0.0030342
3060.93539,0.0029637
3059.97101,0.0029069
3059.00664,0.0028683
3058.04226,0.0028510
3057.07788,0.0028833
3056.11350,0.0029321
3055.14912,0.0029243
3054.18475,0.0028816
3053.22037,0.0028455
3052.25599,0.0028133
3051.29161,0.0027663
3050.32724,0.0026762
3049.36286,0.0025769
3048.39848,0.0025178
3047.43410,0.0024906
3046.46972,0.0024782
3045.50535,0.0024890
3044.54097,0.0024935
3043.57659,0.0024691
3042.61221,0.0024542
3041.64783,0.0024665
3040.68346,0.0024872
3039.71908,0.0024822
3038.75470,0.0024838
3037.79032,0.0025115
3036.82594,0.0025085
3035.86157,0.0024865
3034.89719,0.0024716
3033.93281,0.0024592
3032.96843,0.0024376
3032.00406,0.0024295
3031.03968,0.0024562
3030.07530,0.0024608
3029.11092,0.0024229
3028.14654,0.0023702
3027.18217,0.0023463
3026.21779,0.0023478
3025.25341,0.0023306
3024.28903,0.0023180
3023.32465,0.0023233
3022.36028,0.0023399
3021.39590,0.0023596
3020.43152,0.0023774
3019.46714,0.0023619
3018.50276,0.0022805
3017.53839,0.0022013
3016.57401,0.0021428
3015.60963,0.0020857
3014.64525,0.0020603
3013.68088,0.0020523
3012.71650,0.0020453
3011.75212,0.0020383
3010.78774,0.0020388
3009.82336,0.0020428
3008.85899,0.0020210
3007.89461,0.0019731
3006.93023,0.0019331
3005.96585,0.0019373
3005.00147,0.0019549
3004.03710,0.0019559
3003.07272,0.0019663
3002.10834,0.0019875
3001.14396,0.0020179
3000.17959,0.0020488
2999.21521,0.0020743
2998.25083,0.0020936
2997.28645,0.0020708
2996.32207,0.0020214
2995.35770,0.0019907
2994.39332,0.0019746
2993.42894,0.0019596
2992.46456,0.0019411
2991.50018,0.0019229
2990.53581,0.0019170
2989.57143,0.0019204
2988.60705,0.0019163
2987.64267,0.0018990
2986.67829,0.0018603
2985.71392,0.0017902
2984.74954,0.0017140
2983.78516,0.0016699
2982.82078,0.0016520
2981.85641,0.0016437
2980.89203,0.0016353
2979.92765,0.0016163
2978.96327,0.0016324
2977.99889,0.0016754
2977.03452,0.0016995
2976.07014,0.0017324
2975.10576,0.0017544
2974.14138,0.0017589
2973.17700,0.0017775
2972.21263,0.0018201
2971.24825,0.0018862
2970.28387,0.0019318
2969.31949,0.0019340
2968.35512,0.0019039
2967.39074,0.0018910
2966.42636,0.0018920
2965.46198,0.0018669
2964.49760,0.0018443
2963.53323,0.0017887
2962.56885,0.0017112
2961.60447,0.0016683
2960.64009,0.0016410
2959.67571,0.0016282
2958.71134,0.0016103
2957.74696,0.0015859
2956.78258,0.0015792
2955.81820,0.0015962
2954.85382,0.0016246
2953.88945,0.0016488
2952.92507,0.0016753
2951.96069,0.0016726
2950.99631,0.0016537
2950.03194,0.0016650
2949.06756,0.0017039
2948.10318,0.0017489
2947.13880,0.0017562
2946.17442,0.0017474
2945.21005,0.0017606
2944.24567,0.0017694
2943.28129,0.0017748
2942.31691,0.0017976
2941.35253,0.0018230
2940.38816,0.0018299
2939.42378,0.0018422
2938.45940,0.0018929
2937.49502,0.0019636
2936.53065,0.0019965
2935.56627,0.0019725
2934.60189,0.0019517
2933.63751,0.0019582
2932.67313,0.0019596
2931.70876,0.0019525
2930.74438,0.0019471
2929.78000,0.0019522
2928.81562,0.0019667
2927.85124,0.0019860
2926.88687,0.0020081
2925.92249,0.0020141
2924.95811,0.0020106
2923.99373,0.0020255
2923.02935,0.0020650
2922.06498,0.0021159
2921.10060,0.0021511
2920.13622,0.0021454
2919.17184,0.0021033
2918.20747,0.0020425
2917.24309,0.0019704
2916.27871,0.0019034
2915.31433,0.0018384
2914.34995,0.0017652
2913.38558,0.0016954
2912.42120,0.0016389
2911.45682,0.0016114
2910.49244,0.0016072
2909.52806,0.0016116
2908.56369,0.0016087
2907.59931,0.0015949
2906.63493,0.0015770
2905.67055,0.0015510
2904.70618,0.0015448
2903.74180,0.0015326
2902.77742,0.0014905
2901.81304,0.0014392
2900.84866,0.0013749
2899.88429,0.0013390
2898.91991,0.0013395
2897.95553,0.0013495
2896.99115,0.0013496
2896.02677,0.0013366
2895.06240,0.0013254
2894.09802,0.0012905
2893.13364,0.0012579
2892.16926,0.0012371
2891.20488,0.0012041
2890.24051,0.0011616
2889.27613,0.0011163
2888.31175,0.0011186
2887.34737,0.0011465
2886.38300,0.0011484
2885.41862,0.0011359
2884.45424,0.0011391
2883.48986,0.0011649
2882.52548,0.0011668
2881.56111,0.0011495
2880.59673,0.0011337
2879.63235,0.0011201
2878.66797,0.0011148
2877.70359,0.0011026
2876.73922,0.0010941
2875.77484,0.0010855
2874.81046,0.0010645
2873.84608,0.0010543
2872.88171,0.0010696
2871.91733,0.0010986
2870.95295,0.0011142
2869.98857,0.0011096
2869.02419,0.0011188
2868.05982,0.0011680
2867.09544,0.0012140
2866.13106,0.0012248
2865.16668,0.0012416
2864.20230,0.0012758
2863.23793,0.0013073
2862.27355,0.0013310
2861.30917,0.0013477
2860.34479,0.0013782
2859.38041,0.0014168
2858.41604,0.0014557
2857.45166,0.0015180
2856.48728,0.0015633
2855.52290,0.0015547
2854.55853,0.0015347
2853.59415,0.0015306
2852.62977,0.0015230
2851.66539,0.0014882
2850.70101,0.0014275
2849.73664,0.0013526
2848.77226,0.0012864
2847.80788,0.0012432
2846.84350,0.0012106
2845.87912,0.0011715
2844.91475,0.0011061
2843.95037,0.0010416
2842.98599,0.0010114
2842.02161,0.0009972
2841.05724,0.0009865
2840.09286,0.0009859
2839.12848,0.0009811
2838.16410,0.0009429
2837.19972,0.0008900
2836.23535,0.0008449
2835.27097,0.0007977
2834.30659,0.0007725
2833.34221,0.0007871
2832.37783,0.0008109
2831.41346,0.0008247
2830.44908,0.0008450
2829.48470,0.0008880
2828.52032,0.0009509
2827.55594,0.0010062
2826.59157,0.0010257
2825.62719,0.0010051
2824.66281,0.0009621
2823.69843,0.0009296
2822.73406,0.0009171
2821.76968,0.0009038
2820.80530,0.0008658
2819.84092,0.0008191
2818.87654,0.0007949
2817.91217,0.0007912
2816.94779,0.0008075
2815.98341,0.0008305
2815.01903,0.0008369
2814.05465,0.0008278
2813.09028,0.0008151
2812.12590,0.0007965
2811.16152,0.0007676
2810.19714,0.0007530
2809.23276,0.0007574
2808.26839,0.0007517
2807.30401,0.0007219
2806.33963,0.0007062
2805.37525,0.0007302
2804.41088,0.0007605
2803.44650,0.0007856
2802.48212,0.0008104
2801.51774,0.0008311
2800.55336,0.0008322
2799.58899,0.0008221
2798.62461,0.0008254
2797.66023,0.0008165
2796.69585,0.0007795
2795.73147,0.0007386
2794.76710,0.0007298
2793.80272,0.0007430
2792.83834,0.0007500
2791.87396,0.0007597
2790.90959,0.0007720
2789.94521,0.0007963
2788.98083,0.0008171
2788.01645,0.0008152
2787.05207,0.0007901
2786.08770,0.0007450
2785.12332,0.0007340
2784.15894,0.0007611
2783.19456,0.0007838
2782.23018,0.0008013
2781.26581,0.0008326
2780.30143,0.0008687
2779.33705,0.0008786
2778.37267,0.0008763
2777.40829,0.0008726
2776.44392,0.0008529
2775.47954,0.0008003
2774.51516,0.0007284
2773.55078,0.0006905
2772.58641,0.0006795
2771.62203,0.0006720
2770.65765,0.0006865
2769.69327,0.0007127
2768.72889,0.0007147
2767.76452,0.0007015
2766.80014,0.0007151
2765.83576,0.0007584
2764.87138,0.0008026
2763.90700,0.0008182
2762.94263,0.0008067
2761.97825,0.0007948
2761.01387,0.0007796
2760.04949,0.0007594
2759.08512,0.0007526
2758.12074,0.0007455
2757.15636,0.0007309
2756.19198,0.0007242
2755.22760,0.0007185
2754.26323,0.0007163
2753.29885,0.0007124
2752.33447,0.0006974
2751.37009,0.0006869
2750.40571,0.0006692
2749.44134,0.0006362
2748.47696,0.0006105
2747.51258,0.0006083
2746.54820,0.0006246
2745.58382,0.0006514
2744.61945,0.0006740
2743.65507,0.0006751
2742.69069,0.0006856
2741.72631,0.0007133
2740.76194,0.0007361
2739.79756,0.0007567
2738.83318,0.0007599
2737.86880,0.0007470
2736.90442,0.0007309
2735.94005,0.0007133
2734.97567,0.0007048
2734.01129,0.0007051
2733.04691,0.0006976
2732.08253,0.0006685
2731.11816,0.0006443
2730.15378,0.0006387
2729.18940,0.0006239
2728.22502,0.0005943
2727.26065,0.0005575
2726.29627,0.0005365
2725.33189,0.0005433
2724.36751,0.0005534
2723.40313,0.0005620
2722.43876,0.0005764
2721.47438,0.0005913
2720.51000,0.0005994
2719.54562,0.0006058
2718.58124,0.0006178
2717.61687,0.0006170
2716.65249,0.0005936
2715.68811,0.0005587
2714.72373,0.0005338
2713.75935,0.0005300
2712.79498,0.0005228
2711.83060,0.0005104
2710.86622,0.0005112
2709.90184,0.0005212
2708.93747,0.0005260
2707.97309,0.0005142
2707.00871,0.0004848
2706.04433,0.0004478
2705.07995,0.0004206
2704.11558,0.0003978
2703.15120,0.0003924
2702.18682,0.0004332
2701.22244,0.0004857
2700.25806,0.0005224
2699.29369,0.0005532
2698.32931,0.0005815
2697.36493,0.0005915
2696.40055,0.0005585
2695.43618,0.0004953
2694.47180,0.0004389
2693.50742,0.0003942
2692.54304,0.0003501
2691.57866,0.0003474
2690.61429,0.0003886
2689.64991,0.0004168
2688.68553,0.0004353
2687.72115,0.0004560
2686.75677,0.0004871
2685.79240,0.0005215
2684.82802,0.0005293
2683.86364,0.0005216
2682.89926,0.0005085
2681.93488,0.0004920
2680.97051,0.0004727
2680.00613,0.0004547
2679.04175,0.0004354
2678.07737,0.0004105
2677.11300,0.0004052
2676.14862,0.0004102
2675.18424,0.0004235
2674.21986,0.0004548
2673.25548,0.0004785
2672.29111,0.0004924
2671.32673,0.0005008
2670.36235,0.0005097
2669.39797,0.0005161
2668.43359,0.0004998
2667.46922,0.0004758
2666.50484,0.0004702
2665.54046,0.0004732
2664.57608,0.0004580
2663.61171,0.0004320
2662.64733,0.0004158
2661.68295,0.0003973
2660.71857,0.0003678
2659.75419,0.0003499
2658.78982,0.0003622
2657.82544,0.0003848
2656.86106,0.0003893
2655.89668,0.0003924
2654.93230,0.0004131
2653.96793,0.0004275
2653.00355,0.0004245
2652.03917,0.0004156
2651.07479,0.0003970
2650.11041,0.0003665
2649.14604,0.0003360
2648.18166,0.0003241
2647.21728,0.0003465
2646.25290,0.0003771
2645.28853,0.0003722
2644.32415,0.0003478
2643.35977,0.0003262
2642.39539,0.0003079
2641.43101,0.0002923
2640.46664,0.0002476
2639.50226,0.0001804
2638.53788,0.0001231
2637.57350,0.0000836
2636.60912,0.0000820
2635.64475,0.0001198
2634.68037,0.0001503
2633.71599,0.0001510
2632.75161,0.0001649
2631.78724,0.0001999
2630.82286,0.0002392
2629.85848,0.0002666
2628.89410,0.0002631
2627.92972,0.0002638
2626.96535,0.0002604
2626.00097,0.0002350
2625.03659,0.0002080
2624.07221,0.0001812
2623.10783,0.0001612
2622.14346,0.0001439
2621.17908,0.0001331
2620.21470,0.0001176
2619.25032,0.0001049
2618.28594,0.0001237
2617.32157,0.0001728
2616.35719,0.0002315
2615.39281,0.0002418
2614.42843,0.0002200
2613.46406,0.0002134
2612.49968,0.0002320
2611.53530,0.0002590
2610.57092,0.0002361
2609.60654,0.0001845
2608.64217,0.0001408
2607.67779,0.0001117
2606.71341,0.0001137
2605.74903,0.0001449
2604.78465,0.0001708
2603.82028,0.0001577
2602.85590,0.0001509
2601.89152,0.0001567
2600.92714,0.0001516
2599.96276,0.0001302
2598.99839,0.0000803
2598.03401,0.0000426
2597.06963,0.0000265
2596.10525,0.0000069
2595.14088,-0.0000187
2594.17650,-0.0000313
2593.21212,-0.0000243
2592.24774,0.0000033
2591.28336,0.0000547
2590.31899,0.0000914
2589.35461,0.0001207
2588.39023,0.0001485
2587.42585,0.0001657
2586.46147,0.0001902
2585.49710,0.0002072
2584.53272,0.0002005
2583.56834,0.0001612
2582.60396,0.0001384
2581.63959,0.0001723
2580.67521,0.0002322
2579.71083,0.0002777
2578.74645,0.0002748
2577.78207,0.0002383
2576.81770,0.0001915
2575.85332,0.0001484
2574.88894,0.0001069
2573.92456,0.0000616
2572.96018,0.0000164
2571.99581,-0.0000172
2571.03143,0.0000013
2570.06705,0.0000463
2569.10267,0.0000807
2568.13829,0.0000823
2567.17392,0.0000392
2566.20954,-0.0000107
2565.24516,-0.0000566
2564.28078,-0.0000760
2563.31641,-0.0000596
2562.35203,-0.0000248
2561.38765,0.0000097
2560.42327,0.0000270
2559.45889,0.0000568
2558.49452,0.0001086
2557.53014,0.0001637
2556.56576,0.0001735
2555.60138,0.0001210
2554.63700,0.0000428
2553.67263,-0.0000383
2552.70825,-0.0000591
2551.74387,-0.0000019
2550.77949,0.0000655
2549.81512,0.0000902
2548.85074,0.0000705
2547.88636,0.0000528
2546.92198,0.0000866
2545.95760,0.0001484
2544.99323,0.0001541
2544.02885,0.0001086
2543.06447,0.0000489
2542.10009,-0.0000282
2541.13571,-0.0000591
2540.17134,-0.0000317
2539.20696,-0.0000247
2538.24258,-0.0000553
2537.27820,-0.0001169
2536.31382,-0.0001736
2535.34945,-0.0001622
2534.38507,-0.0001299
2533.42069,-0.0000819
2532.45631,0.0000300
2531.49194,0.0001153
2530.52756,0.0001452
2529.56318,0.0001918
2528.59880,0.0002081
2527.63442,0.0001348
2526.67005,0.0000529
2525.70567,0.0000010
2524.74129,-0.0000726
2523.77691,-0.0001492
2522.81253,-0.0001608
2521.84816,-0.0000636
2520.88378,0.0000511
2519.91940,0.0000937
2518.95502,0.0001178
2517.99065,0.0001418
2517.02627,0.0001289
2516.06189,0.0000576
2515.09751,0.0000014
2514.13313,-0.0000391
2513.16876,-0.0001380
2512.20438,-0.0001792
2511.24000,-0.0001112
2510.27562,-0.0000440
2509.31124,-0.0000347
2508.34687,-0.0000384
2507.38249,-0.0000248
2506.41811,-0.0000197
2505.45373,-0.0000067
2504.48935,0.0000026
2503.52498,-0.0000039
2502.56060,-0.0000537
2501.59622,-0.0001388
2500.63184,-0.0001696
2499.66747,-0.0001755
2498.70309,-0.0002047
2497.73871,-0.0002466
2496.77433,-0.0002688
2495.80995,-0.0002533
2494.84558,-0.0002282
2493.88120,-0.0001890
2492.91682,-0.0001390
2491.95244,-0.0000879
2490.98806,-0.0000395
2490.02369,-0.0000066
2489.05931,-0.0000048
2488.09493,-0.0000114
2487.13055,-0.0000020
2486.16618,-0.0000218
2485.20180,-0.0000526
2484.23742,-0.0000506
2483.27304,-0.0000349
2482.30866,-0.0000452
2481.34429,-0.0000695
2480.37991,-0.0000400
2479.41553,0.0000341
2478.45115,0.0000452
2477.48677,-0.0000376
2476.52240,-0.0000767
2475.55802,-0.0000872
2474.59364,-0.0001555
2473.62926,-0.0001953
2472.66488,-0.0001948
2471.70051,-0.0001614
2470.73613,-0.0001037
2469.77175,-0.0000493
2468.80737,0.0000056
2467.84300,0.0000013
2466.87862,-0.0000882
2465.91424,-0.0001890
2464.94986,-0.0002349
2463.98548,-0.0003006
2463.02111,-0.0003748
2462.05673,-0.0003843
2461.09235,-0.0003701
2460.12797,-0.0002850
2459.16359,-0.0001597
2458.19922,-0.0000737
2457.23484,-0.0000022
2456.27046,0.0000567
2455.30608,0.0000921
2454.34171,0.0000959
2453.37733,0.0000740
2452.41295,0.0000073
2451.44857,-0.0000719
2450.48419,-0.0001360
2449.51982,-0.0001979
2448.55544,-0.0002232
2447.59106,-0.0002507
2446.62668,-0.0002598
2445.66230,-0.0001897
2444.69793,-0.0001007
2443.73355,-0.0000447
2442.76917,0.0000034
2441.80479,0.0000406
2440.84041,0.0000021
2439.87604,-0.0000667
2438.91166,-0.0001352
2437.94728,-0.0002262
2436.98290,-0.0002815
2436.01853,-0.0002871
2435.05415,-0.0002225
2434.08977,-0.0000968
2433.12539,0.0000087
2432.16101,0.0001029
2431.19664,0.0001925
2430.23226,0.0002207
2429.26788,0.0001792
2428.30350,0.0001040
2427.33912,0.0000093
2426.37475,-0.0000710
2425.41037,-0.0000804
2424.44599,-0.0000483
2423.48161,-0.0000403
2422.51724,-0.0000801
2421.55286,-0.0001593
2420.58848,-0.0002167
2419.62410,-0.0002521
2418.65972,-0.0002962
2417.69535,-0.0003139
2416.73097,-0.0003160
2415.76659,-0.0002757
2414.80221,-0.0001538
2413.83783,0.0000004
2412.87346,0.0001192
2411.90908,0.0001316
2410.94470,0.0000936
2409.98032,0.0000922
2409.01594,0.0000884
2408.05157,0.0000446
2407.08719,-0.0000038
2406.12281,-0.0000179
2405.15843,-0.0000535
2404.19406,-0.0001073
2403.22968,-0.0001038
2402.26530,-0.0000675
2401.30092,-0.0000349
2400.33654,-0.0000149
2399.37217,0.0000232
2398.40779,0.0000729
2397.44341,0.0000542
2396.47903,-0.0000072
2395.51465,-0.0000428
2394.55028,-0.0000614
2393.58590,-0.0000998
2392.62152,-0.0001567
2391.65714,-0.0001924
2390.69276,-0.0002062
2389.72839,-0.0002011
2388.76401,-0.0001577
2387.79963,-0.0000935
2386.83525,-0.0000397
2385.87088,0.0000162
2384.90650,0.0000873
2383.94212,0.0001459
2382.97774,0.0002175
2382.01336,0.0003056
2381.04899,0.0003395
2380.08461,0.0003260
2379.12023,0.0003011
2378.15585,0.0002947
2377.19147,0.0003245
2376.22710,0.0003592
2375.26272,0.0004091
2374.29834,0.0004943
2373.33396,0.0005806
2372.36959,0.0006433
2371.40521,0.0007114
2370.44083,0.0007880
2369.47645,0.0008647
2368.51207,0.0009357
2367.54770,0.0009571
2366.58332,0.0009686
2365.61894,0.0009742
2364.65456,0.0009501
2363.69018,0.0009646
2362.72581,0.0009928
2361.76143,0.0009938
2360.79705,0.0009630
2359.83267,0.0009141
2358.86829,0.0008989
2357.90392,0.0009082
2356.93954,0.0008969
2355.97516,0.0008270
2355.01078,0.0007405
2354.04641,0.0006698
2353.08203,0.0005923
2352.11765,0.0005303
2351.15327,0.0004635
2350.18889,0.0003774
2349.22452,0.0003089
2348.26014,0.0002738
2347.29576,0.0002594
2346.33138,0.0002623
2345.36700,0.0003261
2344.40263,0.0004410
2343.43825,0.0005694
2342.47387,0.0006732
2341.50949,0.0007198
2340.54512,0.0007536
2339.58074,0.0007830
2338.61636,0.0008005
2337.65198,0.0008186
2336.68760,0.0008022
2335.72323,0.0007581
2334.75885,0.0007295
2333.79447,0.0007414
2332.83009,0.0007868
2331.86571,0.0008184
2330.90134,0.0007950
2329.93696,0.0007383
2328.97258,0.0007189
2328.00820,0.0007501
2327.04382,0.0008135
2326.07945,0.0008604
2325.11507,0.0008278
2324.15069,0.0007753
2323.18631,0.0007506
2322.22194,0.0007468
2321.25756,0.0007721
2320.29318,0.0007688
2319.32880,0.0007047
2318.36442,0.0006305
2317.40005,0.0005911
2316.43567,0.0005847
2315.47129,0.0005928
2314.50691,0.0005726
2313.54253,0.0004975
2312.57816,0.0004349
2311.61378,0.0003997
2310.64940,0.0003702
2309.68502,0.0003453
2308.72065,0.0002941
2307.75627,0.0002296
2306.79189,0.0001839
2305.82751,0.0001486
2304.86313,0.0001341
2303.89876,0.0001504
2302.93438,0.0001681
2301.97000,0.0001700
2301.00562,0.0001718
2300.04124,0.0001737
2299.07687,0.0001755
2298.11249,0.0001774
2297.14811,0.0001792
2296.18373,0.0001811
2295.21935,0.0001829
2294.25498,0.0001848
2293.29060,0.0001866
2292.32622,0.0001885
2291.36184,0.0001903
2290.39747,0.0001922
2289.43309,0.0001940
2288.46871,0.0001959
2287.50433,0.0001977
2286.53995,0.0001996
2285.57558,0.0002015
2284.61120,0.0002033
2283.64682,0.0002052
2282.68244,0.0002070
2281.71806,0.0002089
2280.75369,0.0002107
2279.78931,0.0002126
2278.82493,0.0002144
2277.86055,0.0002163
2276.89618,0.0002181
2275.93180,0.0002200
2274.96742,0.0002218
2274.00304,0.0002237
2273.03866,0.0002255
2272.07429,0.0002274
2271.10991,0.0002292
2270.14553,0.0002311
2269.18115,0.0002329
2268.21677,0.0002348
2267.25240,0.0002366
2266.28802,0.0002385
2265.32364,0.0002403
2264.35926,0.0002422
2263.39488,0.0002441
2262.43051,0.0002459
2261.46613,0.0002478
2260.50175,0.0002496
2259.53737,0.0002515
2258.57300,0.0002533
2257.60862,0.0002552
2256.64424,0.0002570
2255.67986,0.0002589
2254.71548,0.0002607
2253.75111,0.0002626
2252.78673,0.0002644
2251.82235,0.0002663
2250.85797,0.0002681
2249.89359,0.0002700
2248.92922,0.0002718
2247.96484,0.0002737
2247.00046,0.0002755
2246.03608,0.0002774
2245.07171,0.0002792
2244.10733,0.0002811
2243.14295,0.0002829
2242.17857,0.0002848
2241.21419,0.0002866
2240.24982,0.0002885
2239.28544,0.0002904
2238.32106,0.0002922
2237.35668,0.0002941
2236.39230,0.0002959
2235.42793,0.0002978
2234.46355,0.0002996
2233.49917,0.0003015
2232.53479,0.0003033
2231.57041,0.0003052
2230.60604,0.0003070
2229.64166,0.0003089
2228.67728,0.0003107
2227.71290,0.0003126
2226.74853,0.0003144
2225.78415,0.0003163
2224.81977,0.0003181
2223.85539,0.0003200
2222.89101,0.0003218
2221.92664,0.0003237
2220.96226,0.0003255
2219.99788,0.0003274
2219.03350,0.0003292
2218.06912,0.0003311
2217.10475,0.0003330
2216.14037,0.0003348
2215.17599,0.0003367
2214.21161,0.0003385
2213.24724,0.0003404
2212.28286,0.0003422
2211.31848,0.0003441
2210.35410,0.0003459
2209.38972,0.0003478
2208.42535,0.0003496
2207.46097,0.0003515
2206.49659,0.0003533
2205.53221,0.0003552
2204.56783,0.0003570
2203.60346,0.0003589
2202.63908,0.0003607
2201.67470,0.0003626
2200.71032,0.0003644
2199.74594,0.0003663
2198.78157,0.0003681
2197.81719,0.0003700
2196.85281,0.0003718
2195.88843,0.0003737
2194.92406,0.0003756
2193.95968,0.0003774
2192.99530,0.0003793
2192.03092,0.0003811
2191.06654,0.0003830
2190.10217,0.0003848
2189.13779,0.0003867
2188.17341,0.0003885
2187.20903,0.0003904
2186.24465,0.0003922
2185.28028,0.0003941
2184.31590,0.0003959
2183.35152,0.0003978
2182.38714,0.0003996
2181.42276,0.0004015
2180.45839,0.0004033
2179.49401,0.0004052
2178.52963,0.0004070
2177.56525,0.0004089
2176.60088,0.0004107
2175.63650,0.0004126
2174.67212,0.0004144
2173.70774,0.0004163
2172.74336,0.0004182
2171.77899,0.0004200
2170.81461,0.0004219
2169.85023,0.0004237
2168.88585,0.0004256
2167.92147,0.0004274
2166.95710,0.0004293
2165.99272,0.0004311
2165.02834,0.0004330
2164.06396,0.0004348
2163.09959,0.0004367
2162.13521,0.0004385
2161.17083,0.0004404
2160.20645,0.0004422
2159.24207,0.0004441
2158.27770,0.0004459
2157.31332,0.0004478
2156.34894,0.0004496
2155.38456,0.0004515
2154.42018,0.0004533
2153.45581,0.0004552
2152.49143,0.0004570
2151.52705,0.0004589
2150.56267,0.0004607
2149.59829,0.0004626
2148.63392,0.0004645
2147.66954,0.0004663
2146.70516,0.0004682
2145.74078,0.0004700
2144.77641,0.0004719
2143.81203,0.0004737
2142.84765,0.0004756
2141.88327,0.0004774
2140.91889,0.0004793
2139.95452,0.0004811
2138.99014,0.0004830
2138.02576,0.0004848
2137.06138,0.0004867
2136.09700,0.0004885
2135.13263,0.0004904
2134.16825,0.0004922
2133.20387,0.0004941
2132.23949,0.0004959
2131.27512,0.0004978
2130.31074,0.0004996
2129.34636,0.0005015
2128.38198,0.0005033
2127.41760,0.0005052
2126.45323,0.0005071
2125.48885,0.0005089
2124.52447,0.0005108
2123.56009,0.0005126
2122.59571,0.0005145
2121.63134,0.0005163
2120.66696,0.0005182
2119.70258,0.0005200
2118.73820,0.0005219
2117.77382,0.0005237
2116.80945,0.0005256
2115.84507,0.0005274
2114.88069,0.0005293
2113.91631,0.0005311
2112.95194,0.0005330
2111.98756,0.0005348
2111.02318,0.0005367
2110.05880,0.0005385
2109.09442,0.0005404
2108.13005,0.0005422
2107.16567,0.0005441
2106.20129,0.0005459
2105.23691,0.0005478
2104.27253,0.0005497
2103.30816,0.0005515
2102.34378,0.0005534
2101.37940,0.0005552
2100.41502,0.0005571
2099.45065,0.0005589
2098.48627,0.0005608
2097.52189,0.0005626
2096.55751,0.0005645
2095.59313,0.0005663
2094.62876,0.0005682
2093.66438,0.0005700
2092.70000,0.0005719
2091.73562,0.0005737
2090.77124,0.0005756
2089.80687,0.0005774
2088.84249,0.0005793
2087.87811,0.0005811
2086.91373,0.0005830
2085.94935,0.0005848
2084.98498,0.0005867
2084.02060,0.0005885
2083.05622,0.0005904
2082.09184,0.0005922
2081.12747,0.0005941
2080.16309,0.0005960
2079.19871,0.0005978
2078.23433,0.0005997
2077.26995,0.0006015
2076.30558,0.0006034
2075.34120,0.0006052
2074.37682,0.0006071
2073.41244,0.0006089
2072.44806,0.0006108
2071.48369,0.0006126
2070.51931,0.0006145
2069.55493,0.0006163
2068.59055,0.0006182
2067.62618,0.0006200
2066.66180,0.0006219
2065.69742,0.0006237
2064.73304,0.0006256
2063.76866,0.0006274
2062.80429,0.0006293
2061.83991,0.0006311
2060.87553,0.0006330
2059.91115,0.0006348
2058.94677,0.0006367
2057.98240,0.0006386
2057.01802,0.0006404
2056.05364,0.0006423
2055.08926,0.0006441
2054.12488,0.0006460
2053.16051,0.0006478
2052.19613,0.0006497
2051.23175,0.0006515
2050.26737,0.0006534
2049.30300,0.0006552
2048.33862,0.0006571
2047.37424,0.0006589
2046.40986,0.0006608
2045.44548,0.0006626
2044.48111,0.0006645
2043.51673,0.0006663
2042.55235,0.0006682
2041.58797,0.0006700
2040.62359,0.0006719
2039.65922,0.0006737
2038.69484,0.0006756
2037.73046,0.0006774
2036.76608,0.0006793
2035.80171,0.0006812
2034.83733,0.0006830
2033.87295,0.0006849
2032.90857,0.0006867
2031.94419,0.0006886
2030.97982,0.0006904
2030.01544,0.0006923
2029.05106,0.0006941
2028.08668,0.0006960
2027.12230,0.0006978
2026.15793,0.0006997
2025.19355,0.0007015
2024.22917,0.0007034
2023.26479,0.0007052
2022.30041,0.0007071
2021.33604,0.0007089
2020.37166,0.0007108
2019.40728,0.0007126
2018.44290,0.0007145
2017.47853,0.0007163
2016.51415,0.0007182
2015.54977,0.0007200
2014.58539,0.0007219
2013.62101,0.0007238
2012.65664,0.0007256
2011.69226,0.0007275
2010.72788,0.0007293
2009.76350,0.0007312
2008.79912,0.0007330
2007.83475,0.0007349
2006.87037,0.0007367
2005.90599,0.0007386
2004.94161,0.0007404
2003.97724,0.0007423
2003.01286,0.0007441
2002.04848,0.0007460
2001.08410,0.0007478
2000.11972,0.0007497
1999.15535,0.0007515
1998.19097,0.0007534
1997.22659,0.0007552
1996.26221,0.0007571
1995.29783,0.0007589
1994.33346,0.0007608
1993.36908,0.0007626
1992.40470,0.0007645
1991.44032,0.0007663
1990.47594,0.0007682
1989.51157,0.0007701
1988.54719,0.0007719
1987.58281,0.0007738
1986.61843,0.0007756
1985.65406,0.0007775
1984.68968,0.0007793
1983.72530,0.0007812
1982.76092,0.0007830
1981.79654,0.0007849
1980.83217,0.0007867
1979.86779,0.0007886
1978.90341,0.0007904
1977.93903,0.0007923
1976.97465,0.0007941
1976.01028,0.0007960
1975.04590,0.0007978
1974.08152,0.0007997
1973.11714,0.0008015
1972.15276,0.0008034
1971.18839,0.0008052
1970.22401,0.0008071
1969.25963,0.0008089
1968.29525,0.0008108
1967.33088,0.0008127
1966.36650,0.0008145
1965.40212,0.0008164
1964.43774,0.0008182
1963.47336,0.0008201
1962.50899,0.0008219
1961.54461,0.0008238
1960.58023,0.0008256
1959.61585,0.0008275
1958.65147,0.0008293
1957.68710,0.0008312
1956.72272,0.0008330
1955.75834,0.0008349
1954.79396,0.0008367
1953.82959,0.0008386
1952.86521,0.0008404
1951.90083,0.0008423
1950.93645,0.0008441
1949.97207,0.0008460
1949.00770,0.0008478
1948.04332,0.0008497
1947.07894,0.0008515
1946.11456,0.0008534
1945.15018,0.0008553
1944.18581,0.0008571
1943.22143,0.0008590
1942.25705,0.0008608
1941.29267,0.0008627
1940.32829,0.0008645
1939.36392,0.0008664
1938.39954,0.0008682
1937.43516,0.0008701
1936.47078,0.0008719
1935.50641,0.0008738
1934.54203,0.0008756
1933.57765,0.0008775
1932.61327,0.0008793
1931.64889,0.0008812
1930.68452,0.0008830
1929.72014,0.0008849
1928.75576,0.0008867
1927.79138,0.0008886
1926.82700,0.0008904
1925.86263,0.0008923
1924.89825,0.0008941
1923.93387,0.0008960
1922.96949,0.0008979
1922.00512,0.0008997
1921.04074,0.0009016
1920.07636,0.0009034
1919.11198,0.0009053
1918.14760,0.0009071
1917.18323,0.0009090
1916.21885,0.0009108
1915.25447,0.0009127
1914.29009,0.0009145
1913.32571,0.0009164
1912.36134,0.0009182
1911.39696,0.0009201
1910.43258,0.0009219
1909.46820,0.0009238
1908.50382,0.0009256
1907.53945,0.0009275
1906.57507,0.0009293
1905.61069,0.0009312
1904.64631,0.0009330
1903.68194,0.0009349
1902.71756,0.0009367
1901.75318,0.0009386
1900.78880,0.0009404
1899.82442,0.0009423
1898.86005,0.0009442
1897.89567,0.0009460
1896.93129,0.0009479
1895.96691,0.0009497
1895.00253,0.0009516
1894.03816,0.0009534
1893.07378,0.0009553
1892.10940,0.0009571
1891.14502,0.0009590
1890.18065,0.0009608
1889.21627,0.0009627
1888.25189,0.0009645
1887.28751,0.0009664
1886.32313,0.0009682
1885.35876,0.0009701
1884.39438,0.0009719
1883.43000,0.0009738
1882.46562,0.0009756
1881.50124,0.0009775
1880.53687,0.0009793
1879.57249,0.0009812
1878.60811,0.0009830
1877.64373,0.0009849
1876.67935,0.0009868
1875.71498,0.0009886
1874.75060,0.0009905
1873.78622,0.0010113
1872.82184,0.0009964
1871.85747,0.0009749
1870.89309,0.0009734
1869.92871,0.0009921
1868.96433,0.0010081
1867.99995,0.0009794
1867.03558,0.0009147
1866.07120,0.0008245
1865.10682,0.0007328
1864.14244,0.0006980
1863.17806,0.0007145
1862.21369,0.0007312
1861.24931,0.0006938
1860.28493,0.0006749
1859.32055,0.0006924
1858.35618,0.0007288
1857.39180,0.0007596
1856.42742,0.0007477
1855.46304,0.0007140
1854.49866,0.0007085
1853.53429,0.0007614
1852.56991,0.0008643
1851.60553,0.0009422
1850.64115,0.0009308
1849.67677,0.0009090
1848.71240,0.0009513
1847.74802,0.0009938
1846.78364,0.0010394
1845.81926,0.0011087
1844.85488,0.0011466
1843.89051,0.0011927
1842.92613,0.0012992
1841.96175,0.0014134
1840.99737,0.0014736
1840.03300,0.0014698
1839.06862,0.0014289
1838.10424,0.0014187
1837.13986,0.0014358
1836.17548,0.0013889
1835.21111,0.0013447
1834.24673,0.0013495
1833.28235,0.0013404
1832.31797,0.0013611
1831.35359,0.0014151
1830.38922,0.0014837
1829.42484,0.0015513
1828.46046,0.0016031
1827.49608,0.0016723
1826.53171,0.0017134
1825.56733,0.0017179
1824.60295,0.0017071
1823.63857,0.0016911
1822.67419,0.0016840
1821.70982,0.0016616
1820.74544,0.0016579
1819.78106,0.0016718
1818.81668,0.0016829
1817.85230,0.0016924
1816.88793,0.0017189
1815.92355,0.0017900
1814.95917,0.0018447
1813.99479,0.0018874
1813.03041,0.0019306
1812.06604,0.0019418
1811.10166,0.0019559
1810.13728,0.0019840
1809.17290,0.0020265
1808.20853,0.0020639
1807.24415,0.0020864
1806.27977,0.0021216
1805.31539,0.0021706
1804.35101,0.0022366
1803.38664,0.0023001
1802.42226,0.0023249
1801.45788,0.0023212
1800.49350,0.0023146
1799.52912,0.0022922
1798.56475,0.0022470
1797.60037,0.0022215
1796.63599,0.0022443
1795.67161,0.0023005
1794.70724,0.0023524
1793.74286,0.0023881
1792.77848,0.0024356
1791.81410,0.0024867
1790.84972,0.0025056
1789.88535,0.0025088
1788.92097,0.0025151
1787.95659,0.0025111
1786.99221,0.0025115
1786.02783,0.0025495
1785.06346,0.0026245
1784.09908,0.0026836
1783.13470,0.0027070
1782.17032,0.0027198
1781.20594,0.0027438
1780.24157,0.0027844
1779.27719,0.0027994
1778.31281,0.0028094
1777.34843,0.0028766
1776.38406,0.0029949
1775.41968,0.0031315
1774.45530,0.0032553
1773.49092,0.0033675
1772.52654,0.0034560
1771.56217,0.0035083
1770.59779,0.0035335
1769.63341,0.0035454
1768.66903,0.0035418
1767.70465,0.0035082
1766.74028,0.0035234
1765.77590,0.0036157
1764.81152,0.0037235
1763.84714,0.0038212
1762.88276,0.0039024
1761.91839,0.0040092
1760.95401,0.0041250
1759.98963,0.0042057
1759.02525,0.0042685
1758.06088,0.0043064
1757.09650,0.0043326
1756.13212,0.0044049
1755.16774,0.0045335
1754.20336,0.0046643
1753.23899,0.0047887
1752.27461,0.0049168
1751.31023,0.0050349
1750.34585,0.0051567
1749.38147,0.0052697
1748.41710,0.0053714
1747.45272,0.0054513
1746.48834,0.0054780
1745.52396,0.0055092
1744.55959,0.0055996
1743.59521,0.0056946
1742.63083,0.0057562
1741.66645,0.0057979
1740.70207,0.0058105
1739.73770,0.0058388
1738.77332,0.0059430
1737.80894,0.0060846
1736.84456,0.0062110
1735.88018,0.0062840
1734.91581,0.0063043
1733.95143,0.0063022
1732.98705,0.0062823
1732.02267,0.0062254
1731.05829,0.0061174
1730.09392,0.0059683
1729.12954,0.0058192
1728.16516,0.0057485
1727.20078,0.0057601
1726.23641,0.0057752
1725.27203,0.0057688
1724.30765,0.0057514
1723.34327,0.0057578
1722.37889,0.0058104
1721.41452,0.0058778
1720.45014,0.0059443
1719.48576,0.0060146
1718.52138,0.0060670
1717.55700,0.0060874
1716.59263,0.0060892
1715.62825,0.0060667
1714.66387,0.0060077
1713.69949,0.0059122
1712.73512,0.0057922
1711.77074,0.0056951
1710.80636,0.0056473
1709.84198,0.0056135
1708.87760,0.0056009
1707.91323,0.0056110
1706.94885,0.0055797
1705.98447,0.0055614
1705.02009,0.0056443
1704.05571,0.0057711
1703.09134,0.0058623
1702.12696,0.0058820
1701.16258,0.0059145
1700.19820,0.0060192
1699.23382,0.0061270
1698.26945,0.0061945
1697.30507,0.0062171
1696.34069,0.0061714
1695.37631,0.0060686
1694.41194,0.0060080
1693.44756,0.0060134
1692.48318,0.0059823
1691.51880,0.0058670
1690.55442,0.0057607
1689.59005,0.0058345
1688.62567,0.0060429
1687.66129,0.0062483
1686.69691,0.0064201
1685.73253,0.0065659
1684.76816,0.0066888
1683.80378,0.0067765
1682.83940,0.0068313
1681.87502,0.0068365
1680.91065,0.0068186
1679.94627,0.0068407
1678.98189,0.0069207
1678.01751,0.0070742
1677.05313,0.0072545
1676.08876,0.0074168
1675.12438,0.0075609
1674.16000,0.0077254
1673.19562,0.0079027
1672.23124,0.0080430
1671.26687,0.0081500
1670.30249,0.0082285
1669.33811,0.0083262
1668.37373,0.0084691
1667.40935,0.0086126
1666.44498,0.0087510
1665.48060,0.0088799
1664.51622,0.0089985
1663.55184,0.0091285
1662.58747,0.0092825
1661.62309,0.0094239
1660.65871,0.0095347
1659.69433,0.0096263
1658.72995,0.0097503
1657.76558,0.0100020
1656.80120,0.0103367
1655.83682,0.0106647
1654.87244,0.0109198
1653.90806,0.0110941
1652.94369,0.0112124
1651.97931,0.0112906
1651.01493,0.0113753
1650.05055,0.0114315
1649.08618,0.0114358
1648.12180,0.0114344
1647.15742,0.0114938
1646.19304,0.0116433
1645.22866,0.0117738
1644.26429,0.0118326
1643.29991,0.0118482
1642.33553,0.0118511
1641.37115,0.0118750
1640.40677,0.0120015
1639.44240,0.0122239
1638.47802,0.0124180
1637.51364,0.0125615
1636.54926,0.0126806
1635.58488,0.0127700
1634.62051,0.0128183
1633.65613,0.0128306
1632.69175,0.0128216
1631.72737,0.0127946
1630.76300,0.0127594
1629.79862,0.0127476
1628.83424,0.0128221
1627.86986,0.0129240
1626.90548,0.0129795
1625.94111,0.0130053
1624.97673,0.0130183
1624.01235,0.0130125
1623.04797,0.0129510
1622.08359,0.0129081
1621.11922,0.0129276
1620.15484,0.0129292
1619.19046,0.0128961
1618.22608,0.0128441
1617.26171,0.0128011
1616.29733,0.0127487
1615.33295,0.0126631
1614.36857,0.0125637
1613.40419,0.0124640
1612.43982,0.0123610
1611.47544,0.0122556
1610.51106,0.0121978
1609.54668,0.0121646
1608.58230,0.0120993
1607.61793,0.0120179
1606.65355,0.0119354
1605.68917,0.0118566
1604.72479,0.0117839
1603.76041,0.0117242
1602.79604,0.0116781
1601.83166,0.0116395
1600.86728,0.0115960
1599.90290,0.0115446
1598.93853,0.0114862
1597.97415,0.0114144
1597.00977,0.0113418
1596.04539,0.0112722
1595.08101,0.0112018
1594.11664,0.0111282
1593.15226,0.0110520
1592.18788,0.0109691
1591.22350,0.0108827
1590.25912,0.0107931
1589.29475,0.0106831
1588.33037,0.0105638
1587.36599,0.0104331
1586.40161,0.0102925
1585.43724,0.0101556
1584.47286,0.0100207
1583.50848,0.0098690
1582.54410,0.0096811
1581.57972,0.0095372
1580.61535,0.0094769
1579.65097,0.0094358
1578.68659,0.0093748
1577.72221,0.0092804
1576.75783,0.0091425
1575.79346,0.0089631
1574.82908,0.0087997
1573.86470,0.0086532
1572.90032,0.0084808
1571.93594,0.0082723
1570.97157,0.0080469
1570.00719,0.0078952
1569.04281,0.0078063
1568.07843,0.0076879
1567.11406,0.0075131
1566.14968,0.0073033
1565.18530,0.0071320
1564.22092,0.0070483
1563.25654,0.0070929
1562.29217,0.0072070
1561.32779,0.0072635
1560.36341,0.0072552
1559.39903,0.0072352
1558.43465,0.0072107
1557.47028,0.0071314
1556.50590,0.0069589
1555.54152,0.0067131
1554.57714,0.0064616
1553.61276,0.0062776
1552.64839,0.0061535
1551.68401,0.0060692
1550.71963,0.0060044
1549.75525,0.0059339
1548.79088,0.0058769
1547.82650,0.0058695
1546.86212,0.0058981
1545.89774,0.0058931
1544.93336,0.0058882
1543.96899,0.0059651
1543.00461,0.0060612
1542.04023,0.0061042
1541.07585,0.0060726
1540.11147,0.0059681
1539.14710,0.0058581
1538.18272,0.0057785
1537.21834,0.0056736
1536.25396,0.0055498
1535.28959,0.0054319
1534.32521,0.0053085
1533.36083,0.0052556
1532.39645,0.0052746
1531.43207,0.0052811
1530.46770,0.0052873
1529.50332,0.0052855
1528.53894,0.0052514
1527.57456,0.0052214
1526.61018,0.0052431
1525.64581,0.0053083
1524.68143,0.0053692
1523.71705,0.0053854
1522.75267,0.0053836
1521.78829,0.0053993
1520.82392,0.0053961
1519.85954,0.0053878
1518.89516,0.0053750
1517.93078,0.0053152
1516.96641,0.0052254
1516.00203,0.0051290
1515.03765,0.0050742
1514.07327,0.0050505
1513.10889,0.0050023
1512.14452,0.0049831
1511.18014,0.0050793
1510.21576,0.0052568
1509.25138,0.0054113
1508.28700,0.0055168
1507.32263,0.0055652
1506.35825,0.0055593
1505.39387,0.0055078
1504.42949,0.0054091
1503.46512,0.0052922
1502.50074,0.0051529
1501.53636,0.0050632
1500.57198,0.0051003
1499.60760,0.0052062
1498.64323,0.0053020
1497.67885,0.0053383
1496.71447,0.0053277
1495.75009,0.0053120
1494.78571,0.0053059
1493.82134,0.0052973
1492.85696,0.0052947
1491.89258,0.0053169
1490.92820,0.0053481
1489.96382,0.0054131
1488.99945,0.0054865
1488.03507,0.0055100
1487.07069,0.0055039
1486.10631,0.0054827
1485.14194,0.0054553
1484.17756,0.0054482
1483.21318,0.0054560
1482.24880,0.0054572
1481.28442,0.0054808
1480.32005,0.0055365
1479.35567,0.0055906
1478.39129,0.0056578
1477.42691,0.0057604
1476.46253,0.0058901
1475.49816,0.0060218
1474.53378,0.0061396
1473.56940,0.0062304
1472.60502,0.0062787
1471.64065,0.0062816
1470.67627,0.0062690
1469.71189,0.0063003
1468.74751,0.0063376
1467.78313,0.0063465
1466.81876,0.0063820
1465.85438,0.0064491
1464.89000,0.0065294
1463.92562,0.0065962
1462.96124,0.0066574
1461.99687,0.0067892
1461.03249,0.0069808
1460.06811,0.0071578
1459.10373,0.0073057
1458.13935,0.0074386
1457.17498,0.0075228
1456.21060,0.0075510
1455.24622,0.0075466
1454.28184,0.0075036
1453.31747,0.0074412
1452.35309,0.0073906
1451.38871,0.0073987
1450.42433,0.0075104
1449.45995,0.0076494
1448.49558,0.0077420
1447.53120,0.0078199
1446.56682,0.0078959
1445.60244,0.0079555
1444.63806,0.0080070
1443.67369,0.0080372
1442.70931,0.0080552
1441.74493,0.0081254
1440.78055,0.0082543
1439.81618,0.0083929
1438.85180,0.0085200
1437.88742,0.0086269
1436.92304,0.0087080
1435.95866,0.0087697
1434.99429,0.0088085
1434.02991,0.0088213
1433.06553,0.0088194
1432.10115,0.0088134
1431.13677,0.0088153
1430.17240,0.0088598
1429.20802,0.0089391
1428.24364,0.0090202
1427.27926,0.0091136
1426.31488,0.0092002
1425.35051,0.0092795
1424.38613,0.0094045
1423.42175,0.0095667
1422.45737,0.0097373
1421.49300,0.0099033
1420.52862,0.0100514
1419.56424,0.0101674
1418.59986,0.0102575
1417.63548,0.0103338
1416.67111,0.0103818
1415.70673,0.0104029
1414.74235,0.0104033
1413.77797,0.0104138
1412.81359,0.0104615
1411.84922,0.0105027
1410.88484,0.0105338
1409.92046,0.0105840
1408.95608,0.0106438
1407.99171,0.0106993
1407.02733,0.0107453
1406.06295,0.0107742
1405.09857,0.0107925
1404.13419,0.0108149
1403.16982,0.0108318
1402.20544,0.0108354
1401.24106,0.0108274
1400.27668,0.0108241
1399.31230,0.0108463
1398.34793,0.0108814
1397.38355,0.0109075
1396.41917,0.0109173
1395.45479,0.0109127
1394.49041,0.0108852
1393.52604,0.0108491
1392.56166,0.0108338
1391.59728,0.0108247
1390.63290,0.0108097
1389.66853,0.0107869
1388.70415,0.0107669
1387.73977,0.0107577
1386.77539,0.0107385
1385.81101,0.0107143
1384.84664,0.0106932
1383.88226,0.0106691
1382.91788,0.0106430
1381.95350,0.0106249
1380.98912,0.0106242
1380.02475,0.0106317
1379.06037,0.0106437
1378.09599,0.0106533
1377.13161,0.0106472
1376.16724,0.0106269
1375.20286,0.0105969
1374.23848,0.0105603
1373.27410,0.0105244
1372.30972,0.0104891
1371.34535,0.0104370
1370.38097,0.0103617
1369.41659,0.0102937
1368.45221,0.0102651
1367.48783,0.0102645
1366.52346,0.0102699
1365.55908,0.0102697
1364.59470,0.0102493
1363.63032,0.0102193
1362.66594,0.0102030
1361.70157,0.0101979
1360.73719,0.0101776
1359.77281,0.0101274
1358.80843,0.0100626
1357.84406,0.0100023
1356.87968,0.0099528
1355.91530,0.0099100
1354.95092,0.0098735
1353.98654,0.0098284
1353.02217,0.0097666
1352.05779,0.0097205
1351.09341,0.0097048
1350.12903,0.0096976
1349.16465,0.0096783
1348.20028,0.0096461
1347.23590,0.0096068
1346.27152,0.0095639
1345.30714,0.0095284
1344.34276,0.0095079
1343.37839,0.0094942
1342.41401,0.0094713
1341.44963,0.0094519
1340.48525,0.0094478
1339.52088,0.0094415
1338.55650,0.0094244
1337.59212,0.0093892
1336.62774,0.0093421
1335.66336,0.0092933
1334.69899,0.0092422
1333.73461,0.0091915
1332.77023,0.0091452
1331.80585,0.0091144
1330.84147,0.0090901
1329.87710,0.0090599
1328.91272,0.0090261
1327.94834,0.0089920
1326.98396,0.0089596
1326.01959,0.0089251
1325.05521,0.0089062
1324.09083,0.0089006
1323.12645,0.0088870
1322.16207,0.0088730
1321.19770,0.0088647
1320.23332,0.0088691
1319.26894,0.0088722
1318.30456,0.0088519
1317.34018,0.0088204
1316.37581,0.0087907
1315.41143,0.0087561
1314.44705,0.0087148
1313.48267,0.0086884
1312.51829,0.0086690
1311.55392,0.0086448
1310.58954,0.0086317
1309.62516,0.0086177
1308.66078,0.0086044
1307.69641,0.0086019
1306.73203,0.0085999
1305.76765,0.0085993
1304.80327,0.0085962
1303.83889,0.0085846
1302.87452,0.0085678
1301.91014,0.0085637
1300.94576,0.0085746
1299.98138,0.0085861
1299.01700,0.0086002
1298.05263,0.0086122
1297.08825,0.0086338
1296.12387,0.0086806
1295.15949,0.0087282
1294.19512,0.0087589
1293.23074,0.0087800
1292.26636,0.0087898
1291.30198,0.0087818
1290.33760,0.0087786
1289.37323,0.0087908
1288.40885,0.0088008
1287.44447,0.0088055
1286.48009,0.0088072
1285.51571,0.0088161
1284.55134,0.0088386
1283.58696,0.0088585
1282.62258,0.0088703
1281.65820,0.0088797
1280.69382,0.0088861
1279.72945,0.0088902
1278.76507,0.0089006
1277.80069,0.0089265
1276.83631,0.0089498
1275.87194,0.0089543
1274.90756,0.0089580
1273.94318,0.0089617
1272.97880,0.0089575
1272.01442,0.0089515
1271.05005,0.0089416
1270.08567,0.0089343
1269.12129,0.0089404
1268.15691,0.0089528
1267.19253,0.0089614
1266.22816,0.0089761
1265.26378,0.0089979
1264.29940,0.0090213
1263.33502,0.0090517
1262.37065,0.0090683
1261.40627,0.0090674
1260.44189,0.0090615
1259.47751,0.0090555
1258.51313,0.0090639
1257.54876,0.0090751
1256.58438,0.0090823
1255.62000,0.0090912
1254.65562,0.0091041
1253.69124,0.0091210
1252.72687,0.0091331
1251.76249,0.0091482
1250.79811,0.0091601
1249.83373,0.0091581
1248.86935,0.0091493
1247.90498,0.0091420
1246.94060,0.0091398
1245.97622,0.0091223
1245.01184,0.0090928
1244.04747,0.0090698
1243.08309,0.0090481
1242.11871,0.0090263
1241.15433,0.0090016
1240.18995,0.0089771
1239.22558,0.0089582
1238.26120,0.0089410
1237.29682,0.0089274
1236.33244,0.0089222
1235.36806,0.0089246
1234.40369,0.0089208
1233.43931,0.0089050
1232.47493,0.0088923
1231.51055,0.0088907
1230.54618,0.0088903
1229.58180,0.0088768
1228.61742,0.0088531
1227.65304,0.0088352
1226.68866,0.0088252
1225.72429,0.0088201
1224.75991,0.0088195
1223.79553,0.0088208
1222.83115,0.0088132
1221.86677,0.0087892
1220.90240,0.0087625
1219.93802,0.0087357
1218.97364,0.0086987
1218.00926,0.0086600
1217.04488,0.0086345
1216.08051,0.0086296
1215.11613,0.0086383
1214.15175,0.0086389
1213.18737,0.0086277
1212.22300,0.0086226
1211.25862,0.0086229
1210.29424,0.0086255
1209.32986,0.0086255
1208.36548,0.0086174
1207.40111,0.0086224
1206.43673,0.0086331
1205.47235,0.0086414
1204.50797,0.0086561
1203.54359,0.0086593
1202.57922,0.0086522
1201.61484,0.0086423
1200.65046,0.0086431
1199.68608,0.0086650
1198.72171,0.0086909
1197.75733,0.0087155
1196.79295,0.0087469
1195.82857,0.0087902
1194.86419,0.0088223
1193.89982,0.0088413
1192.93544,0.0088661
1191.97106,0.0088819
1191.00668,0.0088949
1190.04230,0.0089187
1189.07793,0.0089589
1188.11355,0.0090048
1187.14917,0.0090328
1186.18479,0.0090589
1185.22041,0.0090849
1184.25604,0.0090980
1183.29166,0.0090973
1182.32728,0.0090882
1181.36290,0.0090911
1180.39853,0.0091058
1179.43415,0.0091410
1178.46977,0.0092110
1177.50539,0.0092864
1176.54101,0.0093482
1175.57664,0.0094141
1174.61226,0.0094886
1173.64788,0.0095444
1172.68350,0.0095601
1171.71912,0.0095509
1170.75475,0.0095454
1169.79037,0.0095598
1168.82599,0.0095956
1167.86161,0.0096459
1166.89724,0.0096987
1165.93286,0.0097359
1164.96848,0.0097673
1164.00410,0.0098053
1163.03972,0.0098342
1162.07535,0.0098567
1161.11097,0.0098800
1160.14659,0.0099041
1159.18221,0.0099292
1158.21783,0.0099557
1157.25346,0.0099969
1156.28908,0.0100473
1155.32470,0.0100933
1154.36032,0.0101245
1153.39594,0.0101522
1152.43157,0.0101935
1151.46719,0.0102418
1150.50281,0.0103094
1149.53843,0.0103756
1148.57406,0.0104175
1147.60968,0.0104608
1146.64530,0.0105125
1145.68092,0.0105658
1144.71654,0.0105973
1143.75217,0.0105962
1142.78779,0.0105806
1141.82341,0.0105837
1140.85903,0.0106213
1139.89465,0.0106664
1138.93028,0.0107083
1137.96590,0.0107395
1137.00152,0.0107755
1136.03714,0.0108411
1135.07276,0.0109195
1134.10839,0.0109970
1133.14401,0.0110573
1132.17963,0.0110935
1131.21525,0.0111269
1130.25088,0.0111614
1129.28650,0.0111715
1128.32212,0.0111677
1127.35774,0.0111745
1126.39336,0.0111829
1125.42899,0.0112093
1124.46461,0.0112576
1123.50023,0.0113107
1122.53585,0.0113621
1121.57147,0.0114089
1120.60710,0.0114542
1119.64272,0.0114909
1118.67834,0.0115005
1117.71396,0.0114796
1116.74959,0.0114807
1115.78521,0.0114938
1114.82083,0.0114845
1113.85645,0.0114938
1112.89207,0.0115140
1111.92770,0.0115406
1110.96332,0.0115722
1109.99894,0.0116004
1109.03456,0.0116351
1108.07018,0.0116557
1107.10581,0.0116581
1106.14143,0.0116462
1105.17705,0.0116381
1104.21267,0.0116240
1103.24829,0.0115999
1102.28392,0.0115992
1101.31954,0.0116117
1100.35516,0.0116378
1099.39078,0.0116541
1098.42641,0.0116453
1097.46203,0.0116266
1096.49765,0.0115846
1095.53327,0.0115411
1094.56889,0.0115244
1093.60452,0.0115376
1092.64014,0.0115550
1091.67576,0.0115543
1090.71138,0.0115423
1089.74700,0.0115266
1088.78263,0.0115142
1087.81825,0.0114964
1086.85387,0.0114694
1085.88949,0.0114260
1084.92512,0.0113792
1083.96074,0.0113579
1082.99636,0.0113549
1082.03198,0.0113627
1081.06760,0.0113671
1080.10323,0.0113452
1079.13885,0.0113028
1078.17447,0.0112644
1077.21009,0.0112253
1076.24571,0.0111773
1075.28134,0.0111302
1074.31696,0.0110798
1073.35258,0.0110528
1072.38820,0.0110588
1071.42382,0.0110635
1070.45945,0.0110776
1069.49507,0.0111041
1068.53069,0.0110963
1067.56631,0.0110554
1066.60194,0.0110123
1065.63756,0.0109553
1064.67318,0.0108871
1063.70880,0.0108193
1062.74442,0.0107487
1061.78005,0.0106937
1060.81567,0.0106547
1059.85129,0.0106068
1058.88691,0.0105696
1057.92253,0.0105639
1056.95816,0.0105517
1055.99378,0.0105311
1055.02940,0.0105216
1054.06502,0.0105108
1053.10065,0.0104915
1052.13627,0.0104483
1051.17189,0.0103884
1050.20751,0.0103284
1049.24313,0.0102641
1048.27876,0.0101936
1047.31438,0.0101292
1046.35000,0.0100774
1045.38562,0.0100201
1044.42124,0.0099691
1043.45687,0.0099401
1042.49249,0.0099211
1041.52811,0.0099013
1040.56373,0.0098823
1039.59935,0.0098819
1038.63498,0.0098895
1037.67060,0.0098805
1036.70622,0.0098495
1035.74184,0.0098149
1034.77747,0.0097843
1033.81309,0.0097466
1032.84871,0.0097107
1031.88433,0.0096649
1030.91995,0.0096047
1029.95558,0.0095460
1028.99120,0.0094969
1028.02682,0.0094664
1027.06244,0.0094377
1026.09806,0.0094037
1025.13369,0.0093762
1024.16931,0.0093507
1023.20493,0.0093249
1022.24055,0.0093029
1021.27618,0.0092689
1020.31180,0.0092154
1019.34742,0.0091626
1018.38304,0.0091119
1017.41866,0.0090646
1016.45429,0.0090215
1015.48991,0.0089777
1014.52553,0.0089418
1013.56115,0.0089053
1012.59677,0.0088602
1011.63240,0.0088265
1010.66802,0.0088206
1009.70364,0.0088157
1008.73926,0.0087970
1007.77488,0.0087809
1006.81051,0.0087757
1005.84613,0.0087786
1004.88175,0.0087624
1003.91737,0.0087352
1002.95300,0.0087119
1001.98862,0.0086836
1001.02424,0.0086739
1000.05986,0.0086859
999.09548,0.0087000
998.13111,0.0086976
997.16673,0.0086750
996.20235,0.0086521
995.23797,0.0086401
994.27359,0.0086372
993.30922,0.0086263
992.34484,0.0086010
991.38046,0.0085727
990.41608,0.0085611
989.45171,0.0085660
988.48733,0.0085603
987.52295,0.0085372
986.55857,0.0085071
985.59419,0.0084900
984.62982,0.0084722
983.66544,0.0084464
982.70106,0.0084482
981.73668,0.0084705
980.77230,0.0084897
979.80793,0.0085015
978.84355,0.0085139
977.87917,0.0085158
976.91479,0.0084786
975.95041,0.0084118
974.98604,0.0083396
974.02166,0.0082991
973.05728,0.0082852
972.09290,0.0082671
971.12853,0.0082659
970.16415,0.0082718
969.19977,0.0082675
968.23539,0.0082711
967.27101,0.0082892
966.30664,0.0082960
965.34226,0.0082514
964.37788,0.0081801
963.41350,0.0081250
962.44912,0.0081033
961.48475,0.0081121
960.52037,0.0081098
959.55599,0.0080891
958.59161,0.0080602
957.62724,0.0080190
956.66286,0.0079919
955.69848,0.0079940
954.73410,0.0079995
953.76972,0.0079988
952.80535,0.0080006
951.84097,0.0079939
950.87659,0.0079941
949.91221,0.0080044
948.94783,0.0079924
947.98346,0.0079763
947.01908,0.0079657
946.05470,0.0079385
945.09032,0.0079259
944.12594,0.0079617
943.16157,0.0080158
942.19719,0.0080630
941.23281,0.0080959
940.26843,0.0080993
939.30406,0.0080928
938.33968,0.0080777
937.37530,0.0080425
936.41092,0.0080136
935.44654,0.0079831
934.48217,0.0079387
933.51779,0.0079100
932.55341,0.0079074
931.58903,0.0079197
930.62465,0.0079400
929.66028,0.0079490
928.69590,0.0079241
927.73152,0.0078846
926.76714,0.0078628
925.80276,0.0078466
924.83839,0.0078240
923.87401,0.0078052
922.90963,0.0077819
921.94525,0.0077632
920.98088,0.0077707
920.01650,0.0078008
919.05212,0.0078292
918.08774,0.0078293
917.12336,0.0077989
916.15899,0.0077424
915.19461,0.0076755
914.23023,0.0076104
913.26585,0.0075753
912.30147,0.0075872
911.33710,0.0075855
910.37272,0.0075676
909.40834,0.0075644
908.44396,0.0075667
907.47959,0.0075822
906.51521,0.0076121
905.55083,0.0076270
904.58645,0.0075936
903.62207,0.0075415
902.65770,0.0075082
901.69332,0.0075146
900.72894,0.0075289
899.76456,0.0074804
898.80018,0.0074090
897.83581,0.0073570
896.87143,0.0073452
895.90705,0.0073899
894.94267,0.0074688
893.97829,0.0075568
893.01392,0.0076078
892.04954,0.0076231
891.08516,0.0076134
890.12078,0.0075874
889.15641,0.0075420
888.19203,0.0074710
887.22765,0.0074125
886.26327,0.0073744
885.29889,0.0073908
884.33452,0.0074529
883.37014,0.0075284
882.40576,0.0076078
881.44138,0.0076334
880.47700,0.0076177
879.51263,0.0076000
878.54825,0.0075876
877.58387,0.0075668
876.61949,0.0075294
875.65512,0.0074673
874.69074,0.0073846
873.72636,0.0073610
872.76198,0.0073890
871.79760,0.0074222
870.83323,0.0074438
869.86885,0.0074540
868.90447,0.0075065
867.94009,0.0075767
866.97571,0.0076309
866.01134,0.0076801
865.04696,0.0077145
864.08258,0.0077149
863.11820,0.0076970
862.15382,0.0077076
861.18945,0.0077405
860.22507,0.0077641
859.26069,0.0077712
858.29631,0.0078019
857.33194,0.0078600
856.36756,0.0078882
855.40318,0.0078850
854.43880,0.0078775
853.47442,0.0078824
852.51005,0.0078787
851.54567,0.0078486
850.58129,0.0078019
849.61691,0.0077555
848.65253,0.0077300
847.68816,0.0077105
846.72378,0.0077022
845.75940,0.0077079
844.79502,0.0077062
843.83065,0.0076953
842.86627,0.0076948
841.90189,0.0077242
840.93751,0.0077369
839.97313,0.0077151
839.00876,0.0076886
838.04438,0.0076660
837.08000,0.0076576
836.11562,0.0076387
835.15124,0.0076110
834.18687,0.0076106
833.22249,0.0076171
832.25811,0.0076032
831.29373,0.0075957
830.32935,0.0075990
829.36498,0.0075615
828.40060,0.0074945
827.43622,0.0074539
826.47184,0.0074523
825.50747,0.0074760
824.54309,0.0074870
823.57871,0.0074754
822.61433,0.0074850
821.64995,0.0075261
820.68558,0.0075674
819.72120,0.0076090
818.75682,0.0076436
817.79244,0.0076375
816.82806,0.0076209
815.86369,0.0076311
814.89931,0.0076475
813.93493,0.0076587
812.97055,0.0076631
812.00618,0.0076638
811.04180,0.0076735
810.07742,0.0076832
809.11304,0.0076719
808.14866,0.0076474
807.18429,0.0076411
806.21991,0.0076429
805.25553,0.0076323
804.29115,0.0076216
803.32677,0.0076089
802.36240,0.0076014
801.39802,0.0076209
800.43364,0.0076532
799.46926,0.0076632
798.50488,0.0076457
797.54051,0.0076299
796.57613,0.0076290
795.61175,0.0076313
794.64737,0.0076297
793.68300,0.0076306
792.71862,0.0076399
791.75424,0.0076448
790.78986,0.0076404
789.82548,0.0076672
788.86111,0.0077188
787.89673,0.0077312
786.93235,0.0077232
785.96797,0.0077280
785.00359,0.0077360
784.03922,0.0077379
783.07484,0.0077132
782.11046,0.0076852
781.14608,0.0076758
780.18171,0.0076631
779.21733,0.0076431
778.25295,0.0076431
777.28857,0.0076507
776.32419,0.0076299
775.35982,0.0076448
774.39544,0.0077122
773.43106,0.0077689
772.46668,0.0078009
771.50230,0.0077992
770.53793,0.0078053
769.57355,0.0078365
768.60917,0.0078650
767.64479,0.0079002
766.68041,0.0079332
765.71604,0.0079546
764.75166,0.0079700
763.78728,0.0080256
762.82290,0.0080915
761.85853,0.0080642
760.89415,0.0079776
759.92977,0.0078815
758.96539,0.0077766
758.00101,0.0076816
757.03664,0.0076413
756.07226,0.0076633
755.10788,0.0076624
754.14350,0.0076690
753.17912,0.0077425
752.21475,0.0078420
751.25037,0.0079570
750.28599,0.0080551
749.32161,0.0081351
748.35724,0.0082018
747.39286,0.0082094
746.42848,0.0081928
745.46410,0.0081919
744.49972,0.0081648
743.53535,0.0080725
742.57097,0.0079732
741.60659,0.0079068
740.64221,0.0078509
739.67783,0.0078632
738.71346,0.0079329
737.74908,0.0079894
736.78470,0.0080401
735.82032,0.0080893
734.85594,0.0081421
733.89157,0.0081958
732.92719,0.0082357
731.96281,0.0082456
730.99843,0.0082189
730.03406,0.0082123
729.06968,0.0082846
728.10530,0.0084251
727.14092,0.0085476
726.17654,0.0086026
725.21217,0.0086381
724.24779,0.0086637
723.28341,0.0086732
722.31903,0.0086988
721.35465,0.0087116
720.39028,0.0086801
719.42590,0.0086462
718.46152,0.0086740
717.49714,0.0087835
716.53276,0.0089001
715.56839,0.0089517
714.60401,0.0089579
713.63963,0.0089416
712.67525,0.0088923
711.71088,0.0088500
710.74650,0.0088410
709.78212,0.0088050
708.81774,0.0087473
707.85336,0.0087226
706.88899,0.0087286
705.92461,0.0087556
704.96023,0.0087926
703.99585,0.0088349
703.03147,0.0088692
702.06710,0.0088802
701.10272,0.0088892
700.13834,0.0089220
699.17396,0.0089606
698.20959,0.0089560
697.24521,0.0089278
696.28083,0.0089153
695.31645,0.0089006
694.35207,0.0088718
693.38770,0.0088401
692.42332,0.0088271
691.45894,0.0088274
690.49456,0.0088346
689.53018,0.0088593
688.56581,0.0088957
687.60143,0.0089309
686.63705,0.0089454
685.67267,0.0089454
684.70829,0.0089377
683.74392,0.0089306
682.77954,0.0089316
681.81516,0.0089253
680.85078,0.0089227
679.88641,0.0089043
678.92203,0.0088656
677.95765,0.0088503
676.99327,0.0088611
676.02889,0.0088851
675.06452,0.0088762
674.10014,0.0088318
673.13576,0.0088852
672.17138,0.0090723
671.20700,0.0092797
670.24263,0.0094293
669.27825,0.0095213
668.31387,0.0095744
667.34949,0.0096130
666.38512,0.0096285
665.42074,0.0095677
664.45636,0.0094377
663.49198,0.0092820
662.52760,0.0091561
661.56323,0.0091509
660.59885,0.0092308
659.63447,0.0093186
658.67009,0.0094008
657.70571,0.0094643
656.74134,0.0095433
655.77696,0.0096383
654.81258,0.0096804
653.84820,0.0096518
652.88382,0.0095925
651.91945,0.0095313
650.95507,0.0094521
649.99069,0.0093720
649.02631,0.0093421
648.06194,0.0093466
647.09756,0.0093321
646.13318,0.0093137
645.16880,0.0093633
644.20442,0.0094539
643.24005,0.0095268
642.27567,0.0095909
641.31129,0.0096264
640.34691,0.0096390
639.38253,0.0096679
638.41816,0.0097039
637.45378,0.0097365
636.48940,0.0097626
635.52502,0.0097540
634.56065,0.0097294
633.59627,0.0096988
632.63189,0.0096213
631.66751,0.0096263
630.70313,0.0096116
629.73876,0.0093981
628.77438,0.0093147
627.81000,0.0091899
626.84562,0.0091996
625.88124,0.0096667
624.91687,0.0100061
623.95249,0.0099693
622.98811,0.0097464
622.02373,0.0095446
621.05935,0.0094722
620.09498,0.0096729
619.13060,0.0100069
618.16622,0.0105093
617.20184,0.0108903
616.23747,0.0104876
615.27309,0.0109026
614.30871,0.0122161
613.34433,0.0128378
612.37995,0.0129618
611.41558,0.0128614
610.45120,0.0125005
609.48682,0.0120755
608.52244,0.0118407
607.55806,0.0117762
606.59369,0.0116117
605.62931,0.0108292
604.66493,0.0098654
603.70055,0.0100523
602.73618,0.0106075
601.77180,0.0106808
600.80742,0.0106404
599.84304,0.0104548
598.87866,0.0101006
597.91429,0.0097954
596.94991,0.0096054
595.98553,0.0094378
595.02115,0.0092879
594.05677,0.0092383
593.09240,0.0093439
592.12802,0.0095765
591.16364,0.0098313
590.19926,0.0099355
589.23488,0.0098975
588.27051,0.0099322
587.30613,0.0099824
586.34175,0.0099184
585.37737,0.0098306
584.41300,0.0098286
583.44862,0.0099315
582.48424,0.0100434
581.51986,0.0101161
580.55548,0.0102156
579.59111,0.0103064
578.62673,0.0102418
577.66235,0.0101176
576.69797,0.0100715
575.73359,0.0099827
574.76922,0.0098951
573.80484,0.0098928
572.84046,0.0098666
571.87608,0.0097623
570.91171,0.0096581
569.94733,0.0097185
568.98295,0.0099298
568.01857,0.0101296
567.05419,0.0102311
566.08982,0.0102523
565.12544,0.0102626
564.16106,0.0103023
563.19668,0.0103672
562.23230,0.0103519
561.26793,0.0101919
560.30355,0.0099874
559.33917,0.0098843
558.37479,0.0098978
557.41041,0.0099075
556.44604,0.0098790
555.48166,0.0098397
554.51728,0.0098254
553.55290,0.0098629
552.58853,0.0099158
551.62415,0.0099359
550.65977,0.0099074
549.69539,0.0098540
548.73101,0.0097963
547.76664,0.0097238
546.80226,0.0096348
545.83788,0.0096183
544.87350,0.0096667
543.90912,0.0096986
542.94475,0.0097474
541.98037,0.0097877
541.01599,0.0098390
540.05161,0.0099193
539.08724,0.0099910
538.12286,0.0101086
537.15848,0.0102218
536.19410,0.0102799
535.22972,0.0103250
534.26535,0.0103608
533.30097,0.0103698
532.33659,0.0103421
531.37221,0.0102687
530.40783,0.0101673
529.44346,0.0101095
528.47908,0.0100519
527.51470,0.0099617
526.55032,0.0099168
525.58594,0.0098701
524.62157,0.0097970
523.65719,0.0097380
522.69281,0.0097007
521.72843,0.0097276
520.76406,0.0097396
519.79968,0.0096565
518.83530,0.0096091
517.87092,0.0096282
516.90654,0.0096024
515.94217,0.0095070
514.97779,0.0094301
514.01341,0.0094700
513.04903,0.0095939
512.08465,0.0097458
511.12028,0.0098600
510.15590,0.0099170
509.19152,0.0099416
508.22714,0.0098910
507.26276,0.0098364
506.29839,0.0097690
505.33401,0.0096283
504.36963,0.0095298
503.40525,0.0095831
502.44088,0.0097834
501.47650,0.0099681
500.51212,0.0100635
499.54774,0.0101330
498.58336,0.0102340
497.61899,0.0103311
496.65461,0.0103040
495.69023,0.0101921
494.72585,0.0100784
493.76147,0.0100153
492.79710,0.0100151
491.83272,0.0100528
490.86834,0.0100773
489.90396,0.0099880
488.93959,0.0098714
487.97521,0.0098521
487.01083,0.0099201
486.04645,0.0099578
485.08207,0.0099097
484.11770,0.0098409
483.15332,0.0097839
482.18894,0.0098140
481.22456,0.0098781
480.26018,0.0099088
479.29581,0.0098780
478.33143,0.0097864
477.36705,0.0098082
476.40267,0.0099178
475.43829,0.0099979
474.47392,0.0100104
473.50954,0.0100284
472.54516,0.0100826
471.58078,0.0100651
470.61641,0.0100959
469.65203,0.0101513
468.68765,0.0101488
467.72327,0.0101771
466.75889,0.0102611
465.79452,0.0103961
464.83014,0.0104224
463.86576,0.0103625
462.90138,0.0103251
461.93700,0.0103085
460.97263,0.0103394
460.00825,0.0103076
459.04387,0.0102636
458.07949,0.0102224
457.11512,0.0101512
456.15074,0.0101788
455.18636,0.0102316
454.22198,0.0102067
453.25760,0.0100523
452.29323,0.0098839
451.32885,0.0098043
450.36447,0.0097002
449.40009,0.0096646
448.43571,0.0096911
447.47134,0.0097168
446.50696,0.0097693
445.54258,0.0098220
444.57820,0.0099749
443.61382,0.0101261
442.64945,0.0101803
441.68507,0.0102506
440.72069,0.0103310
439.75631,0.0103423
438.79194,0.0102217
437.82756,0.0100807
436.86318,0.0099764
435.89880,0.0098633
434.93442,0.0097445
433.97005,0.0095892
433.00567,0.0094626
432.04129,0.0093962
431.07691,0.0094240
430.11253,0.0095661
429.14816,0.0097097
428.18378,0.0098151
427.21940,0.0098664
426.25502,0.0098767
425.29065,0.0098983
424.32627,0.0099631
423.36189,0.0100276
422.39751,0.0100262
421.43313,0.0099996
420.46876,0.0099736
419.50438,0.0099355
418.54000,0.0098835
417.57562,0.0098733
416.61124,0.0098535
415.64687,0.0097056
414.68249,0.0095506
413.71811,0.0094732
412.75373,0.0094161
411.78935,0.0093410
410.82498,0.0092590
409.86060,0.0091983
408.89622,0.0091226
407.93184,0.0090644
406.96747,0.0090723
406.00309,0.0090974
405.03871,0.0090779
404.07433,0.0090779
403.10995,0.0090779
402.14558,0.0090779
401.18120,0.0090779
400.21682,0.0090779
399.25244,0.0090779
