3998.31069,-0.0011454
3997.34631,-0.0011454
3996.38194,-0.0011454
3995.41756,-0.0011454
3994.45318,-0.0011454
3993.48880,-0.0011454
3992.52442,-0.0011454
3991.56005,-0.0010969
3990.59567,-0.0011020
3989.63129,-0.0011390
3988.66691,-0.0011400
3987.70253,-0.0011714
3986.73816,-0.0012441
3985.77378,-0.0013160
3984.80940,-0.0013805
3983.84502,-0.0013491
3982.88065,-0.0012799
3981.91627,-0.0012473
3980.95189,-0.0012311
3979.98751,-0.0012528
3979.02313,-0.0013062
3978.05876,-0.0013847
3977.09438,-0.0014140
3976.13000,-0.0013806
3975.16562,-0.0013347
3974.20124,-0.0012665
3973.23687,-0.0012032
3972.27249,-0.0011295
3971.30811,-0.0010763
3970.34373,-0.0011162
3969.37935,-0.0012269
3968.41498,-0.0013439
3967.45060,-0.0014511
3966.48622,-0.0015461
3965.52184,-0.0015314
3964.55747,-0.0014295
3963.59309,-0.0013467
3962.62871,-0.0012882
3961.66433,-0.0012165
3960.69995,-0.0010894
3959.73558,-0.0009854
3958.77120,-0.0009829
3957.80682,-0.0010413
3956.84244,-0.0010958
3955.87806,-0.0011246
3954.91369,-0.0011663
3953.94931,-0.0012105
3952.98493,-0.0012419
3952.02055,-0.0013378
3951.05618,-0.0014907
3950.09180,-0.0015473
3949.12742,-0.0015192
3948.16304,-0.0014775
3947.19866,-0.0013598
3946.23429,-0.0012176
3945.26991,-0.0011196
3944.30553,-0.0010641
3943.34115,-0.0010130
3942.37677,-0.0009293
3941.41240,-0.0008750
3940.44802,-0.0009087
3939.48364,-0.0010264
3938.51926,-0.0011203
3937.55488,-0.0011679
3936.59051,-0.0012210
3935.62613,-0.0012323
3934.66175,-0.0012305
3933.69737,-0.0012415
3932.73300,-0.0012233
3931.76862,-0.0011529
3930.80424,-0.0011162
3929.83986,-0.0011564
3928.87548,-0.0011593
3927.91111,-0.0011529
3926.94673,-0.0011540
3925.98235,-0.0011331
3925.01797,-0.0011342
3924.05359,-0.0011187
3923.08922,-0.0010822
3922.12484,-0.0010420
3921.16046,-0.0010055
3920.19608,-0.0010023
3919.23171,-0.0010362
3918.26733,-0.0010667
3917.30295,-0.0010437
3916.33857,-0.0010088
3915.37419,-0.0009650
3914.40982,-0.0008936
3913.44544,-0.0008241
3912.48106,-0.0007453
3911.51668,-0.0006918
3910.55230,-0.0006787
3909.58793,-0.0006955
3908.62355,-0.0007767
3907.65917,-0.0008322
3906.69479,-0.0007841
3905.73041,-0.0007408
3904.76604,-0.0007377
3903.80166,-0.0007193
3902.83728,-0.0007251
3901.87290,-0.0007759
3900.90853,-0.0008366
3899.94415,-0.0009356
3898.97977,-0.0010821
3898.01539,-0.0012387
3897.05101,-0.0013411
3896.08664,-0.0012660
3895.12226,-0.0010930
3894.15788,-0.0009893
3893.19350,-0.0008944
3892.22912,-0.0008057
3891.26475,-0.0007795
3890.30037,-0.0007807
3889.33599,-0.0008014
3888.37161,-0.0008495
3887.40724,-0.0009574
3886.44286,-0.0010584
3885.47848,-0.0010069
3884.51410,-0.0008468
3883.54972,-0.0007337
3882.58535,-0.0007067
3881.62097,-0.0007472
3880.65659,-0.0008393
3879.69221,-0.0009197
3878.72783,-0.0009484
3877.76346,-0.0009495
3876.79908,-0.0010022
3875.83470,-0.0010606
3874.87032,-0.0009543
3873.90594,-0.0006994
3872.94157,-0.0004342
3871.97719,-0.0003004
3871.01281,-0.0003224
3870.04843,-0.0003700
3869.08406,-0.0004145
3868.11968,-0.0005105
3867.15530,-0.0006436
3866.19092,-0.0007845
3865.22654,-0.0009394
3864.26217,-0.0010267
3863.29779,-0.0010042
3862.33341,-0.0009501
3861.36903,-0.0009226
3860.40465,-0.0009848
3859.44028,-0.0010172
3858.47590,-0.0008972
3857.51152,-0.0007347
3856.54714,-0.0005906
3855.58276,-0.0004379
3854.61839,-0.0002861
3853.65401,-0.0002009
3852.68963,-0.0002315
3851.72525,-0.0003465
3850.76088,-0.0004923
3849.79650,-0.0006823
3848.83212,-0.0009171
3847.86774,-0.0011121
3846.90336,-0.0012336
3845.93899,-0.0012797
3844.97461,-0.0012634
3844.01023,-0.0011565
3843.04585,-0.0009232
3842.08147,-0.0007046
3841.11710,-0.0006040
3840.15272,-0.0005169
3839.18834,-0.0003651
3838.22396,-0.0002558
3837.25959,-0.0002649
3836.29521,-0.0003691
3835.33083,-0.0004933
3834.36645,-0.0005881
3833.40207,-0.0007193
3832.43770,-0.0008068
3831.47332,-0.0008185
3830.50894,-0.0009100
3829.54456,-0.0010514
3828.58018,-0.0011699
3827.61581,-0.0012824
3826.65143,-0.0013324
3825.68705,-0.0012418
3824.72267,-0.0010797
3823.75829,-0.0009155
3822.79392,-0.0007677
3821.82954,-0.0006431
3820.86516,-0.0004559
3819.90078,-0.0002761
3818.93641,-0.0001969
3817.97203,-0.0002015
3817.00765,-0.0003358
3816.04327,-0.0005123
3815.07889,-0.0006134
3814.11452,-0.0007205
3813.15014,-0.0008902
3812.18576,-0.0010213
3811.22138,-0.0010649
3810.25700,-0.0010380
3809.29263,-0.0009720
3808.32825,-0.0009318
3807.36387,-0.0008429
3806.39949,-0.0006544
3805.43512,-0.0004593
3804.47074,-0.0003328
3803.50636,-0.0003266
3802.54198,-0.0003693
3801.57760,-0.0003465
3800.61323,-0.0002936
3799.64885,-0.0003163
3798.68447,-0.0004297
3797.72009,-0.0006027
3796.75571,-0.0007645
3795.79134,-0.0008104
3794.82696,-0.0007915
3793.86258,-0.0008138
3792.89820,-0.0008812
3791.93382,-0.0009674
3790.96945,-0.0010329
3790.00507,-0.0010531
3789.04069,-0.0010560
3788.07631,-0.0010771
3787.11194,-0.0010996
3786.14756,-0.0011129
3785.18318,-0.0010846
3784.21880,-0.0009917
3783.25442,-0.0008955
3782.29005,-0.0008213
3781.32567,-0.0007794
3780.36129,-0.0007714
3779.39691,-0.0007466
3778.43253,-0.0006768
3777.46816,-0.0006247
3776.50378,-0.0006670
3775.53940,-0.0007077
3774.57502,-0.0006632
3773.61065,-0.0006286
3772.64627,-0.0006272
3771.68189,-0.0005993
3770.71751,-0.0005845
3769.75313,-0.0006426
3768.78876,-0.0007198
3767.82438,-0.0007726
3766.86000,-0.0008636
3765.89562,-0.0010053
3764.93124,-0.0011318
3763.96687,-0.0011787
3763.00249,-0.0011409
3762.03811,-0.0010929
3761.07373,-0.0009947
3760.10935,-0.0007902
3759.14498,-0.0006264
3758.18060,-0.0005549
3757.21622,-0.0004838
3756.25184,-0.0004540
3755.28747,-0.0004588
3754.32309,-0.0003820
3753.35871,-0.0002504
3752.39433,-0.0001938
3751.42995,-0.0002762
3750.46558,-0.0003548
3749.50120,-0.0002556
3748.53682,-0.0001092
3747.57244,-0.0000735
3746.60806,-0.0001291
3745.64369,-0.0002310
3744.67931,-0.0003989
3743.71493,-0.0005692
3742.75055,-0.0006465
3741.78618,-0.0006852
3740.82180,-0.0007422
3739.85742,-0.0008110
3738.89304,-0.0007689
3737.92866,-0.0005703
3736.96429,-0.0004126
3735.99991,-0.0003483
3735.03553,-0.0003500
3734.07115,-0.0004077
3733.10677,-0.0005607
3732.14240,-0.0007759
3731.17802,-0.0008835
3730.21364,-0.0008972
3729.24926,-0.0008340
3728.28488,-0.0007018
3727.32051,-0.0005745
3726.35613,-0.0004903
3725.39175,-0.0004929
3724.42737,-0.0004885
3723.46300,-0.0004700
3722.49862,-0.0005752
3721.53424,-0.0008176
3720.56986,-0.0010042
3719.60548,-0.0010436
3718.64111,-0.0010665
3717.67673,-0.0009744
3716.71235,-0.0007340
3715.74797,-0.0005306
3714.78359,-0.0004339
3713.81922,-0.0003860
3712.85484,-0.0002930
3711.89046,-0.0002657
3710.92608,-0.0003907
3709.96171,-0.0005596
3708.99733,-0.0006742
3708.03295,-0.0007751
3707.06857,-0.0008790
3706.10419,-0.0008439
3705.13982,-0.0007486
3704.17544,-0.0006975
3703.21106,-0.0006352
3702.24668,-0.0005567
3701.28230,-0.0005008
3700.31793,-0.0005318
3699.35355,-0.0005985
3698.38917,-0.0006776
3697.42479,-0.0007778
3696.46041,-0.0008603
3695.49604,-0.0009065
3694.53166,-0.0008763
3693.56728,-0.0007688
3692.60290,-0.0005654
3691.63853,-0.0003525
3690.67415,-0.0002066
3689.70977,-0.0000968
3688.74539,-0.0000711
3687.78101,-0.0001007
3686.81664,-0.0001842
3685.85226,-0.0003128
3684.88788,-0.0004579
3683.92350,-0.0006508
3682.95912,-0.0008010
3681.99475,-0.0008380
3681.03037,-0.0007933
3680.06599,-0.0007224
3679.10161,-0.0006117
3678.13724,-0.0004937
3677.17286,-0.0004385
3676.20848,-0.0003477
3675.24410,-0.0002303
3674.27972,-0.0001605
3673.31535,-0.0001784
3672.35097,-0.0002987
3671.38659,-0.0004506
3670.42221,-0.0005964
3669.45783,-0.0006891
3668.49346,-0.0007454
3667.52908,-0.0007743
3666.56470,-0.0007851
3665.60032,-0.0007795
3664.63594,-0.0006557
3663.67157,-0.0005324
3662.70719,-0.0004964
3661.74281,-0.0004565
3660.77843,-0.0004401
3659.81406,-0.0005093
3658.84968,-0.0006462
3657.88530,-0.0007512
3656.92092,-0.0008027
3655.95654,-0.0008027
3654.99217,-0.0007647
3654.02779,-0.0007350
3653.06341,-0.0006801
3652.09903,-0.0006222
3651.13465,-0.0005284
3650.17028,-0.0003877
3649.20590,-0.0003442
3648.24152,-0.0004185
3647.27714,-0.0005243
3646.31276,-0.0006267
3645.34839,-0.0007424
3644.38401,-0.0008424
3643.41963,-0.0008825
3642.45525,-0.0008565
3641.49088,-0.0007762
3640.52650,-0.0007193
3639.56212,-0.0007279
3638.59774,-0.0007321
3637.63336,-0.0006821
3636.66899,-0.0006430
3635.70461,-0.0006834
3634.74023,-0.0007907
3633.77585,-0.0008447
3632.81147,-0.0007351
3631.84710,-0.0005344
3630.88272,-0.0003100
3629.91834,-0.0001456
3628.95396,-0.0001377
3627.98959,-0.0001664
3627.02521,-0.0001364
3626.06083,-0.0001476
3625.09645,-0.0002726
3624.13207,-0.0004369
3623.16770,-0.0005435
3622.20332,-0.0005267
3621.23894,-0.0004278
3620.27456,-0.0003758
3619.31018,-0.0003566
3618.34581,-0.0003311
3617.38143,-0.0003130
3616.41705,-0.0003104
3615.45267,-0.0003647
3614.48829,-0.0004597
3613.52392,-0.0005128
3612.55954,-0.0004973
3611.59516,-0.0004895
3610.63078,-0.0005033
3609.66641,-0.0005440
3608.70203,-0.0006043
3607.73765,-0.0005915
3606.77327,-0.0005268
3605.80889,-0.0004533
3604.84452,-0.0004218
3603.88014,-0.0004432
3602.91576,-0.0004561
3601.95138,-0.0004894
3600.98700,-0.0005443
3600.02263,-0.0006355
3599.05825,-0.0007271
3598.09387,-0.0007375
3597.12949,-0.0006689
3596.16512,-0.0005494
3595.20074,-0.0004349
3594.23636,-0.0002892
3593.27198,-0.0001508
3592.30760,-0.0000774
3591.34323,-0.0000217
3590.37885,-0.0000405
3589.41447,-0.0000990
3588.45009,-0.0001570
3587.48571,-0.0002562
3586.52134,-0.0003761
3585.55696,-0.0005193
3584.59258,-0.0006686
3583.62820,-0.0007808
3582.66382,-0.0007999
3581.69945,-0.0007386
3580.73507,-0.0006501
3579.77069,-0.0005501
3578.80631,-0.0004973
3577.84194,-0.0004937
3576.87756,-0.0005120
3575.91318,-0.0005744
3574.94880,-0.0006824
3573.98442,-0.0007691
3573.02005,-0.0007923
3572.05567,-0.0007861
3571.09129,-0.0007112
3570.12691,-0.0005668
3569.16253,-0.0004164
3568.19816,-0.0002815
3567.23378,-0.0002164
3566.26940,-0.0002290
3565.30502,-0.0002810
3564.34065,-0.0003666
3563.37627,-0.0004834
3562.41189,-0.0006051
3561.44751,-0.0007117
3560.48313,-0.0007988
3559.51876,-0.0008196
3558.55438,-0.0007822
3557.59000,-0.0007158
3556.62562,-0.0006219
3555.66124,-0.0005592
3554.69687,-0.0005256
3553.73249,-0.0004841
3552.76811,-0.0004393
3551.80373,-0.0004015
3550.83935,-0.0003942
3549.87498,-0.0003814
3548.91060,-0.0003514
3547.94622,-0.0003138
3546.98184,-0.0002282
3546.01747,-0.0001548
3545.05309,-0.0001549
3544.08871,-0.0002070
3543.12433,-0.0002784
3542.15995,-0.0003051
3541.19558,-0.0002890
3540.23120,-0.0002842
3539.26682,-0.0003025
3538.30244,-0.0003463
3537.33806,-0.0004308
3536.37369,-0.0005086
3535.40931,-0.0005450
3534.44493,-0.0006122
3533.48055,-0.0006754
3532.51618,-0.0007018
3531.55180,-0.0007290
3530.58742,-0.0006796
3529.62304,-0.0005707
3528.65866,-0.0004633
3527.69429,-0.0003764
3526.72991,-0.0003818
3525.76553,-0.0004466
3524.80115,-0.0004855
3523.83677,-0.0004794
3522.87240,-0.0004373
3521.90802,-0.0003745
3520.94364,-0.0003239
3519.97926,-0.0003028
3519.01488,-0.0003141
3518.05051,-0.0003629
3517.08613,-0.0003713
3516.12175,-0.0003445
3515.15737,-0.0003748
3514.19300,-0.0003921
3513.22862,-0.0003315
3512.26424,-0.0002744
3511.29986,-0.0002768
3510.33548,-0.0002966
3509.37111,-0.0003120
3508.40673,-0.0003570
3507.44235,-0.0004473
3506.47797,-0.0005390
3505.51359,-0.0005341
3504.54922,-0.0004596
3503.58484,-0.0004264
3502.62046,-0.0003973
3501.65608,-0.0003429
3500.69171,-0.0003349
3499.72733,-0.0003477
3498.76295,-0.0003031
3497.79857,-0.0002555
3496.83419,-0.0002589
3495.86982,-0.0002671
3494.90544,-0.0002885
3493.94106,-0.0003316
3492.97668,-0.0003961
3492.01230,-0.0005063
3491.04793,-0.0005979
3490.08355,-0.0006438
3489.11917,-0.0006594
3488.15479,-0.0006217
3487.19041,-0.0005651
3486.22604,-0.0005511
3485.26166,-0.0005826
3484.29728,-0.0005963
3483.33290,-0.0005879
3482.36853,-0.0006001
3481.40415,-0.0006399
3480.43977,-0.0006845
3479.47539,-0.0006497
3478.51101,-0.0005701
3477.54664,-0.0005286
3476.58226,-0.0004735
3475.61788,-0.0003991
3474.65350,-0.0003409
3473.68912,-0.0003133
3472.72475,-0.0003274
3471.76037,-0.0003296
3470.79599,-0.0003045
3469.83161,-0.0003405
3468.86724,-0.0003961
3467.90286,-0.0003503
3466.93848,-0.0002792
3465.97410,-0.0002557
3465.00972,-0.0002187
3464.04535,-0.0001522
3463.08097,-0.0001126
3462.11659,-0.0001311
3461.15221,-0.0001713
3460.18783,-0.0001927
3459.22346,-0.0002090
3458.25908,-0.0002546
3457.29470,-0.0002580
3456.33032,-0.0001819
3455.36594,-0.0001110
3454.40157,-0.0000799
3453.43719,-0.0000956
3452.47281,-0.0000961
3451.50843,-0.0000471
3450.54406,-0.0000126
3449.57968,0.0000142
3448.61530,0.0000300
3447.65092,0.0000260
3446.68654,0.0000294
3445.72217,0.0000235
3444.75779,-0.0000079
3443.79341,-0.0000170
3442.82903,0.0000193
3441.86465,0.0000451
3440.90028,0.0000712
3439.93590,0.0001038
3438.97152,0.0000929
3438.00714,0.0000826
3437.04276,0.0000907
3436.07839,0.0000610
3435.11401,0.0000183
3434.14963,-0.0000321
3433.18525,-0.0000839
3432.22088,-0.0000478
3431.25650,0.0000193
3430.29212,0.0000242
3429.32774,-0.0000078
3428.36336,-0.0000503
3427.39899,-0.0000820
3426.43461,-0.0001094
3425.47023,-0.0001131
3424.50585,-0.0000917
3423.54147,-0.0000914
3422.57710,-0.0001261
3421.61272,-0.0001738
3420.64834,-0.0001883
3419.68396,-0.0002105
3418.71959,-0.0002480
3417.75521,-0.0002492
3416.79083,-0.0002180
3415.82645,-0.0001719
3414.86207,-0.0001733
3413.89770,-0.0001853
3412.93332,-0.0001450
3411.96894,-0.0001094
3411.00456,-0.0001085
3410.04018,-0.0001441
3409.07581,-0.0001888
3408.11143,-0.0001918
3407.14705,-0.0001355
3406.18267,-0.0000510
3405.21829,0.0000175
3404.25392,0.0000592
3403.28954,0.0000492
3402.32516,0.0000004
3401.36078,-0.0000007
3400.39641,0.0000328
3399.43203,0.0000157
3398.46765,-0.0000246
3397.50327,-0.0000408
3396.53889,-0.0000170
3395.57452,0.0000453
3394.61014,0.0001048
3393.64576,0.0001706
3392.68138,0.0002178
3391.71700,0.0001950
3390.75263,0.0001376
3389.78825,0.0000996
3388.82387,0.0000696
3387.85949,0.0000163
3386.89512,0.0000034
3385.93074,0.0000323
3384.96636,0.0000633
3384.00198,0.0001405
3383.03760,0.0002508
3382.07323,0.0003615
3381.10885,0.0004287
3380.14447,0.0004623
3379.18009,0.0005152
3378.21571,0.0005380
3377.25134,0.0005127
3376.28696,0.0004780
3375.32258,0.0004734
3374.35820,0.0004659
3373.39382,0.0004194
3372.42945,0.0003844
3371.46507,0.0003370
3370.50069,0.0002615
3369.53631,0.0001892
3368.57194,0.0001459
3367.60756,0.0001304
3366.64318,0.0001115
3365.67880,0.0001362
3364.71442,0.0002183
3363.75005,0.0003291
3362.78567,0.0004105
3361.82129,0.0004333
3360.85691,0.0004711
3359.89253,0.0004980
3358.92816,0.0004675
3357.96378,0.0003921
3356.99940,0.0003375
3356.03502,0.0003408
3355.07065,0.0003473
3354.10627,0.0003737
3353.14189,0.0003918
3352.17751,0.0003843
3351.21313,0.0003909
3350.24876,0.0004175
3349.28438,0.0004450
3348.32000,0.0003857
3347.35562,0.0002801
3346.39124,0.0001950
3345.42687,0.0001539
3344.46249,0.0001974
3343.49811,0.0002490
3342.53373,0.0002824
3341.56935,0.0003537
3340.60498,0.0005030
3339.64060,0.0006878
3338.67622,0.0008275
3337.71184,0.0008707
3336.74747,0.0008174
3335.78309,0.0007799
3334.81871,0.0007410
3333.85433,0.0006645
3332.88995,0.0006177
3331.92558,0.0005774
3330.96120,0.0005491
3329.99682,0.0005797
3329.03244,0.0006558
3328.06806,0.0007041
3327.10369,0.0007194
3326.13931,0.0007382
3325.17493,0.0007528
3324.21055,0.0007569
3323.24618,0.0007233
3322.28180,0.0007000
3321.31742,0.0007091
3320.35304,0.0007176
3319.38866,0.0007426
3318.42429,0.0007726
3317.45991,0.0007865
3316.49553,0.0007552
3315.53115,0.0007298
3314.56677,0.0007587
3313.60240,0.0007801
3312.63802,0.0007667
3311.67364,0.0007394
3310.70926,0.0007382
3309.74488,0.0007583
3308.78051,0.0007967
3307.81613,0.0008697
3306.85175,0.0009431
3305.88737,0.0009863
3304.92300,0.0010151
3303.95862,0.0010928
3302.99424,0.0011822
3302.02986,0.0012061
3301.06548,0.0012067
3300.10111,0.0012125
3299.13673,0.0012126
3298.17235,0.0012153
3297.20797,0.0012266
3296.24359,0.0012479
3295.27922,0.0012915
3294.31484,0.0013595
3293.35046,0.0014443
3292.38608,0.0015409
3291.42171,0.0015986
3290.45733,0.0016086
3289.49295,0.0016219
3288.52857,0.0016083
3287.56419,0.0015422
3286.59982,0.0014553
3285.63544,0.0013787
3284.67106,0.0013636
3283.70668,0.0014062
3282.74230,0.0014797
3281.77793,0.0015890
3280.81355,0.0017022
3279.84917,0.0017938
3278.88479,0.0018547
3277.92041,0.0018606
3276.95604,0.0018061
3275.99166,0.0017509
3275.02728,0.0017266
3274.06290,0.0017139
3273.09853,0.0017225
3272.13415,0.0017178
3271.16977,0.0017378
3270.20539,0.0018355
3269.24101,0.0019303
3268.27664,0.0019975
3267.31226,0.0020652
3266.34788,0.0021332
3265.38350,0.0021842
3264.41912,0.0022468
3263.45475,0.0023154
3262.49037,0.0022902
3261.52599,0.0021818
3260.56161,0.0020669
3259.59724,0.0019898
3258.63286,0.0019451
3257.66848,0.0019048
3256.70410,0.0019154
3255.73972,0.0020114
3254.77535,0.0021309
3253.81097,0.0022280
3252.84659,0.0023449
3251.88221,0.0024442
3250.91783,0.0024712
3249.95346,0.0024783
3248.98908,0.0024846
3248.02470,0.0024773
3247.06032,0.0024685
3246.09594,0.0024777
3245.13157,0.0024965
3244.16719,0.0025307
3243.20281,0.0025433
3242.23843,0.0025022
3241.27406,0.0024772
3240.30968,0.0024727
3239.34530,0.0025100
3238.38092,0.0025942
3237.41654,0.0026665
3236.45217,0.0027291
3235.48779,0.0027796
3234.52341,0.0028314
3233.55903,0.0028712
3232.59465,0.0028983
3231.63028,0.0029109
3230.66590,0.0028941
3229.70152,0.0029000
3228.73714,0.0029276
3227.77276,0.0029733
3226.80839,0.0030043
3225.84401,0.0030065
3224.87963,0.0030483
3223.91525,0.0031141
3222.95088,0.0031648
3221.98650,0.0031946
3221.02212,0.0032164
3220.05774,0.0032178
3219.09336,0.0032019
3218.12899,0.0031990
3217.16461,0.0031903
3216.20023,0.0031658
3215.23585,0.0031091
3214.27147,0.0030624
3213.30710,0.0030715
3212.34272,0.0030835
3211.37834,0.0030945
3210.41396,0.0031314
3209.44959,0.0031639
3208.48521,0.0031707
3207.52083,0.0032036
3206.55645,0.0032760
3205.59207,0.0033374
3204.62770,0.0033687
3203.66332,0.0033556
3202.69894,0.0033055
3201.73456,0.0032527
3200.77018,0.0032404
3199.80581,0.0032637
3198.84143,0.0032561
3197.87705,0.0032313
3196.91267,0.0032292
3195.94829,0.0032241
3194.98392,0.0032305
3194.01954,0.0032760
3193.05516,0.0033296
3192.09078,0.0033849
3191.12641,0.0034544
3190.16203,0.0035260
3189.19765,0.0036012
3188.23327,0.0036663
3187.26889,0.0036779
3186.30452,0.0036711
3185.34014,0.0036844
3184.37576,0.0036766
3183.41138,0.0037007
3182.44700,0.0037725
3181.48263,0.0038247
3180.51825,0.0038964
3179.55387,0.0039716
3178.58949,0.0040014
3177.62512,0.0040091
3176.66074,0.0039999
3175.69636,0.0039585
3174.73198,0.0039094
3173.76760,0.0038784
3172.80323,0.0038302
3171.83885,0.0037910
3170.87447,0.0037634
3169.91009,0.0037271
3168.94571,0.0037327
3167.98134,0.0037488
3167.01696,0.0037696
3166.05258,0.0038085
3165.08820,0.0038694
3164.12382,0.0039878
3163.15945,0.0041003
3162.19507,0.0041747
3161.23069,0.0042107
3160.26631,0.0041943
3159.30194,0.0041698
3158.33756,0.0041503
3157.37318,0.0041380
3156.40880,0.0041419
3155.44442,0.0041487
3154.48005,0.0041607
3153.51567,0.0042035
3152.55129,0.0042726
3151.58691,0.0043157
3150.62253,0.0043136
3149.65816,0.0042666
3148.69378,0.0041910
3147.72940,0.0041452
3146.76502,0.0041482
3145.80065,0.0042126
3144.83627,0.0043339
3143.87189,0.0044280
3142.90751,0.0044908
3141.94313,0.0045551
3140.97876,0.0045873
3140.01438,0.0045931
3139.05000,0.0045732
3138.08562,0.0045379
3137.12124,0.0045050
3136.15687,0.0044526
3135.19249,0.0044202
3134.22811,0.0044414
3133.26373,0.0044691
3132.29935,0.0044571
3131.33498,0.0044396
3130.37060,0.0044394
3129.40622,0.0044191
3128.44184,0.0044074
3127.47747,0.0044205
3126.51309,0.0044561
3125.54871,0.0045070
3124.58433,0.0045202
3123.61995,0.0045386
3122.65558,0.0045826
3121.69120,0.0045769
3120.72682,0.0045164
3119.76244,0.0044608
3118.79806,0.0044364
3117.83369,0.0044111
3116.86931,0.0043891
3115.90493,0.0043991
3114.94055,0.0044461
3113.97618,0.0045019
3113.01180,0.0045285
3112.04742,0.0045553
3111.08304,0.0045685
3110.11866,0.0045196
3109.15429,0.0044315
3108.18991,0.0043446
3107.22553,0.0042995
3106.26115,0.0042959
3105.29677,0.0043024
3104.33240,0.0043085
3103.36802,0.0043198
3102.40364,0.0043225
3101.43926,0.0043035
3100.47488,0.0042864
3099.51051,0.0042889
3098.54613,0.0043254
3097.58175,0.0043665
3096.61737,0.0043822
3095.65300,0.0043933
3094.68862,0.0043784
3093.72424,0.0043433
3092.75986,0.0043007
3091.79548,0.0042350
3090.83111,0.0041649
3089.86673,0.0040999
3088.90235,0.0040659
3087.93797,0.0040978
3086.97359,0.0041855
3086.00922,0.0042456
3085.04484,0.0042411
3084.08046,0.0042206
3083.11608,0.0041850
3082.15171,0.0041647
3081.18733,0.0041560
3080.22295,0.0041372
3079.25857,0.0041505
3078.29419,0.0041374
3077.32982,0.0040989
3076.36544,0.0040858
3075.40106,0.0040589
3074.43668,0.0040297
3073.47230,0.0040424
3072.50793,0.0041052
3071.54355,0.0041492
3070.57917,0.0041504
3069.61479,0.0041740
3068.65041,0.0042323
3067.68604,0.0042943
3066.72166,0.0043032
3065.75728,0.0042726
3064.79290,0.0042388
3063.82853,0.0042084
3062.86415,0.0042107
3061.89977,0.0041959
3060.93539,0.0041373
3059.97101,0.0040620
3059.00664,0.0040172
3058.04226,0.0040457
3057.07788,0.0040951
3056.11350,0.0041453
3055.14912,0.0041849
3054.18475,0.0042040
3053.22037,0.0042487
3052.25599,0.0043096
3051.29161,0.0043298
3050.32724,0.0042972
3049.36286,0.0042678
3048.39848,0.0042634
3047.43410,0.0042742
3046.46972,0.0042823
3045.50535,0.0042680
3044.54097,0.0042616
3043.57659,0.0042554
3042.61221,0.0042486
3041.64783,0.0042586
3040.68346,0.0042739
3039.71908,0.0043017
3038.75470,0.0043395
3037.79032,0.0043785
3036.82594,0.0043986
3035.86157,0.0044061
3034.89719,0.0044518
3033.93281,0.0045275
3032.96843,0.0045653
3032.00406,0.0045668
3031.03968,0.0045735
3030.07530,0.0045662
3029.11092,0.0045431
3028.14654,0.0045084
3027.18217,0.0044717
3026.21779,0.0044407
3025.25341,0.0044035
3024.28903,0.0044029
3023.32465,0.0044277
3022.36028,0.0044266
3021.39590,0.0043965
3020.43152,0.0043822
3019.46714,0.0043993
3018.50276,0.0043787
3017.53839,0.0043248
3016.57401,0.0042748
3015.60963,0.0042445
3014.64525,0.0042478
3013.68088,0.0042909
3012.71650,0.0043625
3011.75212,0.0043867
3010.78774,0.0043797
3009.82336,0.0043728
3008.85899,0.0043476
3007.89461,0.0043130
3006.93023,0.0042524
3005.96585,0.0042024
3005.00147,0.0041661
3004.03710,0.0041375
3003.07272,0.0041624
3002.10834,0.0041948
3001.14396,0.0041812
3000.17959,0.0041389
2999.21521,0.0041015
2998.25083,0.0040699
2997.28645,0.0040233
2996.32207,0.0039486
2995.35770,0.0038778
2994.39332,0.0038453
2993.42894,0.0038223
2992.46456,0.0038344
2991.50018,0.0038838
2990.53581,0.0039050
2989.57143,0.0039124
2988.60705,0.0039406
2987.64267,0.0039755
2986.67829,0.0039777
2985.71392,0.0039439
2984.74954,0.0038861
2983.78516,0.0038141
2982.82078,0.0037573
2981.85641,0.0037126
2980.89203,0.0036871
2979.92765,0.0036800
2978.96327,0.0036733
2977.99889,0.0036742
2977.03452,0.0036806
2976.07014,0.0036910
2975.10576,0.0037008
2974.14138,0.0037293
2973.17700,0.0037664
2972.21263,0.0037797
2971.24825,0.0038063
2970.28387,0.0038349
2969.31949,0.0038281
2968.35512,0.0038053
2967.39074,0.0037877
2966.42636,0.0037770
2965.46198,0.0037639
2964.49760,0.0037689
2963.53323,0.0037962
2962.56885,0.0038136
2961.60447,0.0038161
2960.64009,0.0038223
2959.67571,0.0038376
2958.71134,0.0038360
2957.74696,0.0038187
2956.78258,0.0038152
2955.81820,0.0038338
2954.85382,0.0038533
2953.88945,0.0038562
2952.92507,0.0038587
2951.96069,0.0038540
2950.99631,0.0038229
2950.03194,0.0037768
2949.06756,0.0037420
2948.10318,0.0037142
2947.13880,0.0036810
2946.17442,0.0036690
2945.21005,0.0036796
2944.24567,0.0037094
2943.28129,0.0037669
2942.31691,0.0038484
2941.35253,0.0039497
2940.38816,0.0040594
2939.42378,0.0041704
2938.45940,0.0042716
2937.49502,0.0043787
2936.53065,0.0044817
2935.56627,0.0045589
2934.60189,0.0046377
2933.63751,0.0047111
2932.67313,0.0048016
2931.70876,0.0049351
2930.74438,0.0050746
2929.78000,0.0051933
2928.81562,0.0052836
2927.85124,0.0053424
2926.88687,0.0053665
2925.92249,0.0053868
2924.95811,0.0054097
2923.99373,0.0054194
2923.02935,0.0053983
2922.06498,0.0053262
2921.10060,0.0052575
2920.13622,0.0051785
2919.17184,0.0050347
2918.20747,0.0048581
2917.24309,0.0046715
2916.27871,0.0044821
2915.31433,0.0042882
2914.34995,0.0041105
2913.38558,0.0039837
2912.42120,0.0038933
2911.45682,0.0038137
2910.49244,0.0037525
2909.52806,0.0036948
2908.56369,0.0035966
2907.59931,0.0034981
2906.63493,0.0034406
2905.67055,0.0033944
2904.70618,0.0033459
2903.74180,0.0032850
2902.77742,0.0032095
2901.81304,0.0031451
2900.84866,0.0031098
2899.88429,0.0031047
2898.91991,0.0031089
2897.95553,0.0030843
2896.99115,0.0030426
2896.02677,0.0030170
2895.06240,0.0029737
2894.09802,0.0028858
2893.13364,0.0027895
2892.16926,0.0027030
2891.20488,0.0026133
2890.24051,0.0025480
2889.27613,0.0025260
2888.31175,0.0025270
2887.34737,0.0025332
2886.38300,0.0025264
2885.41862,0.0025061
2884.45424,0.0024664
2883.48986,0.0024051
2882.52548,0.0023325
2881.56111,0.0022825
2880.59673,0.0022833
2879.63235,0.0023011
2878.66797,0.0023476
2877.70359,0.0024023
2876.73922,0.0024204
2875.77484,0.0024349
2874.81046,0.0024421
2873.84608,0.0024371
2872.88171,0.0024173
2871.91733,0.0023837
2870.95295,0.0023632
2869.98857,0.0023761
2869.02419,0.0024148
2868.05982,0.0024324
2867.09544,0.0024520
2866.13106,0.0024975
2865.16668,0.0025669
2864.20230,0.0026573
2863.23793,0.0027284
2862.27355,0.0027973
2861.30917,0.0028639
2860.34479,0.0029222
2859.38041,0.0030171
2858.41604,0.0031432
2857.45166,0.0032423
2856.48728,0.0032786
2855.52290,0.0033021
2854.55853,0.0033510
2853.59415,0.0033778
2852.62977,0.0033265
2851.66539,0.0032190
2850.70101,0.0031076
2849.73664,0.0029794
2848.77226,0.0028392
2847.80788,0.0027146
2846.84350,0.0025938
2845.87912,0.0024720
2844.91475,0.0023587
2843.95037,0.0022592
2842.98599,0.0021721
2842.02161,0.0020848
2841.05724,0.0019930
2840.09286,0.0019179
2839.12848,0.0018669
2838.16410,0.0018295
2837.19972,0.0018026
2836.23535,0.0017857
2835.27097,0.0017781
2834.30659,0.0017876
2833.34221,0.0018053
2832.37783,0.0018058
2831.41346,0.0018053
2830.44908,0.0018056
2829.48470,0.0017904
2828.52032,0.0017656
2827.55594,0.0017229
2826.59157,0.0016689
2825.62719,0.0016028
2824.66281,0.0015427
2823.69843,0.0015121
2822.73406,0.0014834
2821.76968,0.0014547
2820.80530,0.0014354
2819.84092,0.0014318
2818.87654,0.0014492
2817.91217,0.0014775
2816.94779,0.0014991
2815.98341,0.0014997
2815.01903,0.0014813
2814.05465,0.0014496
2813.09028,0.0014424
2812.12590,0.0014506
2811.16152,0.0014229
2810.19714,0.0013922
2809.23276,0.0013903
2808.26839,0.0013998
2807.30401,0.0014062
2806.33963,0.0013958
2805.37525,0.0013596
2804.41088,0.0013134
2803.44650,0.0012709
2802.48212,0.0012460
2801.51774,0.0012417
2800.55336,0.0012166
2799.58899,0.0011965
2798.62461,0.0012283
2797.66023,0.0012701
2796.69585,0.0012977
2795.73147,0.0013276
2794.76710,0.0013567
2793.80272,0.0013659
2792.83834,0.0013596
2791.87396,0.0013554
2790.90959,0.0013410
2789.94521,0.0012959
2788.98083,0.0012363
2788.01645,0.0011991
2787.05207,0.0011706
2786.08770,0.0011181
2785.12332,0.0010716
2784.15894,0.0010674
2783.19456,0.0010720
2782.23018,0.0010698
2781.26581,0.0010839
2780.30143,0.0010911
2779.33705,0.0010712
2778.37267,0.0010407
2777.40829,0.0010242
2776.44392,0.0010223
2775.47954,0.0010092
2774.51516,0.0009831
2773.55078,0.0009738
2772.58641,0.0009930
2771.62203,0.0010091
2770.65765,0.0010316
2769.69327,0.0010671
2768.72889,0.0010667
2767.76452,0.0010354
2766.80014,0.0009954
2765.83576,0.0009614
2764.87138,0.0009496
2763.90700,0.0009439
2762.94263,0.0009510
2761.97825,0.0009695
2761.01387,0.0009637
2760.04949,0.0009395
2759.08512,0.0009222
2758.12074,0.0009096
2757.15636,0.0008945
2756.19198,0.0008711
2755.22760,0.0008500
2754.26323,0.0008465
2753.29885,0.0008560
2752.33447,0.0008755
2751.37009,0.0008936
2750.40571,0.0008942
2749.44134,0.0008726
2748.47696,0.0008512
2747.51258,0.0008502
2746.54820,0.0008504
2745.58382,0.0008395
2744.61945,0.0008240
2743.65507,0.0008159
2742.69069,0.0008007
2741.72631,0.0007714
2740.76194,0.0007566
2739.79756,0.0007561
2738.83318,0.0007683
2737.86880,0.0007849
2736.90442,0.0007924
2735.94005,0.0007946
2734.97567,0.0007873
2734.01129,0.0007862
2733.04691,0.0007895
2732.08253,0.0007689
2731.11816,0.0007213
2730.15378,0.0006778
2729.18940,0.0006655
2728.22502,0.0006727
2727.26065,0.0006907
2726.29627,0.0007053
2725.33189,0.0007048
2724.36751,0.0007071
2723.40313,0.0007177
2722.43876,0.0007293
2721.47438,0.0007296
2720.51000,0.0007091
2719.54562,0.0006764
2718.58124,0.0006571
2717.61687,0.0006588
2716.65249,0.0006595
2715.68811,0.0006614
2714.72373,0.0006631
2713.75935,0.0006581
2712.79498,0.0006703
2711.83060,0.0006930
2710.86622,0.0007112
2709.90184,0.0007313
2708.93747,0.0007443
2707.97309,0.0007393
2707.00871,0.0007148
2706.04433,0.0006852
2705.07995,0.0006545
2704.11558,0.0006238
2703.15120,0.0005999
2702.18682,0.0005840
2701.22244,0.0005866
2700.25806,0.0005861
2699.29369,0.0005777
2698.32931,0.0005871
2697.36493,0.0006072
2696.40055,0.0006271
2695.43618,0.0006313
2694.47180,0.0006320
2693.50742,0.0006416
2692.54304,0.0006519
2691.57866,0.0006625
2690.61429,0.0006518
2689.64991,0.0006242
2688.68553,0.0005958
2687.72115,0.0005751
2686.75677,0.0005611
2685.79240,0.0005394
2684.82802,0.0005275
2683.86364,0.0005249
2682.89926,0.0005235
2681.93488,0.0005270
2680.97051,0.0005365
2680.00613,0.0005546
2679.04175,0.0005694
2678.07737,0.0005912
2677.11300,0.0006328
2676.14862,0.0006814
2675.18424,0.0007110
2674.21986,0.0007153
2673.25548,0.0007096
2672.29111,0.0006812
2671.32673,0.0006346
2670.36235,0.0005851
2669.39797,0.0005267
2668.43359,0.0004765
2667.46922,0.0004431
2666.50484,0.0004220
2665.54046,0.0004330
2664.57608,0.0004758
2663.61171,0.0005248
2662.64733,0.0005685
2661.68295,0.0005920
2660.71857,0.0005885
2659.75419,0.0005799
2658.78982,0.0005792
2657.82544,0.0005677
2656.86106,0.0005450
2655.89668,0.0005265
2654.93230,0.0005112
2653.96793,0.0005183
2653.00355,0.0005439
2652.03917,0.0005672
2651.07479,0.0005865
2650.11041,0.0005834
2649.14604,0.0005479
2648.18166,0.0004977
2647.21728,0.0004736
2646.25290,0.0004667
2645.28853,0.0004526
2644.32415,0.0004647
2643.35977,0.0004990
2642.39539,0.0005329
2641.43101,0.0005506
2640.46664,0.0005547
2639.50226,0.0005636
2638.53788,0.0005617
2637.57350,0.0005449
2636.60912,0.0005246
2635.64475,0.0005230
2634.68037,0.0005244
2633.71599,0.0005069
2632.75161,0.0005184
2631.78724,0.0005674
2630.82286,0.0006052
2629.85848,0.0006026
2628.89410,0.0005800
2627.92972,0.0005654
2626.96535,0.0005659
2626.00097,0.0005726
2625.03659,0.0005614
2624.07221,0.0005573
2623.10783,0.0005635
2622.14346,0.0005639
2621.17908,0.0005924
2620.21470,0.0006192
2619.25032,0.0005964
2618.28594,0.0005329
2617.32157,0.0004631
2616.35719,0.0004291
2615.39281,0.0004217
2614.42843,0.0004186
2613.46406,0.0004389
2612.49968,0.0004791
2611.53530,0.0005085
2610.57092,0.0005254
2609.60654,0.0005269
2608.64217,0.0004799
2607.67779,0.0004047
2606.71341,0.0003614
2605.74903,0.0003463
2604.78465,0.0003442
2603.82028,0.0003466
2602.85590,0.0003254
2601.89152,0.0002901
2600.92714,0.0002650
2599.96276,0.0002560
2598.99839,0.0002596
2598.03401,0.0002751
2597.06963,0.0002984
2596.10525,0.0003228
2595.14088,0.0003715
2594.17650,0.0004361
2593.21212,0.0004768
2592.24774,0.0004831
2591.28336,0.0004493
2590.31899,0.0003921
2589.35461,0.0003538
2588.39023,0.0003442
2587.42585,0.0003432
2586.46147,0.0003664
2585.49710,0.0004362
2584.53272,0.0005234
2583.56834,0.0006036
2582.60396,0.0006502
2581.63959,0.0006506
2580.67521,0.0006415
2579.71083,0.0005911
2578.74645,0.0004854
2577.78207,0.0004153
2576.81770,0.0003805
2575.85332,0.0003483
2574.88894,0.0003483
2573.92456,0.0003797
2572.96018,0.0004278
2571.99581,0.0004400
2571.03143,0.0004117
2570.06705,0.0004392
2569.10267,0.0004774
2568.13829,0.0004147
2567.17392,0.0003462
2566.20954,0.0003492
2565.24516,0.0003506
2564.28078,0.0003575
2563.31641,0.0003714
2562.35203,0.0003825
2561.38765,0.0004200
2560.42327,0.0004416
2559.45889,0.0004969
2558.49452,0.0006214
2557.53014,0.0006826
2556.56576,0.0006668
2555.60138,0.0006894
2554.63700,0.0007304
2553.67263,0.0007084
2552.70825,0.0006423
2551.74387,0.0005627
2550.77949,0.0004999
2549.81512,0.0004499
2548.85074,0.0004018
2547.88636,0.0003988
2546.92198,0.0003841
2545.95760,0.0003039
2544.99323,0.0002136
2544.02885,0.0001804
2543.06447,0.0001986
2542.10009,0.0001784
2541.13571,0.0001031
2540.17134,0.0000681
2539.20696,0.0001304
2538.24258,0.0002161
2537.27820,0.0002840
2536.31382,0.0003263
2535.34945,0.0003316
2534.38507,0.0003722
2533.42069,0.0004249
2532.45631,0.0004682
2531.49194,0.0004981
2530.52756,0.0004326
2529.56318,0.0003235
2528.59880,0.0002839
2527.63442,0.0003130
2526.67005,0.0003162
2525.70567,0.0002839
2524.74129,0.0002605
2523.77691,0.0002699
2522.81253,0.0003354
2521.84816,0.0003913
2520.88378,0.0004351
2519.91940,0.0004711
2518.95502,0.0004888
2517.99065,0.0005235
2517.02627,0.0005470
2516.06189,0.0005962
2515.09751,0.0006459
2514.13313,0.0006129
2513.16876,0.0005328
2512.20438,0.0004457
2511.24000,0.0003784
2510.27562,0.0003315
2509.31124,0.0002913
2508.34687,0.0002736
2507.38249,0.0002650
2506.41811,0.0002122
2505.45373,0.0001800
2504.48935,0.0002489
2503.52498,0.0002883
2502.56060,0.0002351
2501.59622,0.0001935
2500.63184,0.0001949
2499.66747,0.0002042
2498.70309,0.0002232
2497.73871,0.0002643
2496.77433,0.0003075
2495.80995,0.0003210
2494.84558,0.0003102
2493.88120,0.0003499
2492.91682,0.0004261
2491.95244,0.0004536
2490.98806,0.0004840
2490.02369,0.0005658
2489.05931,0.0006217
2488.09493,0.0006147
2487.13055,0.0005655
2486.16618,0.0004671
2485.20180,0.0003715
2484.23742,0.0003076
2483.27304,0.0002483
2482.30866,0.0002372
2481.34429,0.0002736
2480.37991,0.0003325
2479.41553,0.0004201
2478.45115,0.0004748
2477.48677,0.0004513
2476.52240,0.0003980
2475.55802,0.0003223
2474.59364,0.0002318
2473.62926,0.0002187
2472.66488,0.0002505
2471.70051,0.0002785
2470.73613,0.0003528
2469.77175,0.0004280
2468.80737,0.0004610
2467.84300,0.0004830
2466.87862,0.0004963
2465.91424,0.0004948
2464.94986,0.0004878
2463.98548,0.0004496
2463.02111,0.0003933
2462.05673,0.0003616
2461.09235,0.0003413
2460.12797,0.0003359
2459.16359,0.0003303
2458.19922,0.0003318
2457.23484,0.0003647
2456.27046,0.0004166
2455.30608,0.0004788
2454.34171,0.0004720
2453.37733,0.0003891
2452.41295,0.0003259
2451.44857,0.0002964
2450.48419,0.0002498
2449.51982,0.0001935
2448.55544,0.0001763
2447.59106,0.0001736
2446.62668,0.0002174
2445.66230,0.0003234
2444.69793,0.0004056
2443.73355,0.0004575
2442.76917,0.0004423
2441.80479,0.0003709
2440.84041,0.0003495
2439.87604,0.0003387
2438.91166,0.0002857
2437.94728,0.0002265
2436.98290,0.0001865
2436.01853,0.0001469
2435.05415,0.0001028
2434.08977,0.0001050
2433.12539,0.0001165
2432.16101,0.0001157
2431.19664,0.0001600
2430.23226,0.0002314
2429.26788,0.0003430
2428.30350,0.0005020
2427.33912,0.0006762
2426.37475,0.0008457
2425.41037,0.0009345
2424.44599,0.0009046
2423.48161,0.0008334
2422.51724,0.0007859
2421.55286,0.0006871
2420.58848,0.0005581
2419.62410,0.0004851
2418.65972,0.0003893
2417.69535,0.0002918
2416.73097,0.0002686
2415.76659,0.0003000
2414.80221,0.0003335
2413.83783,0.0003008
2412.87346,0.0002464
2411.90908,0.0002739
2410.94470,0.0003495
2409.98032,0.0003830
2409.01594,0.0004130
2408.05157,0.0004293
2407.08719,0.0003892
2406.12281,0.0003699
2405.15843,0.0004014
2404.19406,0.0004634
2403.22968,0.0005083
2402.26530,0.0005154
2401.30092,0.0005156
2400.33654,0.0005341
2399.37217,0.0005530
2398.40779,0.0005130
2397.44341,0.0004419
2396.47903,0.0003555
2395.51465,0.0002801
2394.55028,0.0002577
2393.58590,0.0002699
2392.62152,0.0003096
2391.65714,0.0003131
2390.69276,0.0002901
2389.72839,0.0002929
2388.76401,0.0003187
2387.79963,0.0003558
2386.83525,0.0003611
2385.87088,0.0003684
2384.90650,0.0003987
2383.94212,0.0004399
2382.97774,0.0004955
2382.01336,0.0005555
2381.04899,0.0006271
2380.08461,0.0007095
2379.12023,0.0008379
2378.15585,0.0010077
2377.19147,0.0011845
2376.22710,0.0013651
2375.26272,0.0015329
2374.29834,0.0016961
2373.33396,0.0018629
2372.36959,0.0020451
2371.40521,0.0022333
2370.44083,0.0024020
2369.47645,0.0025703
2368.51207,0.0027619
2367.54770,0.0029644
2366.58332,0.0031314
2365.61894,0.0032501
2364.65456,0.0033351
2363.69018,0.0034005
2362.72581,0.0034501
2361.76143,0.0034774
2360.79705,0.0035065
2359.83267,0.0035319
2358.86829,0.0035132
2357.90392,0.0034364
2356.93954,0.0033137
2355.97516,0.0031552
2355.01078,0.0029314
2354.04641,0.0026232
2353.08203,0.0022771
2352.11765,0.0019451
2351.15327,0.0016529
2350.18889,0.0014438
2349.22452,0.0013703
2348.26014,0.0014428
2347.29576,0.0016127
2346.33138,0.0018364
2345.36700,0.0020745
2344.40263,0.0022951
2343.43825,0.0024941
2342.47387,0.0026239
2341.50949,0.0026719
2340.54512,0.0026653
2339.58074,0.0026237
2338.61636,0.0025811
2337.65198,0.0025376
2336.68760,0.0025207
2335.72323,0.0025402
2334.75885,0.0025518
2333.79447,0.0025324
2332.83009,0.0025135
2331.86571,0.0025294
2330.90134,0.0025244
2329.93696,0.0024824
2328.97258,0.0024325
2328.00820,0.0023821
2327.04382,0.0023419
2326.07945,0.0022950
2325.11507,0.0022414
2324.15069,0.0021763
2323.18631,0.0021178
2322.22194,0.0020762
2321.25756,0.0020012
2320.29318,0.0018644
2319.32880,0.0016747
2318.36442,0.0014767
2317.40005,0.0013040
2316.43567,0.0011847
2315.47129,0.0011064
2314.50691,0.0010311
2313.54253,0.0009827
2312.57816,0.0009862
2311.61378,0.0010354
2310.64940,0.0010573
2309.68502,0.0010163
2308.72065,0.0009374
2307.75627,0.0008371
2306.79189,0.0007516
2305.82751,0.0006920
2304.86313,0.0006708
2303.89876,0.0006483
2302.93438,0.0006425
2301.97000,0.0007209
2301.00562,0.0007932
2300.04124,0.0007865
2299.07687,0.0007508
2298.11249,0.0007244
2297.14811,0.0006340
2296.18373,0.0004911
2295.21935,0.0003849
2294.25498,0.0003081
2293.29060,0.0002409
2292.32622,0.0001240
2291.36184,0.0000124
2290.39747,-0.0000152
2289.43309,-0.0000261
2288.46871,-0.0000590
2287.50433,-0.0000694
2286.53995,-0.0000241
2285.57558,-0.0000011
2284.61120,0.0000260
2283.64682,0.0000579
2282.68244,0.0000366
2281.71806,-0.0000224
2280.75369,-0.0001568
2279.78931,-0.0002173
2278.82493,-0.0001456
2277.86055,-0.0000380
2276.89618,0.0000879
2275.93180,0.0001603
2274.96742,0.0001683
2274.00304,0.0001282
2273.03866,0.0000746
2272.07429,0.0000172
2271.10991,0.0000163
2270.14553,0.0000494
2269.18115,0.0000223
2268.21677,0.0000330
2267.25240,0.0000276
2266.28802,-0.0000114
2265.32364,-0.0000636
2264.35926,-0.0002082
2263.39488,-0.0003952
2262.43051,-0.0005510
2261.46613,-0.0006189
2260.50175,-0.0006130
2259.53737,-0.0004582
2258.57300,-0.0002704
2257.60862,-0.0001934
2256.64424,-0.0001278
2255.67986,-0.0001666
2254.71548,-0.0002344
2253.75111,-0.0002546
2252.78673,-0.0002739
2251.82235,-0.0002331
2250.85797,-0.0001568
2249.89359,-0.0000976
2248.92922,-0.0000824
2247.96484,0.0000586
2247.00046,0.0002706
2246.03608,0.0004096
2245.07171,0.0004992
2244.10733,0.0004442
2243.14295,0.0004562
2242.17857,0.0005647
2241.21419,0.0005152
2240.24982,0.0003658
2239.28544,0.0001535
2238.32106,-0.0001688
2237.35668,-0.0005183
2236.39230,-0.0007744
2235.42793,-0.0009676
2234.46355,-0.0011516
2233.49917,-0.0012957
2232.53479,-0.0013597
2231.57041,-0.0012626
2230.60604,-0.0011300
2229.64166,-0.0011215
2228.67728,-0.0011485
2227.71290,-0.0011456
2226.74853,-0.0011427
2225.78415,-0.0011397
2224.81977,-0.0011368
2223.85539,-0.0011338
2222.89101,-0.0011309
2221.92664,-0.0011279
2220.96226,-0.0011250
2219.99788,-0.0011221
2219.03350,-0.0011191
2218.06912,-0.0011162
2217.10475,-0.0011132
2216.14037,-0.0011103
2215.17599,-0.0011073
2214.21161,-0.0011044
2213.24724,-0.0011014
2212.28286,-0.0010985
2211.31848,-0.0010956
2210.35410,-0.0010926
2209.38972,-0.0010897
2208.42535,-0.0010867
2207.46097,-0.0010838
2206.49659,-0.0010808
2205.53221,-0.0010779
2204.56783,-0.0010750
2203.60346,-0.0010720
2202.63908,-0.0010691
2201.67470,-0.0010661
2200.71032,-0.0010632
2199.74594,-0.0010602
2198.78157,-0.0010573
2197.81719,-0.0010544
2196.85281,-0.0010514
2195.88843,-0.0010485
2194.92406,-0.0010455
2193.95968,-0.0010426
2192.99530,-0.0010396
2192.03092,-0.0010367
2191.06654,-0.0010338
2190.10217,-0.0010308
2189.13779,-0.0010279
2188.17341,-0.0010249
2187.20903,-0.0010220
2186.24465,-0.0010190
2185.28028,-0.0010161
2184.31590,-0.0010132
2183.35152,-0.0010102
2182.38714,-0.0010073
2181.42276,-0.0010043
2180.45839,-0.0010014
2179.49401,-0.0009984
2178.52963,-0.0009955
2177.56525,-0.0009925
2176.60088,-0.0009896
2175.63650,-0.0009867
2174.67212,-0.0009837
2173.70774,-0.0009808
2172.74336,-0.0009778
2171.77899,-0.0009749
2170.81461,-0.0009719
2169.85023,-0.0009690
2168.88585,-0.0009661
2167.92147,-0.0009631
2166.95710,-0.0009602
2165.99272,-0.0009572
2165.02834,-0.0009543
2164.06396,-0.0009513
2163.09959,-0.0009484
2162.13521,-0.0009455
2161.17083,-0.0009425
2160.20645,-0.0009396
2159.24207,-0.0009366
2158.27770,-0.0009337
2157.31332,-0.0009307
2156.34894,-0.0009278
2155.38456,-0.0009249
2154.42018,-0.0009219
2153.45581,-0.0009190
2152.49143,-0.0009160
2151.52705,-0.0009131
2150.56267,-0.0009101
2149.59829,-0.0009072
2148.63392,-0.0009043
2147.66954,-0.0009013
2146.70516,-0.0008984
2145.74078,-0.0008954
2144.77641,-0.0008925
2143.81203,-0.0008895
2142.84765,-0.0008866
2141.88327,-0.0008837
2140.91889,-0.0008807
2139.95452,-0.0008778
2138.99014,-0.0008748
2138.02576,-0.0008719
2137.06138,-0.0008689
2136.09700,-0.0008660
2135.13263,-0.0008630
2134.16825,-0.0008601
2133.20387,-0.0008572
2132.23949,-0.0008542
2131.27512,-0.0008513
2130.31074,-0.0008483
2129.34636,-0.0008454
2128.38198,-0.0008424
2127.41760,-0.0008395
2126.45323,-0.0008366
2125.48885,-0.0008336
2124.52447,-0.0008307
2123.56009,-0.0008277
2122.59571,-0.0008248
2121.63134,-0.0008218
2120.66696,-0.0008189
2119.70258,-0.0008160
2118.73820,-0.0008130
2117.77382,-0.0008101
2116.80945,-0.0008071
2115.84507,-0.0008042
2114.88069,-0.0008012
2113.91631,-0.0007983
2112.95194,-0.0007954
2111.98756,-0.0007924
2111.02318,-0.0007895
2110.05880,-0.0007865
2109.09442,-0.0007836
2108.13005,-0.0007806
2107.16567,-0.0007777
2106.20129,-0.0007748
2105.23691,-0.0007718
2104.27253,-0.0007689
2103.30816,-0.0007659
2102.34378,-0.0007630
2101.37940,-0.0007600
2100.41502,-0.0007571
2099.45065,-0.0007541
2098.48627,-0.0007512
2097.52189,-0.0007483
2096.55751,-0.0007453
2095.59313,-0.0007424
2094.62876,-0.0007394
2093.66438,-0.0007365
2092.70000,-0.0007335
2091.73562,-0.0007306
2090.77124,-0.0007277
2089.80687,-0.0007247
2088.84249,-0.0007218
2087.87811,-0.0007188
2086.91373,-0.0007159
2085.94935,-0.0007129
2084.98498,-0.0007100
2084.02060,-0.0007071
2083.05622,-0.0007041
2082.09184,-0.0007012
2081.12747,-0.0006982
2080.16309,-0.0006953
2079.19871,-0.0006923
2078.23433,-0.0006894
2077.26995,-0.0006865
2076.30558,-0.0006835
2075.34120,-0.0006806
2074.37682,-0.0006776
2073.41244,-0.0006747
2072.44806,-0.0006717
2071.48369,-0.0006688
2070.51931,-0.0006659
2069.55493,-0.0006629
2068.59055,-0.0006600
2067.62618,-0.0006570
2066.66180,-0.0006541
2065.69742,-0.0006511
2064.73304,-0.0006482
2063.76866,-0.0006452
2062.80429,-0.0006423
2061.83991,-0.0006394
2060.87553,-0.0006364
2059.91115,-0.0006335
2058.94677,-0.0006305
2057.98240,-0.0006276
2057.01802,-0.0006246
2056.05364,-0.0006217
2055.08926,-0.0006188
2054.12488,-0.0006158
2053.16051,-0.0006129
2052.19613,-0.0006099
2051.23175,-0.0006070
2050.26737,-0.0006040
2049.30300,-0.0006011
2048.33862,-0.0005982
2047.37424,-0.0005952
2046.40986,-0.0005923
2045.44548,-0.0005893
2044.48111,-0.0005864
2043.51673,-0.0005834
2042.55235,-0.0005805
2041.58797,-0.0005776
2040.62359,-0.0005746
2039.65922,-0.0005717
2038.69484,-0.0005687
2037.73046,-0.0005658
2036.76608,-0.0005628
2035.80171,-0.0005599
2034.83733,-0.0005570
2033.87295,-0.0005540
2032.90857,-0.0005511
2031.94419,-0.0005481
2030.97982,-0.0005452
2030.01544,-0.0005422
2029.05106,-0.0005393
2028.08668,-0.0005363
2027.12230,-0.0005334
2026.15793,-0.0005305
2025.19355,-0.0005275
2024.22917,-0.0005246
2023.26479,-0.0005216
2022.30041,-0.0005187
2021.33604,-0.0005157
2020.37166,-0.0005128
2019.40728,-0.0005099
2018.44290,-0.0005069
2017.47853,-0.0005040
2016.51415,-0.0005010
2015.54977,-0.0004981
2014.58539,-0.0004951
2013.62101,-0.0004922
2012.65664,-0.0004893
2011.69226,-0.0004863
2010.72788,-0.0004834
2009.76350,-0.0004804
2008.79912,-0.0004775
2007.83475,-0.0004745
2006.87037,-0.0004716
2005.90599,-0.0004687
2004.94161,-0.0004657
2003.97724,-0.0004628
2003.01286,-0.0004598
2002.04848,-0.0004569
2001.08410,-0.0004539
2000.11972,-0.0004510
1999.15535,-0.0004481
1998.19097,-0.0004451
1997.22659,-0.0004422
1996.26221,-0.0004392
1995.29783,-0.0004363
1994.33346,-0.0004333
1993.36908,-0.0004304
1992.40470,-0.0004274
1991.44032,-0.0004245
1990.47594,-0.0004216
1989.51157,-0.0004186
1988.54719,-0.0004157
1987.58281,-0.0004127
1986.61843,-0.0004098
1985.65406,-0.0004068
1984.68968,-0.0004039
1983.72530,-0.0004010
1982.76092,-0.0003980
1981.79654,-0.0003951
1980.83217,-0.0003921
1979.86779,-0.0003892
1978.90341,-0.0003862
1977.93903,-0.0003833
1976.97465,-0.0003804
1976.01028,-0.0003774
1975.04590,-0.0003745
1974.08152,-0.0003715
1973.11714,-0.0003686
1972.15276,-0.0003656
1971.18839,-0.0003627
1970.22401,-0.0003598
1969.25963,-0.0003568
1968.29525,-0.0003539
1967.33088,-0.0003509
1966.36650,-0.0003480
1965.40212,-0.0003450
1964.43774,-0.0003421
1963.47336,-0.0003392
1962.50899,-0.0003362
1961.54461,-0.0003333
1960.58023,-0.0003303
1959.61585,-0.0003274
1958.65147,-0.0003244
1957.68710,-0.0003215
1956.72272,-0.0003185
1955.75834,-0.0003156
1954.79396,-0.0003127
1953.82959,-0.0003097
1952.86521,-0.0003068
1951.90083,-0.0003038
1950.93645,-0.0003009
1949.97207,-0.0002979
1949.00770,-0.0002950
1948.04332,-0.0002921
1947.07894,-0.0002891
1946.11456,-0.0002862
1945.15018,-0.0002832
1944.18581,-0.0002803
1943.22143,-0.0002773
1942.25705,-0.0002744
1941.29267,-0.0002715
1940.32829,-0.0002685
1939.36392,-0.0002656
1938.39954,-0.0002626
1937.43516,-0.0003120
1936.47078,-0.0003061
1935.50641,-0.0002090
1934.54203,-0.0001220
1933.57765,-0.0000693
1932.61327,-0.0000470
1931.64889,-0.0000782
1930.68452,-0.0001247
1929.72014,-0.0001565
1928.75576,-0.0001018
1927.79138,0.0000458
1926.82700,0.0001688
1925.86263,0.0002260
1924.89825,0.0003301
1923.93387,0.0004211
1922.96949,0.0004589
1922.00512,0.0005265
1921.04074,0.0005645
1920.07636,0.0005197
1919.11198,0.0005202
1918.14760,0.0006067
1917.18323,0.0007247
1916.21885,0.0007714
1915.25447,0.0006890
1914.29009,0.0005451
1913.32571,0.0003518
1912.36134,0.0001512
1911.39696,0.0000883
1910.43258,0.0000859
1909.46820,0.0000324
1908.50382,0.0000322
1907.53945,0.0001338
1906.57507,0.0002862
1905.61069,0.0003407
1904.64631,0.0002919
1903.68194,0.0002742
1902.71756,0.0002939
1901.75318,0.0003605
1900.78880,0.0004421
1899.82442,0.0004916
1898.86005,0.0004639
1897.89567,0.0004316
1896.93129,0.0004622
1895.96691,0.0004895
1895.00253,0.0005671
1894.03816,0.0006156
1893.07378,0.0006013
1892.10940,0.0005289
1891.14502,0.0003839
1890.18065,0.0003332
1889.21627,0.0003196
1888.25189,0.0003010
1887.28751,0.0002936
1886.32313,0.0002773
1885.35876,0.0003241
1884.39438,0.0004218
1883.43000,0.0005497
1882.46562,0.0006061
1881.50124,0.0005432
1880.53687,0.0003893
1879.57249,0.0002229
1878.60811,0.0001635
1877.64373,0.0001539
1876.67935,0.0001576
1875.71498,0.0001509
1874.75060,0.0001954
1873.78622,0.0003477
1872.82184,0.0004601
1871.85747,0.0004931
1870.89309,0.0005083
1869.92871,0.0005498
1868.96433,0.0005927
1867.99995,0.0005753
1867.03558,0.0005091
1866.07120,0.0004463
1865.10682,0.0004008
1864.14244,0.0003601
1863.17806,0.0003428
1862.21369,0.0002844
1861.24931,0.0001748
1860.28493,0.0001095
1859.32055,0.0001165
1858.35618,0.0001587
1857.39180,0.0001877
1856.42742,0.0002172
1855.46304,0.0002409
1854.49866,0.0002578
1853.53429,0.0002784
1852.56991,0.0002867
1851.60553,0.0002758
1850.64115,0.0002394
1849.67677,0.0002717
1848.71240,0.0003884
1847.74802,0.0004873
1846.78364,0.0005541
1845.81926,0.0006230
1844.85488,0.0007015
1843.89051,0.0007310
1842.92613,0.0007136
1841.96175,0.0006989
1840.99737,0.0006609
1840.03300,0.0005869
1839.06862,0.0005338
1838.10424,0.0005455
1837.13986,0.0005467
1836.17548,0.0004912
1835.21111,0.0004453
1834.24673,0.0004475
1833.28235,0.0004841
1832.31797,0.0005108
1831.35359,0.0005158
1830.38922,0.0005350
1829.42484,0.0005589
1828.46046,0.0005702
1827.49608,0.0005861
1826.53171,0.0005937
1825.56733,0.0005831
1824.60295,0.0005762
1823.63857,0.0005818
1822.67419,0.0005928
1821.70982,0.0006036
1820.74544,0.0005938
1819.78106,0.0005611
1818.81668,0.0005512
1817.85230,0.0005521
1816.88793,0.0005396
1815.92355,0.0005300
1814.95917,0.0005225
1813.99479,0.0005258
1813.03041,0.0005165
1812.06604,0.0004834
1811.10166,0.0004555
1810.13728,0.0004418
1809.17290,0.0004334
1808.20853,0.0004174
1807.24415,0.0004198
1806.27977,0.0004411
1805.31539,0.0004816
1804.35101,0.0005457
1803.38664,0.0005828
1802.42226,0.0005798
1801.45788,0.0005557
1800.49350,0.0005285
1799.52912,0.0004868
1798.56475,0.0004399
1797.60037,0.0004409
1796.63599,0.0004700
1795.67161,0.0005180
1794.70724,0.0005938
1793.74286,0.0006622
1792.77848,0.0006972
1791.81410,0.0006901
1790.84972,0.0006546
1789.88535,0.0006191
1788.92097,0.0005862
1787.95659,0.0005249
1786.99221,0.0004689
1786.02783,0.0004901
1785.06346,0.0005463
1784.09908,0.0005903
1783.13470,0.0006284
1782.17032,0.0006280
1781.20594,0.0006011
1780.24157,0.0005758
1779.27719,0.0005304
1778.31281,0.0005213
1777.34843,0.0005842
1776.38406,0.0006611
1775.41968,0.0007363
1774.45530,0.0008188
1773.49092,0.0009052
1772.52654,0.0009672
1771.56217,0.0009817
1770.59779,0.0009554
1769.63341,0.0009094
1768.66903,0.0008350
1767.70465,0.0007402
1766.74028,0.0007233
1765.77590,0.0007689
1764.81152,0.0007950
1763.84714,0.0008054
1762.88276,0.0007949
1761.91839,0.0008078
1760.95401,0.0008479
1759.98963,0.0008666
1759.02525,0.0008825
1758.06088,0.0008891
1757.09650,0.0009014
1756.13212,0.0009838
1755.16774,0.0011155
1754.20336,0.0012206
1753.23899,0.0012965
1752.27461,0.0013681
1751.31023,0.0014286
1750.34585,0.0014930
1749.38147,0.0015482
1748.41710,0.0015730
1747.45272,0.0015732
1746.48834,0.0015359
1745.52396,0.0015227
1744.55959,0.0015871
1743.59521,0.0016474
1742.63083,0.0016743
1741.66645,0.0016790
1740.70207,0.0016445
1739.73770,0.0016305
1738.77332,0.0016891
1737.80894,0.0017939
1736.84456,0.0018903
1735.88018,0.0019374
1734.91581,0.0019479
1733.95143,0.0019548
1732.98705,0.0019607
1732.02267,0.0019155
1731.05829,0.0018083
1730.09392,0.0016610
1729.12954,0.0015050
1728.16516,0.0014293
1727.20078,0.0014488
1726.23641,0.0014871
1725.27203,0.0014807
1724.30765,0.0014355
1723.34327,0.0014444
1722.37889,0.0015481
1721.41452,0.0016759
1720.45014,0.0017731
1719.48576,0.0018619
1718.52138,0.0019427
1717.55700,0.0019935
1716.59263,0.0020196
1715.62825,0.0020059
1714.66387,0.0019391
1713.69949,0.0018162
1712.73512,0.0016733
1711.77074,0.0016004
1710.80636,0.0016187
1709.84198,0.0016365
1708.87760,0.0016336
1707.91323,0.0016345
1706.94885,0.0015844
1705.98447,0.0015573
1705.02009,0.0016578
1704.05571,0.0018025
1703.09134,0.0018767
1702.12696,0.0018601
1701.16258,0.0018938
1700.19820,0.0020197
1699.23382,0.0021267
1698.26945,0.0021551
1697.30507,0.0021007
1696.34069,0.0019699
1695.37631,0.0017897
1694.41194,0.0016758
1693.44756,0.0016612
1692.48318,0.0016086
1691.51880,0.0014401
1690.55442,0.0012975
1689.59005,0.0014025
1688.62567,0.0016536
1687.66129,0.0018653
1686.69691,0.0020021
1685.73253,0.0020804
1684.76816,0.0021254
1683.80378,0.0021224
1682.83940,0.0020665
1681.87502,0.0019489
1680.91065,0.0018015
1679.94627,0.0016888
1678.98189,0.0016561
1678.01751,0.0017226
1677.05313,0.0018003
1676.08876,0.0018366
1675.12438,0.0018545
1674.16000,0.0019127
1673.19562,0.0019929
1672.23124,0.0020229
1671.26687,0.0020036
1670.30249,0.0019400
1669.33811,0.0018892
1668.37373,0.0018882
1667.40935,0.0018895
1666.44498,0.0018700
1665.48060,0.0018372
1664.51622,0.0018152
1663.55184,0.0018286
1662.58747,0.0018742
1661.62309,0.0018850
1660.65871,0.0018419
1659.69433,0.0017644
1658.72995,0.0017193
1657.76558,0.0018425
1656.80120,0.0020831
1655.83682,0.0023100
1654.87244,0.0024470
1653.90806,0.0024940
1652.94369,0.0024835
1651.97931,0.0024286
1651.01493,0.0023479
1650.05055,0.0022066
1649.08618,0.0020060
1648.12180,0.0018032
1647.15742,0.0016921
1646.19304,0.0017110
1645.22866,0.0017202
1644.26429,0.0016548
1643.29991,0.0015482
1642.33553,0.0014240
1641.37115,0.0013282
1640.40677,0.0013590
1639.44240,0.0014923
1638.47802,0.0016055
1637.51364,0.0016740
1636.54926,0.0017065
1635.58488,0.0016987
1634.62051,0.0016441
1633.65613,0.0015720
1632.69175,0.0014988
1631.72737,0.0013999
1630.76300,0.0012768
1629.79862,0.0011732
1628.83424,0.0011841
1627.86986,0.0012494
1626.90548,0.0012805
1625.94111,0.0012940
1624.97673,0.0012886
1624.01235,0.0012581
1623.04797,0.0011846
1622.08359,0.0011711
1621.11922,0.0012457
1620.15484,0.0012933
1619.19046,0.0013050
1618.22608,0.0012937
1617.26171,0.0012916
1616.29733,0.0012805
1615.33295,0.0012256
1614.36857,0.0011511
1613.40419,0.0010632
1612.43982,0.0009597
1611.47544,0.0008572
1610.51106,0.0008413
1609.54668,0.0008824
1608.58230,0.0008921
1607.61793,0.0008915
1606.65355,0.0008811
1605.68917,0.0008582
1604.72479,0.0008258
1603.76041,0.0007940
1602.79604,0.0007760
1601.83166,0.0007678
1600.86728,0.0007715
1599.90290,0.0007824
1598.93853,0.0008024
1597.97415,0.0008308
1597.00977,0.0008531
1596.04539,0.0008566
1595.08101,0.0008485
1594.11664,0.0008286
1593.15226,0.0007964
1592.18788,0.0007665
1591.22350,0.0007412
1590.25912,0.0007215
1589.29475,0.0007081
1588.33037,0.0007071
1587.36599,0.0007114
1586.40161,0.0007189
1585.43724,0.0007149
1584.47286,0.0006988
1583.50848,0.0006765
1582.54410,0.0006230
1581.57972,0.0006350
1580.61535,0.0007553
1579.65097,0.0008846
1578.68659,0.0009850
1577.72221,0.0010571
1576.75783,0.0010931
1575.79346,0.0010839
1574.82908,0.0010857
1573.86470,0.0011009
1572.90032,0.0010719
1571.93594,0.0009837
1570.97157,0.0008749
1570.00719,0.0008693
1569.04281,0.0009290
1568.07843,0.0009387
1567.11406,0.0008904
1566.14968,0.0008060
1565.18530,0.0007677
1564.22092,0.0008337
1563.25654,0.0010541
1562.29217,0.0013504
1561.32779,0.0015472
1560.36341,0.0016343
1559.39903,0.0016970
1558.43465,0.0017468
1557.47028,0.0017127
1556.50590,0.0015748
1555.54152,0.0013705
1554.57714,0.0011705
1553.61276,0.0010518
1552.64839,0.0010014
1551.68401,0.0010049
1550.71963,0.0010247
1549.75525,0.0010057
1548.79088,0.0009700
1547.82650,0.0009862
1546.86212,0.0010418
1545.89774,0.0010665
1544.93336,0.0011330
1543.96899,0.0013146
1543.00461,0.0015186
1542.04023,0.0016543
1541.07585,0.0017001
1540.11147,0.0016583
1539.14710,0.0015822
1538.18272,0.0015156
1537.21834,0.0014108
1536.25396,0.0012870
1535.28959,0.0011716
1534.32521,0.0010507
1533.36083,0.0010107
1532.39645,0.0010467
1531.43207,0.0010636
1530.46770,0.0010630
1529.50332,0.0010491
1528.53894,0.0010094
1527.57456,0.0009920
1526.61018,0.0010569
1525.64581,0.0011812
1524.68143,0.0013053
1523.71705,0.0013794
1522.75267,0.0014181
1521.78829,0.0014526
1520.82392,0.0014583
1519.85954,0.0014423
1518.89516,0.0013968
1517.93078,0.0013124
1516.96641,0.0012104
1516.00203,0.0011100
1515.03765,0.0010605
1514.07327,0.0010410
1513.10889,0.0010022
1512.14452,0.0009942
1511.18014,0.0010964
1510.21576,0.0012819
1509.25138,0.0014464
1508.28700,0.0015500
1507.32263,0.0015846
1506.35825,0.0015689
1505.39387,0.0015041
1504.42949,0.0013810
1503.46512,0.0012290
1502.50074,0.0010417
1501.53636,0.0009101
1500.57198,0.0009244
1499.60760,0.0010243
1498.64323,0.0011355
1497.67885,0.0011932
1496.71447,0.0011993
1495.75009,0.0011957
1494.78571,0.0011871
1493.82134,0.0011632
1492.85696,0.0011386
1491.89258,0.0011267
1490.92820,0.0010979
1489.96382,0.0010952
1488.99945,0.0011259
1488.03507,0.0011201
1487.07069,0.0010888
1486.10631,0.0010540
1485.14194,0.0010274
1484.17756,0.0010199
1483.21318,0.0010142
1482.24880,0.0010097
1481.28442,0.0010330
1480.32005,0.0010670
1479.35567,0.0010802
1478.39129,0.0011201
1477.42691,0.0012158
1476.46253,0.0013400
1475.49816,0.0014649
1474.53378,0.0015729
1473.56940,0.0016518
1472.60502,0.0016889
1471.64065,0.0016759
1470.67627,0.0016470
1469.71189,0.0016627
1468.74751,0.0016844
1467.78313,0.0016952
1466.81876,0.0017386
1465.85438,0.0017915
1464.89000,0.0018436
1463.92562,0.0018686
1462.96124,0.0018773
1461.99687,0.0019586
1461.03249,0.0020984
1460.06811,0.0022229
1459.10373,0.0023339
1458.13935,0.0024507
1457.17498,0.0025184
1456.21060,0.0025212
1455.24622,0.0024599
1454.28184,0.0023285
1453.31747,0.0021933
1452.35309,0.0020835
1451.38871,0.0020228
1450.42433,0.0020601
1449.45995,0.0021462
1448.49558,0.0022030
1447.53120,0.0022473
1446.56682,0.0023096
1445.60244,0.0023667
1444.63806,0.0024041
1443.67369,0.0023913
1442.70931,0.0023832
1441.74493,0.0024839
1440.78055,0.0026383
1439.81618,0.0027668
1438.85180,0.0028673
1437.88742,0.0029465
1436.92304,0.0029983
1435.95866,0.0030479
1434.99429,0.0031110
1434.02991,0.0031545
1433.06553,0.0031664
1432.10115,0.0031700
1431.13677,0.0032232
1430.17240,0.0033472
1429.20802,0.0034777
1428.24364,0.0035889
1427.27926,0.0037047
1426.31488,0.0038117
1425.35051,0.0039237
1424.38613,0.0041101
1423.42175,0.0043581
1422.45737,0.0046169
1421.49300,0.0048630
1420.52862,0.0050854
1419.56424,0.0052765
1418.59986,0.0054409
1417.63548,0.0056046
1416.67111,0.0057646
1415.70673,0.0059163
1414.74235,0.0060392
1413.77797,0.0061619
1412.81359,0.0063429
1411.84922,0.0065191
1410.88484,0.0066659
1409.92046,0.0067977
1408.95608,0.0068998
1407.99171,0.0069734
1407.02733,0.0070121
1406.06295,0.0070196
1405.09857,0.0069990
1404.13419,0.0069574
1403.16982,0.0068739
1402.20544,0.0067438
1401.24106,0.0065834
1400.27668,0.0063902
1399.31230,0.0062123
1398.34793,0.0060492
1397.38355,0.0058609
1396.41917,0.0056454
1395.45479,0.0054069
1394.49041,0.0051541
1393.52604,0.0049038
1392.56166,0.0046940
1391.59728,0.0045207
1390.63290,0.0043566
1389.66853,0.0041903
1388.70415,0.0040398
1387.73977,0.0039364
1386.77539,0.0038321
1385.81101,0.0036977
1384.84664,0.0035585
1383.88226,0.0034224
1382.91788,0.0032921
1381.95350,0.0031732
1380.98912,0.0030782
1380.02475,0.0030003
1379.06037,0.0029276
1378.09599,0.0028583
1377.13161,0.0028010
1376.16724,0.0027569
1375.20286,0.0027014
1374.23848,0.0026363
1373.27410,0.0025753
1372.30972,0.0025136
1371.34535,0.0024435
1370.38097,0.0023585
1369.41659,0.0022637
1368.45221,0.0021855
1367.48783,0.0021428
1366.52346,0.0021209
1365.55908,0.0021039
1364.59470,0.0020815
1363.63032,0.0020548
1362.66594,0.0020273
1361.70157,0.0019869
1360.73719,0.0019319
1359.77281,0.0018723
1358.80843,0.0018197
1357.84406,0.0017699
1356.87968,0.0017246
1355.91530,0.0017001
1354.95092,0.0016896
1353.98654,0.0016755
1353.02217,0.0016499
1352.05779,0.0016227
1351.09341,0.0015943
1350.12903,0.0015614
1349.16465,0.0015374
1348.20028,0.0015215
1347.23590,0.0015081
1346.27152,0.0014873
1345.30714,0.0014632
1344.34276,0.0014573
1343.37839,0.0014573
1342.41401,0.0014449
1341.44963,0.0014307
1340.48525,0.0014197
1339.52088,0.0013997
1338.55650,0.0013717
1337.59212,0.0013451
1336.62774,0.0013228
1335.66336,0.0013051
1334.69899,0.0012836
1333.73461,0.0012600
1332.77023,0.0012446
1331.80585,0.0012338
1330.84147,0.0012160
1329.87710,0.0011953
1328.91272,0.0011851
1327.94834,0.0011718
1326.98396,0.0011494
1326.01959,0.0011381
1325.05521,0.0011454
1324.09083,0.0011560
1323.12645,0.0011480
1322.16207,0.0011244
1321.19770,0.0011016
1320.23332,0.0010856
1319.26894,0.0010691
1318.30456,0.0010583
1317.34018,0.0010610
1316.37581,0.0010495
1315.41143,0.0010282
1314.44705,0.0010242
1313.48267,0.0010319
1312.51829,0.0010375
1311.55392,0.0010270
1310.58954,0.0010067
1309.62516,0.0009916
1308.66078,0.0009856
1307.69641,0.0009860
1306.73203,0.0009916
1305.76765,0.0009974
1304.80327,0.0009925
1303.83889,0.0009920
1302.87452,0.0010027
1301.91014,0.0010193
1300.94576,0.0010406
1299.98138,0.0010477
1299.01700,0.0010374
1298.05263,0.0010133
1297.08825,0.0009824
1296.12387,0.0009575
1295.15949,0.0009423
1294.19512,0.0009356
1293.23074,0.0009339
1292.26636,0.0009455
1291.30198,0.0009614
1290.33760,0.0009792
1289.37323,0.0010023
1288.40885,0.0010132
1287.44447,0.0010156
1286.48009,0.0010089
1285.51571,0.0010021
1284.55134,0.0010054
1283.58696,0.0010002
1282.62258,0.0009894
1281.65820,0.0009855
1280.69382,0.0009829
1279.72945,0.0009719
1278.76507,0.0009652
1277.80069,0.0009704
1276.83631,0.0009810
1275.87194,0.0010018
1274.90756,0.0010250
1273.94318,0.0010529
1272.97880,0.0010808
1272.01442,0.0010988
1271.05005,0.0011213
1270.08567,0.0011388
1269.12129,0.0011403
1268.15691,0.0011376
1267.19253,0.0011403
1266.22816,0.0011438
1265.26378,0.0011430
1264.29940,0.0011413
1263.33502,0.0011389
1262.37065,0.0011382
1261.40627,0.0011318
1260.44189,0.0011269
1259.47751,0.0011280
1258.51313,0.0011112
1257.54876,0.0010810
1256.58438,0.0010603
1255.62000,0.0010555
1254.65562,0.0010549
1253.69124,0.0010527
1252.72687,0.0010576
1251.76249,0.0010666
1250.79811,0.0010759
1249.83373,0.0010800
1248.86935,0.0010807
1247.90498,0.0010814
1246.94060,0.0010783
1245.97622,0.0010736
1245.01184,0.0010689
1244.04747,0.0010752
1243.08309,0.0010868
1242.11871,0.0010937
1241.15433,0.0011017
1240.18995,0.0011095
1239.22558,0.0011240
1238.26120,0.0011377
1237.29682,0.0011410
1236.33244,0.0011472
1235.36806,0.0011549
1234.40369,0.0011531
1233.43931,0.0011449
1232.47493,0.0011510
1231.51055,0.0011721
1230.54618,0.0012007
1229.58180,0.0012473
1228.61742,0.0012989
1227.65304,0.0013443
1226.68866,0.0013820
1225.72429,0.0013993
1224.75991,0.0014073
1223.79553,0.0014154
1222.83115,0.0014161
1221.86677,0.0014245
1220.90240,0.0014526
1219.93802,0.0014925
1218.97364,0.0015448
1218.00926,0.0016128
1217.04488,0.0016811
1216.08051,0.0017358
1215.11613,0.0017803
1214.15175,0.0018117
1213.18737,0.0018380
1212.22300,0.0018675
1211.25862,0.0018915
1210.29424,0.0019314
1209.32986,0.0019834
1208.36548,0.0020252
1207.40111,0.0020763
1206.43673,0.0021461
1205.47235,0.0022277
1204.50797,0.0023006
1203.54359,0.0023599
1202.57922,0.0024179
1201.61484,0.0024686
1200.65046,0.0025102
1199.68608,0.0025415
1198.72171,0.0025679
1197.75733,0.0025842
1196.79295,0.0025945
1195.82857,0.0026233
1194.86419,0.0026701
1193.89982,0.0027335
1192.93544,0.0028021
1191.97106,0.0028735
1191.00668,0.0029581
1190.04230,0.0030463
1189.07793,0.0031345
1188.11355,0.0032210
1187.14917,0.0032996
1186.18479,0.0033598
1185.22041,0.0034142
1184.25604,0.0034663
1183.29166,0.0035049
1182.32728,0.0035536
1181.36290,0.0036135
1180.39853,0.0036745
1179.43415,0.0037435
1178.46977,0.0038258
1177.50539,0.0039155
1176.54101,0.0039937
1175.57664,0.0040579
1174.61226,0.0041126
1173.64788,0.0041759
1172.68350,0.0042388
1171.71912,0.0042790
1170.75475,0.0043188
1169.79037,0.0043665
1168.82599,0.0044230
1167.86161,0.0044916
1166.89724,0.0045723
1165.93286,0.0046556
1164.96848,0.0047234
1164.00410,0.0047913
1163.03972,0.0048694
1162.07535,0.0049483
1161.11097,0.0050114
1160.14659,0.0050604
1159.18221,0.0051120
1158.21783,0.0051590
1157.25346,0.0052102
1156.28908,0.0052721
1155.32470,0.0053408
1154.36032,0.0054154
1153.39594,0.0054813
1152.43157,0.0055441
1151.46719,0.0056065
1150.50281,0.0056516
1149.53843,0.0056828
1148.57406,0.0057243
1147.60968,0.0057683
1146.64530,0.0057944
1145.68092,0.0058242
1144.71654,0.0058638
1143.75217,0.0059037
1142.78779,0.0059412
1141.82341,0.0059673
1140.85903,0.0059879
1139.89465,0.0060036
1138.93028,0.0060144
1137.96590,0.0060269
1137.00152,0.0060568
1136.03714,0.0061106
1135.07276,0.0061645
1134.10839,0.0062103
1133.14401,0.0062470
1132.17963,0.0062743
1131.21525,0.0062829
1130.25088,0.0062594
1129.28650,0.0062301
1128.32212,0.0062058
1127.35774,0.0061746
1126.39336,0.0061382
1125.42899,0.0061038
1124.46461,0.0060721
1123.50023,0.0060336
1122.53585,0.0060046
1121.57147,0.0059979
1120.60710,0.0059933
1119.64272,0.0059619
1118.67834,0.0058923
1117.71396,0.0058149
1116.74959,0.0057500
1115.78521,0.0056877
1114.82083,0.0056319
1113.85645,0.0055735
1112.89207,0.0054954
1111.92770,0.0054281
1110.96332,0.0053960
1109.99894,0.0053702
1109.03456,0.0053254
1108.07018,0.0052584
1107.10581,0.0051727
1106.14143,0.0050882
1105.17705,0.0050207
1104.21267,0.0049640
1103.24829,0.0049144
1102.28392,0.0048534
1101.31954,0.0047731
1100.35516,0.0047053
1099.39078,0.0046454
1098.42641,0.0045734
1097.46203,0.0045016
1096.49765,0.0044362
1095.53327,0.0043807
1094.56889,0.0043404
1093.60452,0.0043060
1092.64014,0.0042714
1091.67576,0.0042325
1090.71138,0.0041793
1089.74700,0.0041293
1088.78263,0.0040754
1087.81825,0.0039858
1086.85387,0.0038706
1085.88949,0.0037480
1084.92512,0.0036410
1083.96074,0.0035460
1082.99636,0.0034585
1082.03198,0.0033908
1081.06760,0.0033336
1080.10323,0.0032963
1079.13885,0.0032727
1078.17447,0.0032513
1077.21009,0.0032094
1076.24571,0.0031352
1075.28134,0.0030639
1074.31696,0.0030009
1073.35258,0.0029471
1072.38820,0.0028844
1071.42382,0.0028187
1070.45945,0.0027679
1069.49507,0.0027177
1068.53069,0.0026891
1067.56631,0.0026499
1066.60194,0.0025739
1065.63756,0.0024785
1064.67318,0.0023670
1063.70880,0.0022605
1062.74442,0.0021670
1061.78005,0.0021128
1060.81567,0.0020813
1059.85129,0.0020354
1058.88691,0.0019871
1057.92253,0.0019315
1056.95816,0.0018833
1055.99378,0.0018434
1055.02940,0.0017857
1054.06502,0.0017027
1053.10065,0.0016054
1052.13627,0.0015292
1051.17189,0.0014869
1050.20751,0.0014623
1049.24313,0.0014259
1048.27876,0.0013690
1047.31438,0.0013102
1046.35000,0.0012519
1045.38562,0.0012097
1044.42124,0.0011934
1043.45687,0.0011781
1042.49249,0.0011613
1041.52811,0.0011484
1040.56373,0.0011348
1039.59935,0.0011130
1038.63498,0.0010667
1037.67060,0.0010160
1036.70622,0.0009748
1035.74184,0.0009409
1034.77747,0.0009247
1033.81309,0.0009068
1032.84871,0.0008969
1031.88433,0.0009199
1030.91995,0.0009505
1029.95558,0.0009634
1028.99120,0.0009617
1028.02682,0.0009449
1027.06244,0.0009117
1026.09806,0.0008883
1025.13369,0.0008799
1024.16931,0.0008830
1023.20493,0.0008996
1022.24055,0.0009102
1021.27618,0.0009201
1020.31180,0.0009311
1019.34742,0.0009278
1018.38304,0.0009154
1017.41866,0.0009028
1016.45429,0.0008820
1015.48991,0.0008534
1014.52553,0.0008282
1013.56115,0.0007985
1012.59677,0.0007683
1011.63240,0.0007511
1010.66802,0.0007381
1009.70364,0.0007142
1008.73926,0.0006969
1007.77488,0.0006984
1006.81051,0.0007042
1005.84613,0.0007351
1004.88175,0.0007822
1003.91737,0.0008156
1002.95300,0.0008260
1001.98862,0.0008117
1001.02424,0.0007993
1000.05986,0.0007855
999.09548,0.0007718
998.13111,0.0007787
997.16673,0.0007980
996.20235,0.0008147
995.23797,0.0008220
994.27359,0.0008334
993.30922,0.0008583
992.34484,0.0009008
991.38046,0.0009372
990.41608,0.0009459
989.45171,0.0009394
988.48733,0.0009104
987.52295,0.0008872
986.55857,0.0009056
985.59419,0.0009355
984.62982,0.0009447
983.66544,0.0009411
982.70106,0.0009310
981.73668,0.0009169
980.77230,0.0009280
979.80793,0.0009471
978.84355,0.0009323
977.87917,0.0008893
976.91479,0.0008419
975.95041,0.0008174
974.98604,0.0008326
974.02166,0.0008592
973.05728,0.0008604
972.09290,0.0008599
971.12853,0.0008631
970.16415,0.0008638
969.19977,0.0009093
968.23539,0.0009674
967.27101,0.0009721
966.30664,0.0009498
965.34226,0.0009429
964.37788,0.0009391
963.41350,0.0009142
962.44912,0.0008827
961.48475,0.0008606
960.52037,0.0008535
959.55599,0.0008652
958.59161,0.0008777
957.62724,0.0008818
956.66286,0.0008765
955.69848,0.0008537
954.73410,0.0008334
953.76972,0.0008253
952.80535,0.0008017
951.84097,0.0007561
950.87659,0.0007196
949.91221,0.0007205
948.94783,0.0007407
947.98346,0.0007431
947.01908,0.0007166
946.05470,0.0006871
945.09032,0.0006867
944.12594,0.0006962
943.16157,0.0007015
942.19719,0.0007094
941.23281,0.0007157
940.26843,0.0007255
939.30406,0.0007394
938.33968,0.0007599
937.37530,0.0007690
936.41092,0.0007399
935.44654,0.0007008
934.48217,0.0006890
933.51779,0.0006765
932.55341,0.0006386
931.58903,0.0006156
930.62465,0.0006109
929.66028,0.0006063
928.69590,0.0006111
927.73152,0.0006208
926.76714,0.0006418
925.80276,0.0006699
924.83839,0.0006869
923.87401,0.0007180
922.90963,0.0007726
921.94525,0.0007953
920.98088,0.0007977
920.01650,0.0008076
919.05212,0.0007734
918.08774,0.0007187
917.12336,0.0006779
916.15899,0.0006344
915.19461,0.0005856
914.23023,0.0005359
913.26585,0.0005215
912.30147,0.0005406
911.33710,0.0005755
910.37272,0.0006304
909.40834,0.0006919
908.44396,0.0007214
907.47959,0.0007187
906.51521,0.0007465
905.55083,0.0007716
904.58645,0.0007521
903.62207,0.0007185
902.65770,0.0006892
901.69332,0.0006727
900.72894,0.0006541
899.76456,0.0006484
898.80018,0.0006565
897.83581,0.0006561
896.87143,0.0006378
895.90705,0.0006204
894.94267,0.0006477
893.97829,0.0006654
893.01392,0.0006412
892.04954,0.0006045
891.08516,0.0005459
890.12078,0.0005024
889.15641,0.0005090
888.19203,0.0005146
887.22765,0.0004904
886.26327,0.0004852
885.29889,0.0004983
884.33452,0.0005316
883.37014,0.0006018
882.40576,0.0006370
881.44138,0.0006263
880.47700,0.0006219
879.51263,0.0006343
878.54825,0.0006484
877.58387,0.0006348
876.61949,0.0005805
875.65512,0.0005208
874.69074,0.0005127
873.72636,0.0005458
872.76198,0.0005726
871.79760,0.0005701
870.83323,0.0005553
869.86885,0.0005651
868.90447,0.0005978
867.94009,0.0006335
866.97571,0.0006435
866.01134,0.0006230
865.04696,0.0005984
864.08258,0.0005812
863.11820,0.0005884
862.15382,0.0006053
861.18945,0.0005865
860.22507,0.0005587
859.26069,0.0005687
858.29631,0.0005961
857.33194,0.0006094
856.36756,0.0006119
855.40318,0.0006181
854.43880,0.0006136
853.47442,0.0005867
852.51005,0.0005473
851.54567,0.0005100
850.58129,0.0005112
849.61691,0.0005371
848.65253,0.0005679
847.68816,0.0006143
846.72378,0.0006644
845.75940,0.0007326
844.79502,0.0007984
843.83065,0.0008380
842.86627,0.0008609
841.90189,0.0008489
840.93751,0.0007976
839.97313,0.0007420
839.00876,0.0007322
838.04438,0.0007296
837.08000,0.0006973
836.11562,0.0006874
835.15124,0.0007203
834.18687,0.0007767
833.22249,0.0007959
832.25811,0.0007813
831.29373,0.0007869
830.32935,0.0007583
829.36498,0.0006691
828.40060,0.0006068
827.43622,0.0006151
826.47184,0.0006289
825.50747,0.0006335
824.54309,0.0006707
823.57871,0.0007107
822.61433,0.0007181
821.64995,0.0007044
820.68558,0.0006972
819.72120,0.0006924
818.75682,0.0006758
817.79244,0.0006577
816.82806,0.0006360
815.86369,0.0006247
814.89931,0.0006412
813.93493,0.0007005
812.97055,0.0007931
812.00618,0.0008496
811.04180,0.0008658
810.07742,0.0008844
809.11304,0.0008846
808.14866,0.0008649
807.18429,0.0008598
806.21991,0.0008302
805.25553,0.0007288
804.29115,0.0006424
803.32677,0.0006486
802.36240,0.0007154
801.39802,0.0008015
800.43364,0.0008658
799.46926,0.0009132
798.50488,0.0009549
797.54051,0.0009708
796.57613,0.0009736
795.61175,0.0009488
794.64737,0.0008724
793.68300,0.0007565
792.71862,0.0006720
791.75424,0.0006582
790.78986,0.0006548
789.82548,0.0006636
788.86111,0.0006966
787.89673,0.0007311
786.93235,0.0007492
785.96797,0.0007442
785.00359,0.0007426
784.03922,0.0007199
783.07484,0.0006779
782.11046,0.0006460
781.14608,0.0006348
780.18171,0.0006379
779.21733,0.0006245
778.25295,0.0006292
777.28857,0.0006362
776.32419,0.0006199
775.35982,0.0006140
774.39544,0.0006065
773.43106,0.0006116
772.46668,0.0006158
771.50230,0.0006142
770.53793,0.0006397
769.57355,0.0006591
768.60917,0.0006735
767.64479,0.0006964
766.68041,0.0007097
765.71604,0.0007259
764.75166,0.0007719
763.78728,0.0008350
762.82290,0.0008453
761.85853,0.0007950
760.89415,0.0007259
759.92977,0.0006645
758.96539,0.0006385
758.00101,0.0006057
757.03664,0.0005506
756.07226,0.0005026
755.10788,0.0004651
754.14350,0.0004848
753.17912,0.0005486
752.21475,0.0005922
751.25037,0.0005934
750.28599,0.0005669
749.32161,0.0005504
748.35724,0.0005604
747.39286,0.0006276
746.42848,0.0007158
745.46410,0.0007601
744.49972,0.0007634
743.53535,0.0007466
742.57097,0.0007502
741.60659,0.0007433
740.64221,0.0007026
739.67783,0.0006542
738.71346,0.0006036
737.74908,0.0005754
736.78470,0.0005989
735.82032,0.0006887
734.85594,0.0007859
733.89157,0.0008294
732.92719,0.0008124
731.96281,0.0007773
730.99843,0.0007740
730.03406,0.0007723
729.06968,0.0007742
728.10530,0.0007878
727.14092,0.0008138
726.17654,0.0008595
725.21217,0.0009167
724.24779,0.0010126
723.28341,0.0011029
722.31903,0.0011216
721.35465,0.0010759
720.39028,0.0010125
719.42590,0.0009566
718.46152,0.0008904
717.49714,0.0008122
716.53276,0.0007303
715.56839,0.0006856
714.60401,0.0006791
713.63963,0.0006872
712.67525,0.0007442
711.71088,0.0008096
710.74650,0.0008366
709.78212,0.0008520
708.81774,0.0008517
707.85336,0.0008246
706.88899,0.0007835
705.92461,0.0007319
704.96023,0.0006834
703.99585,0.0006626
703.03147,0.0006580
702.06710,0.0006539
701.10272,0.0006689
700.13834,0.0006977
699.17396,0.0007313
698.20959,0.0007832
697.24521,0.0008126
696.28083,0.0008147
695.31645,0.0008305
694.35207,0.0008341
693.38770,0.0008312
692.42332,0.0008440
691.45894,0.0008486
690.49456,0.0008213
689.53018,0.0007699
688.56581,0.0007371
687.60143,0.0007384
686.63705,0.0007580
685.67267,0.0007615
684.70829,0.0007393
683.74392,0.0007080
682.77954,0.0006947
681.81516,0.0007268
680.85078,0.0007608
679.88641,0.0007746
678.92203,0.0007702
677.95765,0.0007552
676.99327,0.0007743
676.02889,0.0008179
675.06452,0.0007948
674.10014,0.0006805
673.13576,0.0007433
672.17138,0.0010493
671.20700,0.0013768
670.24263,0.0016162
669.27825,0.0017341
668.31387,0.0017837
667.34949,0.0017680
666.38512,0.0016417
665.42074,0.0014374
664.45636,0.0011652
663.49198,0.0008349
662.52760,0.0005758
661.56323,0.0006114
660.59885,0.0007848
659.63447,0.0008385
658.67009,0.0008248
657.70571,0.0008310
656.74134,0.0008991
655.77696,0.0009817
654.81258,0.0010216
653.84820,0.0010317
652.88382,0.0010276
651.91945,0.0010329
650.95507,0.0010319
649.99069,0.0010328
649.02631,0.0010593
648.06194,0.0010736
647.09756,0.0010648
646.13318,0.0010950
645.16880,0.0011608
644.20442,0.0011957
643.24005,0.0012184
642.27567,0.0012338
641.31129,0.0012499
640.34691,0.0012844
639.38253,0.0012963
638.41816,0.0013113
637.45378,0.0013753
636.48940,0.0014731
635.52502,0.0015635
634.56065,0.0016253
633.59627,0.0016542
632.63189,0.0016895
631.66751,0.0018278
630.70313,0.0019768
629.73876,0.0019709
628.77438,0.0018211
627.81000,0.0014936
626.84562,0.0013803
625.88124,0.0018776
624.91687,0.0027818
623.95249,0.0039410
622.98811,0.0048277
622.02373,0.0049791
621.05935,0.0048869
620.09498,0.0048601
619.13060,0.0046328
618.16622,0.0040850
617.20184,0.0033515
616.23747,0.0024148
615.27309,0.0018869
614.30871,0.0021276
613.34433,0.0023745
612.37995,0.0026417
611.41558,0.0029572
610.45120,0.0030143
609.48682,0.0030018
608.52244,0.0029213
607.55806,0.0025182
606.59369,0.0017621
605.62931,0.0009519
604.66493,0.0001651
603.70055,-0.0004260
602.73618,-0.0007278
601.77180,-0.0009843
600.80742,-0.0007550
599.84304,0.0000896
598.87866,0.0008321
597.91429,0.0011320
596.94991,0.0011931
595.98553,0.0010426
595.02115,0.0008192
594.05677,0.0008445
593.09240,0.0009972
592.12802,0.0011552
591.16364,0.0013730
590.19926,0.0015922
589.23488,0.0017176
588.27051,0.0017105
587.30613,0.0015602
586.34175,0.0012698
585.37737,0.0009843
584.41300,0.0008185
583.44862,0.0007561
582.48424,0.0007767
581.51986,0.0008536
580.55548,0.0009957
579.59111,0.0011633
578.62673,0.0012876
577.66235,0.0013008
576.69797,0.0012164
575.73359,0.0011073
574.76922,0.0009006
573.80484,0.0007119
572.84046,0.0006553
571.87608,0.0005428
570.91171,0.0004137
569.94733,0.0004177
568.98295,0.0005504
568.01857,0.0007113
567.05419,0.0007639
566.08982,0.0007368
565.12544,0.0007343
564.16106,0.0007746
563.19668,0.0007740
562.23230,0.0007976
561.26793,0.0009366
560.30355,0.0010014
559.33917,0.0010118
558.37479,0.0010675
557.41041,0.0010692
556.44604,0.0009761
555.48166,0.0007987
554.51728,0.0006638
553.55290,0.0006210
552.58853,0.0006090
551.62415,0.0005835
550.65977,0.0005392
549.69539,0.0005916
548.73101,0.0006752
547.76664,0.0006654
546.80226,0.0005741
545.83788,0.0005058
544.87350,0.0005522
543.90912,0.0006100
542.94475,0.0006627
541.98037,0.0006848
541.01599,0.0006077
540.05161,0.0005068
539.08724,0.0004444
538.12286,0.0004369
537.15848,0.0004424
536.19410,0.0004670
535.22972,0.0005202
534.26535,0.0006378
533.30097,0.0008587
532.33659,0.0010807
531.37221,0.0012374
530.40783,0.0012584
529.44346,0.0011666
528.47908,0.0010732
527.51470,0.0009553
526.55032,0.0007380
525.58594,0.0004674
524.62157,0.0002877
523.65719,0.0001729
522.69281,0.0001239
521.72843,0.0002121
520.76406,0.0003574
519.79968,0.0004732
518.83530,0.0005473
517.87092,0.0006872
516.90654,0.0008628
515.94217,0.0009231
514.97779,0.0008885
514.01341,0.0008162
513.04903,0.0007733
512.08465,0.0007842
511.12028,0.0007848
510.15590,0.0007321
509.19152,0.0006527
508.22714,0.0005960
507.26276,0.0005325
506.29839,0.0004763
505.33401,0.0004805
504.36963,0.0004812
503.40525,0.0004791
502.44088,0.0005365
501.47650,0.0006245
500.51212,0.0007329
499.54774,0.0007893
498.58336,0.0007524
497.61899,0.0007334
496.65461,0.0006791
495.69023,0.0004870
494.72585,0.0002635
493.76147,0.0001322
492.79710,0.0000663
491.83272,0.0000145
490.86834,0.0000089
489.90396,0.0000862
488.93959,0.0002618
487.97521,0.0004517
487.01083,0.0006091
486.04645,0.0007700
485.08207,0.0008208
484.11770,0.0007382
483.15332,0.0006413
482.18894,0.0005522
481.22456,0.0004899
480.26018,0.0004832
479.29581,0.0005100
478.33143,0.0005594
477.36705,0.0006527
476.40267,0.0007369
475.43829,0.0007482
474.47392,0.0007630
473.50954,0.0007982
472.54516,0.0007696
471.58078,0.0007150
470.61641,0.0006571
469.65203,0.0005561
468.68765,0.0004813
467.72327,0.0004431
466.75889,0.0003810
465.79452,0.0003308
464.83014,0.0003052
463.86576,0.0003238
462.90138,0.0004427
461.93700,0.0006047
460.97263,0.0007383
460.00825,0.0008743
459.04387,0.0009746
458.07949,0.0009305
457.11512,0.0008292
456.15074,0.0007898
455.18636,0.0007879
454.22198,0.0007797
453.25760,0.0007347
452.29323,0.0007379
451.32885,0.0007670
450.36447,0.0007033
449.40009,0.0006542
448.43571,0.0007030
447.47134,0.0007502
446.50696,0.0006766
445.54258,0.0005773
444.57820,0.0005705
443.61382,0.0005683
442.64945,0.0005457
441.68507,0.0005524
440.72069,0.0006412
439.75631,0.0007051
438.79194,0.0006610
437.82756,0.0006652
436.86318,0.0007216
435.89880,0.0007222
434.93442,0.0006199
433.97005,0.0005069
433.00567,0.0004337
432.04129,0.0003426
431.07691,0.0003452
430.11253,0.0004476
429.14816,0.0005584
428.18378,0.0006660
427.21940,0.0007853
426.25502,0.0008600
425.29065,0.0008069
424.32627,0.0007614
423.36189,0.0007862
422.39751,0.0008222
421.43313,0.0008444
420.46876,0.0008493
419.50438,0.0008559
418.54000,0.0008316
417.57562,0.0007847
416.61124,0.0007360
415.64687,0.0006948
414.68249,0.0006097
413.71811,0.0005318
412.75373,0.0005947
411.78935,0.0007084
410.82498,0.0008194
409.86060,0.0009145
408.89622,0.0009316
407.93184,0.0008710
406.96747,0.0008101
406.00309,0.0007390
405.03871,0.0005964
404.07433,0.0005964
403.10995,0.0005964
402.14558,0.0005964
401.18120,0.0005964
400.21682,0.0005964
399.25244,0.0005964
