3998.31069,-0.0127928
3997.34631,-0.0127928
3996.38194,-0.0127928
3995.41756,-0.0127928
3994.45318,-0.0127928
3993.48880,-0.0127928
3992.52442,-0.0127928
3991.56005,-0.0127751
3990.59567,-0.0128263
3989.63129,-0.0128658
3988.66691,-0.0128666
3987.70253,-0.0129246
3986.73816,-0.0130506
3985.77378,-0.0131443
3984.80940,-0.0131832
3983.84502,-0.0131216
3982.88065,-0.0130703
3981.91627,-0.0130748
3980.95189,-0.0130762
3979.98751,-0.0131168
3979.02313,-0.0131206
3978.05876,-0.0130412
3977.09438,-0.0129115
3976.13000,-0.0128116
3975.16562,-0.0127389
3974.20124,-0.0126352
3973.23687,-0.0125522
3972.27249,-0.0124742
3971.30811,-0.0124605
3970.34373,-0.0125373
3969.37935,-0.0126115
3968.41498,-0.0126707
3967.45060,-0.0127226
3966.48622,-0.0127831
3965.52184,-0.0128285
3964.55747,-0.0128360
3963.59309,-0.0127769
3962.62871,-0.0126902
3961.66433,-0.0126390
3960.69995,-0.0125600
3959.73558,-0.0124601
3958.77120,-0.0123505
3957.80682,-0.0122576
3956.84244,-0.0122183
3955.87806,-0.0121854
3954.91369,-0.0121894
3953.94931,-0.0122237
3952.98493,-0.0122182
3952.02055,-0.0122030
3951.05618,-0.0122700
3950.09180,-0.0123659
3949.12742,-0.0123974
3948.16304,-0.0123863
3947.19866,-0.0123198
3946.23429,-0.0122559
3945.26991,-0.0122513
3944.30553,-0.0122808
3943.34115,-0.0123348
3942.37677,-0.0123795
3941.41240,-0.0123971
3940.44802,-0.0123926
3939.48364,-0.0124212
3938.51926,-0.0124371
3937.55488,-0.0123743
3936.59051,-0.0123035
3935.62613,-0.0121928
3934.66175,-0.0120341
3933.69737,-0.0119491
3932.73300,-0.0119736
3931.76862,-0.0120222
3930.80424,-0.0120921
3929.83986,-0.0121696
3928.87548,-0.0121693
3927.91111,-0.0121805
3926.94673,-0.0122178
3925.98235,-0.0122371
3925.01797,-0.0122553
3924.05359,-0.0122024
3923.08922,-0.0120980
3922.12484,-0.0119926
3921.16046,-0.0119442
3920.19608,-0.0119744
3919.23171,-0.0119964
3918.26733,-0.0119617
3917.30295,-0.0118793
3916.33857,-0.0118309
3915.37419,-0.0118309
3914.40982,-0.0118499
3913.44544,-0.0118896
3912.48106,-0.0119260
3911.51668,-0.0119816
3910.55230,-0.0119992
3909.58793,-0.0119554
3908.62355,-0.0119288
3907.65917,-0.0118041
3906.69479,-0.0115276
3905.73041,-0.0112790
3904.76604,-0.0111070
3903.80166,-0.0109571
3902.83728,-0.0108977
3901.87290,-0.0109725
3900.90853,-0.0111352
3899.94415,-0.0113816
3898.97977,-0.0116392
3898.01539,-0.0118334
3897.05101,-0.0119432
3896.08664,-0.0118212
3895.12226,-0.0115677
3894.15788,-0.0114270
3893.19350,-0.0113366
3892.22912,-0.0112528
3891.26475,-0.0111749
3890.30037,-0.0110653
3889.33599,-0.0110021
3888.37161,-0.0110663
3887.40724,-0.0112429
3886.44286,-0.0113912
3885.47848,-0.0113421
3884.51410,-0.0111511
3883.54972,-0.0110629
3882.58535,-0.0111061
3881.62097,-0.0112224
3880.65659,-0.0113969
3879.69221,-0.0114574
3878.72783,-0.0114240
3877.76346,-0.0114832
3876.79908,-0.0116892
3875.83470,-0.0118679
3874.87032,-0.0117183
3873.90594,-0.0112982
3872.94157,-0.0108988
3871.97719,-0.0106552
3871.01281,-0.0104969
3870.04843,-0.0103259
3869.08406,-0.0101889
3868.11968,-0.0101555
3867.15530,-0.0102490
3866.19092,-0.0104720
3865.22654,-0.0107595
3864.26217,-0.0109670
3863.29779,-0.0110322
3862.33341,-0.0110690
3861.36903,-0.0112957
3860.40465,-0.0116486
3859.44028,-0.0116624
3858.47590,-0.0112742
3857.51152,-0.0107406
3856.54714,-0.0101937
3855.58276,-0.0097014
3854.61839,-0.0093295
3853.65401,-0.0091494
3852.68963,-0.0092085
3851.72525,-0.0094862
3850.76088,-0.0099127
3849.79650,-0.0105549
3848.83212,-0.0112053
3847.86774,-0.0114922
3846.90336,-0.0115411
3845.93899,-0.0114496
3844.97461,-0.0113558
3844.01023,-0.0113093
3843.04585,-0.0110254
3842.08147,-0.0106309
3841.11710,-0.0103765
3840.15272,-0.0101704
3839.18834,-0.0099314
3838.22396,-0.0097878
3837.25959,-0.0097711
3836.29521,-0.0098387
3835.33083,-0.0099895
3834.36645,-0.0101868
3833.40207,-0.0105066
3832.43770,-0.0107525
3831.47332,-0.0107014
3830.50894,-0.0106921
3829.54456,-0.0108403
3828.58018,-0.0109610
3827.61581,-0.0110590
3826.65143,-0.0110830
3825.68705,-0.0109531
3824.72267,-0.0107668
3823.75829,-0.0106210
3822.79392,-0.0105824
3821.82954,-0.0105570
3820.86516,-0.0103236
3819.90078,-0.0100186
3818.93641,-0.0098710
3817.97203,-0.0098837
3817.00765,-0.0100380
3816.04327,-0.0102274
3815.07889,-0.0103020
3814.11452,-0.0103894
3813.15014,-0.0105870
3812.18576,-0.0107424
3811.22138,-0.0108487
3810.25700,-0.0108367
3809.29263,-0.0106917
3808.32825,-0.0106797
3807.36387,-0.0106921
3806.39949,-0.0104974
3805.43512,-0.0102282
3804.47074,-0.0100630
3803.50636,-0.0100762
3802.54198,-0.0101959
3801.57760,-0.0102360
3800.61323,-0.0101412
3799.64885,-0.0101226
3798.68447,-0.0102820
3797.72009,-0.0105325
3796.75571,-0.0107967
3795.79134,-0.0108759
3794.82696,-0.0107194
3793.86258,-0.0105958
3792.89820,-0.0106238
3791.93382,-0.0107081
3790.96945,-0.0107608
3790.00507,-0.0107533
3789.04069,-0.0107341
3788.07631,-0.0107681
3787.11194,-0.0108582
3786.14756,-0.0109837
3785.18318,-0.0110472
3784.21880,-0.0109667
3783.25442,-0.0108202
3782.29005,-0.0107055
3781.32567,-0.0106394
3780.36129,-0.0105923
3779.39691,-0.0105379
3778.43253,-0.0104506
3777.46816,-0.0104200
3776.50378,-0.0105375
3775.53940,-0.0106720
3774.57502,-0.0107139
3773.61065,-0.0106513
3772.64627,-0.0105533
3771.68189,-0.0104862
3770.71751,-0.0103785
3769.75313,-0.0102639
3768.78876,-0.0101942
3767.82438,-0.0101412
3766.86000,-0.0101796
3765.89562,-0.0103575
3764.93124,-0.0105306
3763.96687,-0.0105757
3763.00249,-0.0105486
3762.03811,-0.0105151
3761.07373,-0.0104681
3760.10935,-0.0103550
3759.14498,-0.0102425
3758.18060,-0.0101598
3757.21622,-0.0099639
3756.25184,-0.0097796
3755.28747,-0.0096391
3754.32309,-0.0093626
3753.35871,-0.0090242
3752.39433,-0.0088399
3751.42995,-0.0089510
3750.46558,-0.0091096
3749.50120,-0.0089516
3748.53682,-0.0086955
3747.57244,-0.0086359
3746.60806,-0.0086067
3745.64369,-0.0085109
3744.67931,-0.0086121
3743.71493,-0.0088290
3742.75055,-0.0090076
3741.78618,-0.0092563
3740.82180,-0.0095585
3739.85742,-0.0098428
3738.89304,-0.0099201
3737.92866,-0.0096408
3736.96429,-0.0092311
3735.99991,-0.0089296
3735.03553,-0.0087939
3734.07115,-0.0088285
3733.10677,-0.0090924
3732.14240,-0.0094733
3731.17802,-0.0097716
3730.21364,-0.0099340
3729.24926,-0.0099613
3728.28488,-0.0099168
3727.32051,-0.0098633
3726.35613,-0.0097572
3725.39175,-0.0095781
3724.42737,-0.0094443
3723.46300,-0.0094369
3722.49862,-0.0095143
3721.53424,-0.0096630
3720.56986,-0.0098324
3719.60548,-0.0099865
3718.64111,-0.0101545
3717.67673,-0.0101626
3716.71235,-0.0099086
3715.74797,-0.0095884
3714.78359,-0.0093429
3713.81922,-0.0091265
3712.85484,-0.0089048
3711.89046,-0.0087741
3710.92608,-0.0087624
3709.96171,-0.0088369
3708.99733,-0.0090442
3708.03295,-0.0093781
3707.06857,-0.0096558
3706.10419,-0.0096787
3705.13982,-0.0096045
3704.17544,-0.0096154
3703.21106,-0.0096241
3702.24668,-0.0096363
3701.28230,-0.0096871
3700.31793,-0.0097274
3699.35355,-0.0097122
3698.38917,-0.0097035
3697.42479,-0.0097675
3696.46041,-0.0097784
3695.49604,-0.0096695
3694.53166,-0.0095176
3693.56728,-0.0093386
3692.60290,-0.0090875
3691.63853,-0.0088596
3690.67415,-0.0087743
3689.70977,-0.0087602
3688.74539,-0.0087947
3687.78101,-0.0089079
3686.81664,-0.0091234
3685.85226,-0.0093844
3684.88788,-0.0095684
3683.92350,-0.0097463
3682.95912,-0.0099533
3681.99475,-0.0100425
3681.03037,-0.0098955
3680.06599,-0.0095976
3679.10161,-0.0093136
3678.13724,-0.0091064
3677.17286,-0.0089998
3676.20848,-0.0089040
3675.24410,-0.0087631
3674.27972,-0.0086373
3673.31535,-0.0085855
3672.35097,-0.0087064
3671.38659,-0.0089641
3670.42221,-0.0091485
3669.45783,-0.0091757
3668.49346,-0.0092375
3667.52908,-0.0094404
3666.56470,-0.0096710
3665.60032,-0.0098430
3664.63594,-0.0098936
3663.67157,-0.0098948
3662.70719,-0.0099406
3661.74281,-0.0099225
3660.77843,-0.0098195
3659.81406,-0.0097038
3658.84968,-0.0096082
3657.88530,-0.0095794
3656.92092,-0.0096148
3655.95654,-0.0096560
3654.99217,-0.0096105
3654.02779,-0.0094399
3653.06341,-0.0092228
3652.09903,-0.0090345
3651.13465,-0.0088710
3650.17028,-0.0087132
3649.20590,-0.0086609
3648.24152,-0.0087604
3647.27714,-0.0089169
3646.31276,-0.0091242
3645.34839,-0.0093720
3644.38401,-0.0095901
3643.41963,-0.0097296
3642.45525,-0.0097324
3641.49088,-0.0096335
3640.52650,-0.0094930
3639.56212,-0.0093789
3638.59774,-0.0093358
3637.63336,-0.0092731
3636.66899,-0.0092233
3635.70461,-0.0092661
3634.74023,-0.0092778
3633.77585,-0.0091214
3632.81147,-0.0088312
3631.84710,-0.0085511
3630.88272,-0.0083342
3629.91834,-0.0082198
3628.95396,-0.0082101
3627.98959,-0.0082196
3627.02521,-0.0082798
3626.06083,-0.0084531
3625.09645,-0.0087297
3624.13207,-0.0089320
3623.16770,-0.0088977
3622.20332,-0.0087200
3621.23894,-0.0085281
3620.27456,-0.0084244
3619.31018,-0.0084379
3618.34581,-0.0085001
3617.38143,-0.0085065
3616.41705,-0.0084902
3615.45267,-0.0085894
3614.48829,-0.0087226
3613.52392,-0.0087639
3612.55954,-0.0086714
3611.59516,-0.0085348
3610.63078,-0.0084937
3609.66641,-0.0085616
3608.70203,-0.0087179
3607.73765,-0.0088620
3606.77327,-0.0089455
3605.80889,-0.0089856
3604.84452,-0.0090540
3603.88014,-0.0091600
3602.91576,-0.0092146
3601.95138,-0.0092862
3600.98700,-0.0092741
3600.02263,-0.0091403
3599.05825,-0.0090515
3598.09387,-0.0089637
3597.12949,-0.0088440
3596.16512,-0.0087600
3595.20074,-0.0087182
3594.23636,-0.0086000
3593.27198,-0.0084554
3592.30760,-0.0083933
3591.34323,-0.0083635
3590.37885,-0.0083898
3589.41447,-0.0083865
3588.45009,-0.0083567
3587.48571,-0.0083903
3586.52134,-0.0084383
3585.55696,-0.0085274
3584.59258,-0.0086833
3583.62820,-0.0088486
3582.66382,-0.0089119
3581.69945,-0.0089315
3580.73507,-0.0089856
3579.77069,-0.0090216
3578.80631,-0.0090624
3577.84194,-0.0090806
3576.87756,-0.0090615
3575.91318,-0.0090256
3574.94880,-0.0090099
3573.98442,-0.0089719
3573.02005,-0.0088158
3572.05567,-0.0086299
3571.09129,-0.0084362
3570.12691,-0.0082640
3569.16253,-0.0081779
3568.19816,-0.0081362
3567.23378,-0.0081457
3566.26940,-0.0082137
3565.30502,-0.0083473
3564.34065,-0.0085380
3563.37627,-0.0087462
3562.41189,-0.0088868
3561.44751,-0.0089194
3560.48313,-0.0089340
3559.51876,-0.0089578
3558.55438,-0.0089712
3557.59000,-0.0089355
3556.62562,-0.0088515
3555.66124,-0.0087785
3554.69687,-0.0087244
3553.73249,-0.0087003
3552.76811,-0.0086623
3551.80373,-0.0085346
3550.83935,-0.0083648
3549.87498,-0.0082633
3548.91060,-0.0082395
3547.94622,-0.0082500
3546.98184,-0.0082919
3546.01747,-0.0083640
3545.05309,-0.0084793
3544.08871,-0.0086137
3543.12433,-0.0087250
3542.15995,-0.0087654
3541.19558,-0.0086840
3540.23120,-0.0085487
3539.26682,-0.0084687
3538.30244,-0.0084896
3537.33806,-0.0085543
3536.37369,-0.0085926
3535.40931,-0.0086498
3534.44493,-0.0087504
3533.48055,-0.0088357
3532.51618,-0.0088764
3531.55180,-0.0088747
3530.58742,-0.0087870
3529.62304,-0.0086356
3528.65866,-0.0085196
3527.69429,-0.0084217
3526.72991,-0.0083236
3525.76553,-0.0082608
3524.80115,-0.0082127
3523.83677,-0.0081840
3522.87240,-0.0081921
3521.90802,-0.0082287
3520.94364,-0.0083112
3519.97926,-0.0084424
3519.01488,-0.0085686
3518.05051,-0.0086399
3517.08613,-0.0086510
3516.12175,-0.0086184
3515.15737,-0.0085757
3514.19300,-0.0085061
3513.22862,-0.0083795
3512.26424,-0.0082646
3511.29986,-0.0082012
3510.33548,-0.0081698
3509.37111,-0.0081780
3508.40673,-0.0081814
3507.44235,-0.0081373
3506.47797,-0.0081011
3505.51359,-0.0081062
3504.54922,-0.0081311
3503.58484,-0.0081494
3502.62046,-0.0081080
3501.65608,-0.0080393
3500.69171,-0.0080479
3499.72733,-0.0081149
3498.76295,-0.0081645
3497.79857,-0.0081857
3496.83419,-0.0081932
3495.86982,-0.0082066
3494.90544,-0.0082694
3493.94106,-0.0083682
3492.97668,-0.0084325
3492.01230,-0.0084575
3491.04793,-0.0084188
3490.08355,-0.0083049
3489.11917,-0.0081953
3488.15479,-0.0080973
3487.19041,-0.0079850
3486.22604,-0.0079070
3485.26166,-0.0079041
3484.29728,-0.0079627
3483.33290,-0.0080833
3482.36853,-0.0082370
3481.40415,-0.0083604
3480.43977,-0.0084340
3479.47539,-0.0084025
3478.51101,-0.0082878
3477.54664,-0.0081985
3476.58226,-0.0081303
3475.61788,-0.0080672
3474.65350,-0.0080182
3473.68912,-0.0079780
3472.72475,-0.0079871
3471.76037,-0.0080471
3470.79599,-0.0080785
3469.83161,-0.0080831
3468.86724,-0.0080848
3467.90286,-0.0080298
3466.93848,-0.0079547
3465.97410,-0.0079133
3465.00972,-0.0079075
3464.04535,-0.0079271
3463.08097,-0.0079118
3462.11659,-0.0078521
3461.15221,-0.0078020
3460.18783,-0.0077838
3459.22346,-0.0077667
3458.25908,-0.0077608
3457.29470,-0.0077631
3456.33032,-0.0077198
3455.36594,-0.0076686
3454.40157,-0.0076468
3453.43719,-0.0076762
3452.47281,-0.0077403
3451.50843,-0.0077509
3450.54406,-0.0077457
3449.57968,-0.0077879
3448.61530,-0.0078372
3447.65092,-0.0078750
3446.68654,-0.0079088
3445.72217,-0.0079156
3444.75779,-0.0079037
3443.79341,-0.0078741
3442.82903,-0.0077901
3441.86465,-0.0077012
3440.90028,-0.0076479
3439.93590,-0.0076237
3438.97152,-0.0076546
3438.00714,-0.0076727
3437.04276,-0.0076325
3436.07839,-0.0076169
3435.11401,-0.0076207
3434.14963,-0.0076345
3433.18525,-0.0076739
3432.22088,-0.0076590
3431.25650,-0.0076219
3430.29212,-0.0076306
3429.32774,-0.0076664
3428.36336,-0.0077340
3427.39899,-0.0077888
3426.43461,-0.0077846
3425.47023,-0.0077282
3424.50585,-0.0076355
3423.54147,-0.0075442
3422.57710,-0.0075084
3421.61272,-0.0075217
3420.64834,-0.0075415
3419.68396,-0.0075860
3418.71959,-0.0076478
3417.75521,-0.0077181
3416.79083,-0.0077603
3415.82645,-0.0077557
3414.86207,-0.0077933
3413.89770,-0.0078351
3412.93332,-0.0078224
3411.96894,-0.0077764
3411.00456,-0.0077072
3410.04018,-0.0076567
3409.07581,-0.0076041
3408.11143,-0.0075005
3407.14705,-0.0073849
3406.18267,-0.0073149
3405.21829,-0.0072525
3404.25392,-0.0072088
3403.28954,-0.0072780
3402.32516,-0.0074117
3401.36078,-0.0075048
3400.39641,-0.0075454
3399.43203,-0.0075834
3398.46765,-0.0076216
3397.50327,-0.0076276
3396.53889,-0.0075955
3395.57452,-0.0075382
3394.61014,-0.0074931
3393.64576,-0.0074218
3392.68138,-0.0073366
3391.71700,-0.0073237
3390.75263,-0.0073268
3389.78825,-0.0072803
3388.82387,-0.0072373
3387.85949,-0.0072311
3386.89512,-0.0072149
3385.93074,-0.0072017
3384.96636,-0.0071978
3384.00198,-0.0071474
3383.03760,-0.0070692
3382.07323,-0.0069910
3381.10885,-0.0069593
3380.14447,-0.0069798
3379.18009,-0.0069761
3378.21571,-0.0069694
3377.25134,-0.0070144
3376.28696,-0.0070944
3375.32258,-0.0071731
3374.35820,-0.0072400
3373.39382,-0.0072596
3372.42945,-0.0072188
3371.46507,-0.0071986
3370.50069,-0.0072125
3369.53631,-0.0072025
3368.57194,-0.0071398
3367.60756,-0.0070502
3366.64318,-0.0070061
3365.67880,-0.0070041
3364.71442,-0.0069799
3363.75005,-0.0069332
3362.78567,-0.0069101
3361.82129,-0.0068905
3360.85691,-0.0068741
3359.89253,-0.0069231
3358.92816,-0.0069875
3357.96378,-0.0070014
3356.99940,-0.0069518
3356.03502,-0.0068774
3355.07065,-0.0068591
3354.10627,-0.0068468
3353.14189,-0.0068124
3352.17751,-0.0068233
3351.21313,-0.0068785
3350.24876,-0.0069138
3349.28438,-0.0069178
3348.32000,-0.0069609
3347.35562,-0.0070056
3346.39124,-0.0069965
3345.42687,-0.0069424
3344.46249,-0.0068567
3343.49811,-0.0067939
3342.53373,-0.0067386
3341.56935,-0.0066824
3340.60498,-0.0066341
3339.64060,-0.0065713
3338.67622,-0.0065054
3337.71184,-0.0064861
3336.74747,-0.0065616
3335.78309,-0.0066406
3334.81871,-0.0066788
3333.85433,-0.0067189
3332.88995,-0.0067474
3331.92558,-0.0067869
3330.96120,-0.0068270
3329.99682,-0.0068325
3329.03244,-0.0067934
3328.06806,-0.0067170
3327.10369,-0.0066429
3326.13931,-0.0066308
3325.17493,-0.0066645
3324.21055,-0.0066675
3323.24618,-0.0066684
3322.28180,-0.0066549
3321.31742,-0.0066121
3320.35304,-0.0065921
3319.38866,-0.0065736
3318.42429,-0.0065495
3317.45991,-0.0065315
3316.49553,-0.0065235
3315.53115,-0.0065247
3314.56677,-0.0065453
3313.60240,-0.0065668
3312.63802,-0.0065914
3311.67364,-0.0066577
3310.70926,-0.0066894
3309.74488,-0.0066785
3308.78051,-0.0066797
3307.81613,-0.0066747
3306.85175,-0.0066475
3305.88737,-0.0066051
3304.92300,-0.0065478
3303.95862,-0.0064462
3302.99424,-0.0063559
3302.02986,-0.0062973
3301.06548,-0.0062556
3300.10111,-0.0062535
3299.13673,-0.0062625
3298.17235,-0.0063015
3297.20797,-0.0063504
3296.24359,-0.0063725
3295.27922,-0.0063754
3294.31484,-0.0063734
3293.35046,-0.0063595
3292.38608,-0.0062932
3291.42171,-0.0062247
3290.45733,-0.0061605
3289.49295,-0.0061122
3288.52857,-0.0061196
3287.56419,-0.0061463
3286.59982,-0.0062028
3285.63544,-0.0062410
3284.67106,-0.0062308
3283.70668,-0.0062277
3282.74230,-0.0062422
3281.77793,-0.0062275
3280.81355,-0.0061480
3279.84917,-0.0060811
3278.88479,-0.0060634
3277.92041,-0.0060826
3276.95604,-0.0061220
3275.99166,-0.0061253
3275.02728,-0.0061343
3274.06290,-0.0061669
3273.09853,-0.0061920
3272.13415,-0.0062458
3271.16977,-0.0062828
3270.20539,-0.0062344
3269.24101,-0.0061674
3268.27664,-0.0061551
3267.31226,-0.0061390
3266.34788,-0.0060643
3265.38350,-0.0059895
3264.41912,-0.0059277
3263.45475,-0.0058946
3262.49037,-0.0059362
3261.52599,-0.0060168
3260.56161,-0.0061084
3259.59724,-0.0061613
3258.63286,-0.0061879
3257.66848,-0.0062396
3256.70410,-0.0062544
3255.73972,-0.0062113
3254.77535,-0.0061379
3253.81097,-0.0060662
3252.84659,-0.0059914
3251.88221,-0.0059229
3250.91783,-0.0058971
3249.95346,-0.0058744
3248.98908,-0.0058477
3248.02470,-0.0058158
3247.06032,-0.0058046
3246.09594,-0.0058173
3245.13157,-0.0058072
3244.16719,-0.0058040
3243.20281,-0.0058103
3242.23843,-0.0058190
3241.27406,-0.0058181
3240.30968,-0.0058289
3239.34530,-0.0058537
3238.38092,-0.0058137
3237.41654,-0.0057502
3236.45217,-0.0057062
3235.48779,-0.0056803
3234.52341,-0.0056910
3233.55903,-0.0056999
3232.59465,-0.0056938
3231.63028,-0.0057063
3230.66590,-0.0057055
3229.70152,-0.0056662
3228.73714,-0.0056521
3227.77276,-0.0056411
3226.80839,-0.0056215
3225.84401,-0.0056131
3224.87963,-0.0055499
3223.91525,-0.0054655
3222.95088,-0.0054376
3221.98650,-0.0054495
3221.02212,-0.0054798
3220.05774,-0.0055437
3219.09336,-0.0055939
3218.12899,-0.0056264
3217.16461,-0.0056770
3216.20023,-0.0057074
3215.23585,-0.0057644
3214.27147,-0.0057965
3213.30710,-0.0057494
3212.34272,-0.0057258
3211.37834,-0.0057158
3210.41396,-0.0057176
3209.44959,-0.0057481
3208.48521,-0.0057640
3207.52083,-0.0057310
3206.55645,-0.0056589
3205.59207,-0.0055729
3204.62770,-0.0054727
3203.66332,-0.0054142
3202.69894,-0.0054153
3201.73456,-0.0054515
3200.77018,-0.0054724
3199.80581,-0.0054613
3198.84143,-0.0055007
3197.87705,-0.0055650
3196.91267,-0.0056107
3195.94829,-0.0056687
3194.98392,-0.0057171
3194.01954,-0.0057072
3193.05516,-0.0056671
3192.09078,-0.0056545
3191.12641,-0.0056570
3190.16203,-0.0056480
3189.19765,-0.0056011
3188.23327,-0.0055427
3187.26889,-0.0054914
3186.30452,-0.0054307
3185.34014,-0.0054228
3184.37576,-0.0054545
3183.41138,-0.0054297
3182.44700,-0.0053672
3181.48263,-0.0053540
3180.51825,-0.0053618
3179.55387,-0.0053405
3178.58949,-0.0053250
3177.62512,-0.0053187
3176.66074,-0.0053259
3175.69636,-0.0053394
3174.73198,-0.0053618
3173.76760,-0.0054331
3172.80323,-0.0055069
3171.83885,-0.0055522
3170.87447,-0.0056261
3169.91009,-0.0057217
3168.94571,-0.0057536
3167.98134,-0.0057019
3167.01696,-0.0055948
3166.05258,-0.0054770
3165.08820,-0.0053928
3164.12382,-0.0052995
3163.15945,-0.0052084
3162.19507,-0.0051726
3161.23069,-0.0051792
3160.26631,-0.0052406
3159.30194,-0.0053221
3158.33756,-0.0053539
3157.37318,-0.0053493
3156.40880,-0.0053393
3155.44442,-0.0053216
3154.48005,-0.0052876
3153.51567,-0.0052582
3152.55129,-0.0052659
3151.58691,-0.0053067
3150.62253,-0.0053574
3149.65816,-0.0054114
3148.69378,-0.0054626
3147.72940,-0.0054617
3146.76502,-0.0053734
3145.80065,-0.0052532
3144.83627,-0.0051468
3143.87189,-0.0050395
3142.90751,-0.0049371
3141.94313,-0.0048961
3140.97876,-0.0049396
3140.01438,-0.0050132
3139.05000,-0.0050936
3138.08562,-0.0051649
3137.12124,-0.0052238
3136.15687,-0.0052926
3135.19249,-0.0053074
3134.22811,-0.0052682
3133.26373,-0.0052467
3132.29935,-0.0052358
3131.33498,-0.0052313
3130.37060,-0.0052409
3129.40622,-0.0052470
3128.44184,-0.0052401
3127.47747,-0.0052310
3126.51309,-0.0051820
3125.54871,-0.0050979
3124.58433,-0.0050646
3123.61995,-0.0050457
3122.65558,-0.0050176
3121.69120,-0.0050315
3120.72682,-0.0050654
3119.76244,-0.0051055
3118.79806,-0.0051388
3117.83369,-0.0051475
3116.86931,-0.0051533
3115.90493,-0.0051549
3114.94055,-0.0051038
3113.97618,-0.0050417
3113.01180,-0.0050540
3112.04742,-0.0050760
3111.08304,-0.0050750
3110.11866,-0.0050902
3109.15429,-0.0051003
3108.18991,-0.0050918
3107.22553,-0.0050567
3106.26115,-0.0050138
3105.29677,-0.0049773
3104.33240,-0.0049378
3103.36802,-0.0049122
3102.40364,-0.0049353
3101.43926,-0.0050033
3100.47488,-0.0050515
3099.51051,-0.0050621
3098.54613,-0.0050411
3097.58175,-0.0050051
3096.61737,-0.0049732
3095.65300,-0.0049495
3094.68862,-0.0049602
3093.72424,-0.0049659
3092.75986,-0.0049583
3091.79548,-0.0049685
3090.83111,-0.0049970
3089.86673,-0.0050626
3088.90235,-0.0051224
3087.93797,-0.0051254
3086.97359,-0.0050878
3086.00922,-0.0050728
3085.04484,-0.0050764
3084.08046,-0.0050531
3083.11608,-0.0050276
3082.15171,-0.0049814
3081.18733,-0.0049173
3080.22295,-0.0048493
3079.25857,-0.0047953
3078.29419,-0.0048255
3077.32982,-0.0048917
3076.36544,-0.0049566
3075.40106,-0.0050325
3074.43668,-0.0050623
3073.47230,-0.0050112
3072.50793,-0.0049120
3071.54355,-0.0048585
3070.57917,-0.0048561
3069.61479,-0.0048097
3068.65041,-0.0047145
3067.68604,-0.0046526
3066.72166,-0.0046719
3065.75728,-0.0047309
3064.79290,-0.0048038
3063.82853,-0.0048634
3062.86415,-0.0048568
3061.89977,-0.0048434
3060.93539,-0.0048706
3059.97101,-0.0049049
3059.00664,-0.0048957
3058.04226,-0.0047993
3057.07788,-0.0046908
3056.11350,-0.0046249
3055.14912,-0.0045828
3054.18475,-0.0045663
3053.22037,-0.0045554
3052.25599,-0.0045674
3051.29161,-0.0046154
3050.32724,-0.0046829
3049.36286,-0.0047421
3048.39848,-0.0047662
3047.43410,-0.0047787
3046.46972,-0.0047785
3045.50535,-0.0047868
3044.54097,-0.0048017
3043.57659,-0.0047821
3042.61221,-0.0047516
3041.64783,-0.0047179
3040.68346,-0.0046982
3039.71908,-0.0046902
3038.75470,-0.0046608
3037.79032,-0.0046200
3036.82594,-0.0045800
3035.86157,-0.0045577
3034.89719,-0.0045314
3033.93281,-0.0044824
3032.96843,-0.0044369
3032.00406,-0.0043985
3031.03968,-0.0043855
3030.07530,-0.0044207
3029.11092,-0.0045051
3028.14654,-0.0046101
3027.18217,-0.0046765
3026.21779,-0.0046988
3025.25341,-0.0046905
3024.28903,-0.0046490
3023.32465,-0.0045890
3022.36028,-0.0045014
3021.39590,-0.0044091
3020.43152,-0.0043588
3019.46714,-0.0043555
3018.50276,-0.0044087
3017.53839,-0.0044952
3016.57401,-0.0045736
3015.60963,-0.0046219
3014.64525,-0.0046193
3013.68088,-0.0045611
3012.71650,-0.0044785
3011.75212,-0.0044288
3010.78774,-0.0043914
3009.82336,-0.0043450
3008.85899,-0.0043325
3007.89461,-0.0043613
3006.93023,-0.0044156
3005.96585,-0.0044528
3005.00147,-0.0044698
3004.03710,-0.0044809
3003.07272,-0.0044463
3002.10834,-0.0043833
3001.14396,-0.0043403
3000.17959,-0.0043265
2999.21521,-0.0043260
2998.25083,-0.0043195
2997.28645,-0.0043241
2996.32207,-0.0043650
2995.35770,-0.0044082
2994.39332,-0.0044051
2993.42894,-0.0043714
2992.46456,-0.0043187
2991.50018,-0.0042396
2990.53581,-0.0041634
2989.57143,-0.0041263
2988.60705,-0.0041216
2987.64267,-0.0041215
2986.67829,-0.0041305
2985.71392,-0.0041593
2984.74954,-0.0042102
2983.78516,-0.0042421
2982.82078,-0.0042098
2981.85641,-0.0041512
2980.89203,-0.0040984
2979.92765,-0.0040497
2978.96327,-0.0040106
2977.99889,-0.0039926
2977.03452,-0.0039761
2976.07014,-0.0039377
2975.10576,-0.0039117
2974.14138,-0.0038969
2973.17700,-0.0038726
2972.21263,-0.0038348
2971.24825,-0.0037859
2970.28387,-0.0037661
2969.31949,-0.0037754
2968.35512,-0.0037923
2967.39074,-0.0037951
2966.42636,-0.0037568
2965.46198,-0.0036810
2964.49760,-0.0035876
2963.53323,-0.0035046
2962.56885,-0.0034265
2961.60447,-0.0033602
2960.64009,-0.0033134
2959.67571,-0.0032694
2958.71134,-0.0032489
2957.74696,-0.0032462
2956.78258,-0.0032484
2955.81820,-0.0032468
2954.85382,-0.0032312
2953.88945,-0.0032152
2952.92507,-0.0031996
2951.96069,-0.0031920
2950.99631,-0.0031986
2950.03194,-0.0032277
2949.06756,-0.0032515
2948.10318,-0.0032491
2947.13880,-0.0032642
2946.17442,-0.0032824
2945.21005,-0.0032764
2944.24567,-0.0032495
2943.28129,-0.0031978
2942.31691,-0.0031090
2941.35253,-0.0029927
2940.38816,-0.0028979
2939.42378,-0.0028123
2938.45940,-0.0027253
2937.49502,-0.0026430
2936.53065,-0.0025438
2935.56627,-0.0024419
2934.60189,-0.0023402
2933.63751,-0.0022232
2932.67313,-0.0020683
2931.70876,-0.0018816
2930.74438,-0.0017124
2929.78000,-0.0016014
2928.81562,-0.0015428
2927.85124,-0.0014936
2926.88687,-0.0014713
2925.92249,-0.0014839
2924.95811,-0.0014850
2923.99373,-0.0014877
2923.02935,-0.0015416
2922.06498,-0.0016166
2921.10060,-0.0016402
2920.13622,-0.0016668
2919.17184,-0.0017561
2918.20747,-0.0018605
2917.24309,-0.0019552
2916.27871,-0.0020397
2915.31433,-0.0021364
2914.34995,-0.0022623
2913.38558,-0.0023759
2912.42120,-0.0024602
2911.45682,-0.0025336
2910.49244,-0.0025738
2909.52806,-0.0025856
2908.56369,-0.0026278
2907.59931,-0.0026940
2906.63493,-0.0027566
2905.67055,-0.0028258
2904.70618,-0.0028893
2903.74180,-0.0029433
2902.77742,-0.0030152
2901.81304,-0.0030826
2900.84866,-0.0030951
2899.88429,-0.0030595
2898.91991,-0.0030046
2897.95553,-0.0029580
2896.99115,-0.0029431
2896.02677,-0.0029621
2895.06240,-0.0030097
2894.09802,-0.0030724
2893.13364,-0.0031277
2892.16926,-0.0031720
2891.20488,-0.0032370
2890.24051,-0.0032972
2889.27613,-0.0033017
2888.31175,-0.0032817
2887.34737,-0.0032663
2886.38300,-0.0032572
2885.41862,-0.0032696
2884.45424,-0.0033066
2883.48986,-0.0033479
2882.52548,-0.0033842
2881.56111,-0.0034177
2880.59673,-0.0034443
2879.63235,-0.0034479
2878.66797,-0.0033968
2877.70359,-0.0033328
2876.73922,-0.0033008
2875.77484,-0.0032608
2874.81046,-0.0032164
2873.84608,-0.0032056
2872.88171,-0.0032213
2871.91733,-0.0032309
2870.95295,-0.0032209
2869.98857,-0.0031922
2869.02419,-0.0031508
2868.05982,-0.0030977
2867.09544,-0.0030341
2866.13106,-0.0029881
2865.16668,-0.0029311
2864.20230,-0.0028443
2863.23793,-0.0027907
2862.27355,-0.0027677
2861.30917,-0.0027290
2860.34479,-0.0026685
2859.38041,-0.0025914
2858.41604,-0.0024943
2857.45166,-0.0023879
2856.48728,-0.0022967
2855.52290,-0.0022334
2854.55853,-0.0021995
2853.59415,-0.0021837
2852.62977,-0.0022011
2851.66539,-0.0022684
2850.70101,-0.0023549
2849.73664,-0.0024443
2848.77226,-0.0025538
2847.80788,-0.0026933
2846.84350,-0.0028284
2845.87912,-0.0029174
2844.91475,-0.0029897
2843.95037,-0.0030780
2842.98599,-0.0031510
2842.02161,-0.0031933
2841.05724,-0.0032167
2840.09286,-0.0032337
2839.12848,-0.0032586
2838.16410,-0.0032883
2837.19972,-0.0033314
2836.23535,-0.0033840
2835.27097,-0.0034204
2834.30659,-0.0034275
2833.34221,-0.0034165
2832.37783,-0.0034191
2831.41346,-0.0034275
2830.44908,-0.0034224
2829.48470,-0.0034068
2828.52032,-0.0034052
2827.55594,-0.0034288
2826.59157,-0.0034402
2825.62719,-0.0034430
2824.66281,-0.0034440
2823.69843,-0.0034342
2822.73406,-0.0034280
2821.76968,-0.0034386
2820.80530,-0.0034903
2819.84092,-0.0035496
2818.87654,-0.0035679
2817.91217,-0.0035699
2816.94779,-0.0035770
2815.98341,-0.0035662
2815.01903,-0.0035299
2814.05465,-0.0034955
2813.09028,-0.0034618
2812.12590,-0.0034422
2811.16152,-0.0034586
2810.19714,-0.0034815
2809.23276,-0.0034922
2808.26839,-0.0034855
2807.30401,-0.0034800
2806.33963,-0.0035037
2805.37525,-0.0035339
2804.41088,-0.0035436
2803.44650,-0.0035427
2802.48212,-0.0035465
2801.51774,-0.0035473
2800.55336,-0.0035617
2799.58899,-0.0035801
2798.62461,-0.0035474
2797.66023,-0.0034971
2796.69585,-0.0034811
2795.73147,-0.0034959
2794.76710,-0.0035351
2793.80272,-0.0035753
2792.83834,-0.0036030
2791.87396,-0.0036110
2790.90959,-0.0035967
2789.94521,-0.0035739
2788.98083,-0.0035503
2788.01645,-0.0035182
2787.05207,-0.0034698
2786.08770,-0.0034506
2785.12332,-0.0034736
2784.15894,-0.0034973
2783.19456,-0.0035237
2782.23018,-0.0035440
2781.26581,-0.0035490
2780.30143,-0.0035422
2779.33705,-0.0035175
2778.37267,-0.0034951
2777.40829,-0.0034846
2776.44392,-0.0034710
2775.47954,-0.0034688
2774.51516,-0.0035060
2773.55078,-0.0035492
2772.58641,-0.0035690
2771.62203,-0.0035780
2770.65765,-0.0035696
2769.69327,-0.0035462
2768.72889,-0.0035174
2767.76452,-0.0034947
2766.80014,-0.0034821
2765.83576,-0.0034594
2764.87138,-0.0034226
2763.90700,-0.0034027
2762.94263,-0.0034063
2761.97825,-0.0034000
2761.01387,-0.0034098
2760.04949,-0.0034423
2759.08512,-0.0034585
2758.12074,-0.0034679
2757.15636,-0.0034720
2756.19198,-0.0034741
2755.22760,-0.0034619
2754.26323,-0.0034265
2753.29885,-0.0033992
2752.33447,-0.0033878
2751.37009,-0.0033852
2750.40571,-0.0033827
2749.44134,-0.0033930
2748.47696,-0.0034084
2747.51258,-0.0034117
2746.54820,-0.0034290
2745.58382,-0.0034495
2744.61945,-0.0034528
2743.65507,-0.0034537
2742.69069,-0.0034579
2741.72631,-0.0034484
2740.76194,-0.0034222
2739.79756,-0.0033840
2738.83318,-0.0033273
2737.86880,-0.0032776
2736.90442,-0.0032604
2735.94005,-0.0032723
2734.97567,-0.0032992
2734.01129,-0.0033235
2733.04691,-0.0033444
2732.08253,-0.0033686
2731.11816,-0.0033916
2730.15378,-0.0033991
2729.18940,-0.0033906
2728.22502,-0.0033663
2727.26065,-0.0033280
2726.29627,-0.0033044
2725.33189,-0.0033048
2724.36751,-0.0033027
2723.40313,-0.0032980
2722.43876,-0.0033107
2721.47438,-0.0033290
2720.51000,-0.0033415
2719.54562,-0.0033578
2718.58124,-0.0033704
2717.61687,-0.0033653
2716.65249,-0.0033480
2715.68811,-0.0033190
2714.72373,-0.0032774
2713.75935,-0.0032414
2712.79498,-0.0032096
2711.83060,-0.0031870
2710.86622,-0.0031852
2709.90184,-0.0031903
2708.93747,-0.0031979
2707.97309,-0.0032116
2707.00871,-0.0032423
2706.04433,-0.0032717
2705.07995,-0.0032843
2704.11558,-0.0032878
2703.15120,-0.0032817
2702.18682,-0.0032890
2701.22244,-0.0032924
2700.25806,-0.0032812
2699.29369,-0.0032778
2698.32931,-0.0032722
2697.36493,-0.0032524
2696.40055,-0.0032208
2695.43618,-0.0032156
2694.47180,-0.0032284
2693.50742,-0.0032321
2692.54304,-0.0032370
2691.57866,-0.0032282
2690.61429,-0.0032172
2689.64991,-0.0032038
2688.68553,-0.0031792
2687.72115,-0.0031492
2686.75677,-0.0031171
2685.79240,-0.0031039
2684.82802,-0.0031045
2683.86364,-0.0031293
2682.89926,-0.0031708
2681.93488,-0.0031944
2680.97051,-0.0031989
2680.00613,-0.0031789
2679.04175,-0.0031512
2678.07737,-0.0031267
2677.11300,-0.0030963
2676.14862,-0.0030626
2675.18424,-0.0030406
2674.21986,-0.0030474
2673.25548,-0.0030584
2672.29111,-0.0030730
2671.32673,-0.0031015
2670.36235,-0.0031204
2669.39797,-0.0031458
2668.43359,-0.0031842
2667.46922,-0.0032020
2666.50484,-0.0031971
2665.54046,-0.0031913
2664.57608,-0.0031828
2663.61171,-0.0031674
2662.64733,-0.0031615
2661.68295,-0.0031571
2660.71857,-0.0031453
2659.75419,-0.0031335
2658.78982,-0.0031185
2657.82544,-0.0031143
2656.86106,-0.0031107
2655.89668,-0.0030835
2654.93230,-0.0030590
2653.96793,-0.0030478
2653.00355,-0.0030369
2652.03917,-0.0030354
2651.07479,-0.0030546
2650.11041,-0.0030916
2649.14604,-0.0031378
2648.18166,-0.0031743
2647.21728,-0.0031748
2646.25290,-0.0031439
2645.28853,-0.0030960
2644.32415,-0.0030309
2643.35977,-0.0029546
2642.39539,-0.0028825
2641.43101,-0.0028456
2640.46664,-0.0028589
2639.50226,-0.0029030
2638.53788,-0.0029559
2637.57350,-0.0030066
2636.60912,-0.0030383
2635.64475,-0.0030368
2634.68037,-0.0030195
2633.71599,-0.0029958
2632.75161,-0.0029506
2631.78724,-0.0028813
2630.82286,-0.0028212
2629.85848,-0.0027983
2628.89410,-0.0027885
2627.92972,-0.0027706
2626.96535,-0.0027351
2626.00097,-0.0026931
2625.03659,-0.0026818
2624.07221,-0.0026938
2623.10783,-0.0027250
2622.14346,-0.0027933
2621.17908,-0.0028721
2620.21470,-0.0029258
2619.25032,-0.0029682
2618.28594,-0.0030276
2617.32157,-0.0030807
2616.35719,-0.0030856
2615.39281,-0.0030421
2614.42843,-0.0029834
2613.46406,-0.0029364
2612.49968,-0.0029154
2611.53530,-0.0029342
2610.57092,-0.0029989
2609.60654,-0.0030821
2608.64217,-0.0031231
2607.67779,-0.0031248
2606.71341,-0.0031490
2605.74903,-0.0031931
2604.78465,-0.0031744
2603.82028,-0.0030714
2602.85590,-0.0029707
2601.89152,-0.0029069
2600.92714,-0.0028940
2599.96276,-0.0029253
2598.99839,-0.0029525
2598.03401,-0.0029909
2597.06963,-0.0030048
2596.10525,-0.0029840
2595.14088,-0.0029901
2594.17650,-0.0030078
2593.21212,-0.0029794
2592.24774,-0.0028999
2591.28336,-0.0028564
2590.31899,-0.0028792
2589.35461,-0.0029312
2588.39023,-0.0029567
2587.42585,-0.0029360
2586.46147,-0.0029183
2585.49710,-0.0028646
2584.53272,-0.0027904
2583.56834,-0.0027548
2582.60396,-0.0027836
2581.63959,-0.0028530
2580.67521,-0.0028594
2579.71083,-0.0028767
2578.74645,-0.0029336
2577.78207,-0.0029308
2576.81770,-0.0028794
2575.85332,-0.0028096
2574.88894,-0.0027548
2573.92456,-0.0027286
2572.96018,-0.0027359
2571.99581,-0.0027610
2571.03143,-0.0027813
2570.06705,-0.0027508
2569.10267,-0.0026737
2568.13829,-0.0027009
2567.17392,-0.0027825
2566.20954,-0.0027840
2565.24516,-0.0027431
2564.28078,-0.0027130
2563.31641,-0.0027217
2562.35203,-0.0027246
2561.38765,-0.0027047
2560.42327,-0.0026779
2559.45889,-0.0026269
2558.49452,-0.0025658
2557.53014,-0.0025575
2556.56576,-0.0026522
2555.60138,-0.0027411
2554.63700,-0.0027463
2553.67263,-0.0027572
2552.70825,-0.0028071
2551.74387,-0.0028237
2550.77949,-0.0027790
2549.81512,-0.0027515
2548.85074,-0.0027314
2547.88636,-0.0026620
2546.92198,-0.0026022
2545.95760,-0.0025839
2544.99323,-0.0026030
2544.02885,-0.0026339
2543.06447,-0.0026585
2542.10009,-0.0027242
2541.13571,-0.0027844
2540.17134,-0.0027677
2539.20696,-0.0027167
2538.24258,-0.0026742
2537.27820,-0.0026405
2536.31382,-0.0026461
2535.34945,-0.0027077
2534.38507,-0.0027513
2533.42069,-0.0027524
2532.45631,-0.0027521
2531.49194,-0.0027463
2530.52756,-0.0027495
2529.56318,-0.0027652
2528.59880,-0.0027490
2527.63442,-0.0027100
2526.67005,-0.0026829
2525.70567,-0.0026703
2524.74129,-0.0026835
2523.77691,-0.0026879
2522.81253,-0.0026401
2521.84816,-0.0025574
2520.88378,-0.0024840
2519.91940,-0.0024561
2518.95502,-0.0024305
2517.99065,-0.0024082
2517.02627,-0.0024125
2516.06189,-0.0024231
2515.09751,-0.0024503
2514.13313,-0.0024697
2513.16876,-0.0025307
2512.20438,-0.0026075
2511.24000,-0.0026016
2510.27562,-0.0025788
2509.31124,-0.0025795
2508.34687,-0.0025727
2507.38249,-0.0025289
2506.41811,-0.0025060
2505.45373,-0.0025122
2504.48935,-0.0024812
2503.52498,-0.0024580
2502.56060,-0.0024719
2501.59622,-0.0025367
2500.63184,-0.0025872
2499.66747,-0.0026193
2498.70309,-0.0026953
2497.73871,-0.0027473
2496.77433,-0.0027897
2495.80995,-0.0028233
2494.84558,-0.0028215
2493.88120,-0.0027562
2492.91682,-0.0026353
2491.95244,-0.0025586
2490.98806,-0.0024937
2490.02369,-0.0024318
2489.05931,-0.0024070
2488.09493,-0.0024212
2487.13055,-0.0024495
2486.16618,-0.0024475
2485.20180,-0.0024511
2484.23742,-0.0024335
2483.27304,-0.0023993
2482.30866,-0.0023844
2481.34429,-0.0023895
2480.37991,-0.0024347
2479.41553,-0.0024809
2478.45115,-0.0025596
2477.48677,-0.0026659
2476.52240,-0.0027341
2475.55802,-0.0027689
2474.59364,-0.0027478
2473.62926,-0.0027080
2472.66488,-0.0026803
2471.70051,-0.0026302
2470.73613,-0.0025813
2469.77175,-0.0025610
2468.80737,-0.0025726
2467.84300,-0.0025889
2466.87862,-0.0025839
2465.91424,-0.0025810
2464.94986,-0.0026071
2463.98548,-0.0026624
2463.02111,-0.0027177
2462.05673,-0.0027612
2461.09235,-0.0027756
2460.12797,-0.0027446
2459.16359,-0.0026954
2458.19922,-0.0026198
2457.23484,-0.0025232
2456.27046,-0.0024256
2455.30608,-0.0023453
2454.34171,-0.0023551
2453.37733,-0.0024352
2452.41295,-0.0024755
2451.44857,-0.0024625
2450.48419,-0.0024583
2449.51982,-0.0024584
2448.55544,-0.0024355
2447.59106,-0.0024058
2446.62668,-0.0023738
2445.66230,-0.0023405
2444.69793,-0.0023032
2443.73355,-0.0022849
2442.76917,-0.0023096
2441.80479,-0.0023527
2440.84041,-0.0023886
2439.87604,-0.0024237
2438.91166,-0.0024747
2437.94728,-0.0025061
2436.98290,-0.0025038
2436.01853,-0.0025125
2435.05415,-0.0025245
2434.08977,-0.0024869
2433.12539,-0.0024191
2432.16101,-0.0023634
2431.19664,-0.0023174
2430.23226,-0.0023166
2429.26788,-0.0023388
2428.30350,-0.0023120
2427.33912,-0.0022137
2426.37475,-0.0020724
2425.41037,-0.0019745
2424.44599,-0.0019550
2423.48161,-0.0019746
2422.51724,-0.0019886
2421.55286,-0.0020272
2420.58848,-0.0020932
2419.62410,-0.0021621
2418.65972,-0.0022647
2417.69535,-0.0023450
2416.73097,-0.0023706
2415.76659,-0.0023408
2414.80221,-0.0022839
2413.83783,-0.0022554
2412.87346,-0.0022344
2411.90908,-0.0022195
2410.94470,-0.0021778
2409.98032,-0.0021376
2409.01594,-0.0021331
2408.05157,-0.0021400
2407.08719,-0.0021980
2406.12281,-0.0022806
2405.15843,-0.0023397
2404.19406,-0.0023535
2403.22968,-0.0023463
2402.26530,-0.0023331
2401.30092,-0.0023190
2400.33654,-0.0023058
2399.37217,-0.0022260
2398.40779,-0.0021624
2397.44341,-0.0021634
2396.47903,-0.0021618
2395.51465,-0.0021637
2394.55028,-0.0021574
2393.58590,-0.0021205
2392.62152,-0.0020575
2391.65714,-0.0020491
2390.69276,-0.0020851
2389.72839,-0.0020844
2388.76401,-0.0020484
2387.79963,-0.0019845
2386.83525,-0.0019541
2385.87088,-0.0019383
2384.90650,-0.0018691
2383.94212,-0.0017602
2382.97774,-0.0016103
2382.01336,-0.0013938
2381.04899,-0.0011273
2380.08461,-0.0008669
2379.12023,-0.0005392
2378.15585,-0.0000781
2377.19147,0.0004526
2376.22710,0.0010006
2375.26272,0.0015205
2374.29834,0.0020472
2373.33396,0.0026196
2372.36959,0.0031942
2371.40521,0.0037473
2370.44083,0.0042624
2369.47645,0.0047284
2368.51207,0.0051485
2367.54770,0.0055460
2366.58332,0.0059129
2365.61894,0.0061788
2364.65456,0.0063512
2363.69018,0.0064999
2362.72581,0.0066254
2361.76143,0.0066996
2360.79705,0.0067288
2359.83267,0.0067160
2358.86829,0.0066431
2357.90392,0.0064952
2356.93954,0.0062317
2355.97516,0.0058291
2355.01078,0.0052581
2354.04641,0.0044427
2353.08203,0.0034921
2352.11765,0.0026032
2351.15327,0.0018277
2350.18889,0.0012845
2349.22452,0.0010897
2348.26014,0.0011949
2347.29576,0.0015427
2346.33138,0.0021045
2345.36700,0.0027906
2344.40263,0.0034639
2343.43825,0.0040062
2342.47387,0.0043378
2341.50949,0.0044987
2340.54512,0.0045658
2339.58074,0.0045576
2338.61636,0.0045291
2337.65198,0.0044934
2336.68760,0.0044314
2335.72323,0.0043672
2334.75885,0.0043048
2333.79447,0.0042274
2332.83009,0.0041475
2331.86571,0.0040792
2330.90134,0.0039882
2329.93696,0.0038632
2328.97258,0.0037152
2328.00820,0.0035582
2327.04382,0.0034294
2326.07945,0.0033140
2325.11507,0.0031536
2324.15069,0.0029377
2323.18631,0.0027133
2322.22194,0.0024983
2321.25756,0.0022784
2320.29318,0.0020306
2319.32880,0.0017584
2318.36442,0.0015021
2317.40005,0.0012632
2316.43567,0.0010419
2315.47129,0.0008313
2314.50691,0.0006030
2313.54253,0.0003639
2312.57816,0.0001667
2311.61378,0.0000252
2310.64940,-0.0001403
2309.68502,-0.0003235
2308.72065,-0.0004703
2307.75627,-0.0005747
2306.79189,-0.0006405
2305.82751,-0.0007138
2304.86313,-0.0008022
2303.89876,-0.0008891
2302.93438,-0.0009473
2301.97000,-0.0009557
2301.00562,-0.0009700
2300.04124,-0.0010544
2299.07687,-0.0011789
2298.11249,-0.0012726
2297.14811,-0.0013688
2296.18373,-0.0014620
2295.21935,-0.0015234
2294.25498,-0.0016056
2293.29060,-0.0017116
2292.32622,-0.0018105
2291.36184,-0.0018596
2290.39747,-0.0018830
2289.43309,-0.0019110
2288.46871,-0.0019015
2287.50433,-0.0018268
2286.53995,-0.0017435
2285.57558,-0.0017482
2284.61120,-0.0017927
2283.64682,-0.0018451
2282.68244,-0.0018707
2281.71806,-0.0018855
2280.75369,-0.0019661
2279.78931,-0.0019733
2278.82493,-0.0019181
2277.86055,-0.0018217
2276.89618,-0.0016301
2275.93180,-0.0014821
2274.96742,-0.0014460
2274.00304,-0.0015161
2273.03866,-0.0016510
2272.07429,-0.0018136
2271.10991,-0.0019016
2270.14553,-0.0019410
2269.18115,-0.0020269
2268.21677,-0.0020880
2267.25240,-0.0022322
2266.28802,-0.0023846
2265.32364,-0.0024074
2264.35926,-0.0023837
2263.39488,-0.0023827
2262.43051,-0.0024264
2261.46613,-0.0023583
2260.50175,-0.0021611
2259.53737,-0.0018042
2258.57300,-0.0014206
2257.60862,-0.0012600
2256.64424,-0.0011972
2255.67986,-0.0012309
2254.71548,-0.0013165
2253.75111,-0.0014570
2252.78673,-0.0017228
2251.82235,-0.0020324
2250.85797,-0.0023351
2249.89359,-0.0025012
2248.92922,-0.0025699
2247.96484,-0.0024992
2247.00046,-0.0023533
2246.03608,-0.0022441
2245.07171,-0.0020466
2244.10733,-0.0018474
2243.14295,-0.0016127
2242.17857,-0.0014394
2241.21419,-0.0014917
2240.24982,-0.0016660
2239.28544,-0.0018764
2238.32106,-0.0021198
2237.35668,-0.0023229
2236.39230,-0.0024201
2235.42793,-0.0024392
2234.46355,-0.0024667
2233.49917,-0.0024712
2232.53479,-0.0023671
2231.57041,-0.0021307
2230.60604,-0.0019692
2229.64166,-0.0019990
2228.67728,-0.0020763
2227.71290,-0.0020735
2226.74853,-0.0020707
2225.78415,-0.0020679
2224.81977,-0.0020651
2223.85539,-0.0020623
2222.89101,-0.0020595
2221.92664,-0.0020567
2220.96226,-0.0020539
2219.99788,-0.0020511
2219.03350,-0.0020483
2218.06912,-0.0020455
2217.10475,-0.0020428
2216.14037,-0.0020400
2215.17599,-0.0020372
2214.21161,-0.0020344
2213.24724,-0.0020316
2212.28286,-0.0020288
2211.31848,-0.0020260
2210.35410,-0.0020232
2209.38972,-0.0020204
2208.42535,-0.0020176
2207.46097,-0.0020148
2206.49659,-0.0020120
2205.53221,-0.0020092
2204.56783,-0.0020065
2203.60346,-0.0020037
2202.63908,-0.0020009
2201.67470,-0.0019981
2200.71032,-0.0019953
2199.74594,-0.0019925
2198.78157,-0.0019897
2197.81719,-0.0019869
2196.85281,-0.0019841
2195.88843,-0.0019813
2194.92406,-0.0019785
2193.95968,-0.0019757
2192.99530,-0.0019730
2192.03092,-0.0019702
2191.06654,-0.0019674
2190.10217,-0.0019646
2189.13779,-0.0019618
2188.17341,-0.0019590
2187.20903,-0.0019562
2186.24465,-0.0019534
2185.28028,-0.0019506
2184.31590,-0.0019478
2183.35152,-0.0019450
2182.38714,-0.0019422
2181.42276,-0.0019394
2180.45839,-0.0019367
2179.49401,-0.0019339
2178.52963,-0.0019311
2177.56525,-0.0019283
2176.60088,-0.0019255
2175.63650,-0.0019227
2174.67212,-0.0019199
2173.70774,-0.0019171
2172.74336,-0.0019143
2171.77899,-0.0019115
2170.81461,-0.0019087
2169.85023,-0.0019059
2168.88585,-0.0019032
2167.92147,-0.0019004
2166.95710,-0.0018976
2165.99272,-0.0018948
2165.02834,-0.0018920
2164.06396,-0.0018892
2163.09959,-0.0018864
2162.13521,-0.0018836
2161.17083,-0.0018808
2160.20645,-0.0018780
2159.24207,-0.0018752
2158.27770,-0.0018724
2157.31332,-0.0018696
2156.34894,-0.0018669
2155.38456,-0.0018641
2154.42018,-0.0018613
2153.45581,-0.0018585
2152.49143,-0.0018557
2151.52705,-0.0018529
2150.56267,-0.0018501
2149.59829,-0.0018473
2148.63392,-0.0018445
2147.66954,-0.0018417
2146.70516,-0.0018389
2145.74078,-0.0018361
2144.77641,-0.0018334
2143.81203,-0.0018306
2142.84765,-0.0018278
2141.88327,-0.0018250
2140.91889,-0.0018222
2139.95452,-0.0018194
2138.99014,-0.0018166
2138.02576,-0.0018138
2137.06138,-0.0018110
2136.09700,-0.0018082
2135.13263,-0.0018054
2134.16825,-0.0018026
2133.20387,-0.0017999
2132.23949,-0.0017971
2131.27512,-0.0017943
2130.31074,-0.0017915
2129.34636,-0.0017887
2128.38198,-0.0017859
2127.41760,-0.0017831
2126.45323,-0.0017803
2125.48885,-0.0017775
2124.52447,-0.0017747
2123.56009,-0.0017719
2122.59571,-0.0017691
2121.63134,-0.0017663
2120.66696,-0.0017636
2119.70258,-0.0017608
2118.73820,-0.0017580
2117.77382,-0.0017552
2116.80945,-0.0017524
2115.84507,-0.0017496
2114.88069,-0.0017468
2113.91631,-0.0017440
2112.95194,-0.0017412
2111.98756,-0.0017384
2111.02318,-0.0017356
2110.05880,-0.0017328
2109.09442,-0.0017301
2108.13005,-0.0017273
2107.16567,-0.0017245
2106.20129,-0.0017217
2105.23691,-0.0017189
2104.27253,-0.0017161
2103.30816,-0.0017133
2102.34378,-0.0017105
2101.37940,-0.0017077
2100.41502,-0.0017049
2099.45065,-0.0017021
2098.48627,-0.0016993
2097.52189,-0.0016965
2096.55751,-0.0016938
2095.59313,-0.0016910
2094.62876,-0.0016882
2093.66438,-0.0016854
2092.70000,-0.0016826
2091.73562,-0.0016798
2090.77124,-0.0016770
2089.80687,-0.0016742
2088.84249,-0.0016714
2087.87811,-0.0016686
2086.91373,-0.0016658
2085.94935,-0.0016630
2084.98498,-0.0016603
2084.02060,-0.0016575
2083.05622,-0.0016547
2082.09184,-0.0016519
2081.12747,-0.0016491
2080.16309,-0.0016463
2079.19871,-0.0016435
2078.23433,-0.0016407
2077.26995,-0.0016379
2076.30558,-0.0016351
2075.34120,-0.0016323
2074.37682,-0.0016295
2073.41244,-0.0016267
2072.44806,-0.0016240
2071.48369,-0.0016212
2070.51931,-0.0016184
2069.55493,-0.0016156
2068.59055,-0.0016128
2067.62618,-0.0016100
2066.66180,-0.0016072
2065.69742,-0.0016044
2064.73304,-0.0016016
2063.76866,-0.0015988
2062.80429,-0.0015960
2061.83991,-0.0015932
2060.87553,-0.0015905
2059.91115,-0.0015877
2058.94677,-0.0015849
2057.98240,-0.0015821
2057.01802,-0.0015793
2056.05364,-0.0015765
2055.08926,-0.0015737
2054.12488,-0.0015709
2053.16051,-0.0015681
2052.19613,-0.0015653
2051.23175,-0.0015625
2050.26737,-0.0015597
2049.30300,-0.0015569
2048.33862,-0.0015542
2047.37424,-0.0015514
2046.40986,-0.0015486
2045.44548,-0.0015458
2044.48111,-0.0015430
2043.51673,-0.0015402
2042.55235,-0.0015374
2041.58797,-0.0015346
2040.62359,-0.0015318
2039.65922,-0.0015290
2038.69484,-0.0015262
2037.73046,-0.0015234
2036.76608,-0.0015207
2035.80171,-0.0015179
2034.83733,-0.0015151
2033.87295,-0.0015123
2032.90857,-0.0015095
2031.94419,-0.0015067
2030.97982,-0.0015039
2030.01544,-0.0015011
2029.05106,-0.0014983
2028.08668,-0.0014955
2027.12230,-0.0014927
2026.15793,-0.0014899
2025.19355,-0.0014872
2024.22917,-0.0014844
2023.26479,-0.0014816
2022.30041,-0.0014788
2021.33604,-0.0014760
2020.37166,-0.0014732
2019.40728,-0.0014704
2018.44290,-0.0014676
2017.47853,-0.0014648
2016.51415,-0.0014620
2015.54977,-0.0014592
2014.58539,-0.0014564
2013.62101,-0.0014536
2012.65664,-0.0014509
2011.69226,-0.0014481
2010.72788,-0.0014453
2009.76350,-0.0014425
2008.79912,-0.0014397
2007.83475,-0.0014369
2006.87037,-0.0014341
2005.90599,-0.0014313
2004.94161,-0.0014285
2003.97724,-0.0014257
2003.01286,-0.0014229
2002.04848,-0.0014201
2001.08410,-0.0014174
2000.11972,-0.0014146
1999.15535,-0.0014118
1998.19097,-0.0014090
1997.22659,-0.0014062
1996.26221,-0.0014034
1995.29783,-0.0014006
1994.33346,-0.0013978
1993.36908,-0.0013950
1992.40470,-0.0013922
1991.44032,-0.0013894
1990.47594,-0.0013866
1989.51157,-0.0013838
1988.54719,-0.0013811
1987.58281,-0.0013783
1986.61843,-0.0013755
1985.65406,-0.0013727
1984.68968,-0.0013699
1983.72530,-0.0013671
1982.76092,-0.0013643
1981.79654,-0.0013615
1980.83217,-0.0013587
1979.86779,-0.0013559
1978.90341,-0.0013531
1977.93903,-0.0013503
1976.97465,-0.0013476
1976.01028,-0.0013448
1975.04590,-0.0013420
1974.08152,-0.0013392
1973.11714,-0.0013364
1972.15276,-0.0013336
1971.18839,-0.0013308
1970.22401,-0.0013280
1969.25963,-0.0013252
1968.29525,-0.0013224
1967.33088,-0.0013196
1966.36650,-0.0013168
1965.40212,-0.0013140
1964.43774,-0.0013113
1963.47336,-0.0013085
1962.50899,-0.0013057
1961.54461,-0.0013029
1960.58023,-0.0013001
1959.61585,-0.0012973
1958.65147,-0.0012945
1957.68710,-0.0012917
1956.72272,-0.0012889
1955.75834,-0.0012861
1954.79396,-0.0012833
1953.82959,-0.0012805
1952.86521,-0.0012778
1951.90083,-0.0012750
1950.93645,-0.0012722
1949.97207,-0.0012694
1949.00770,-0.0012666
1948.04332,-0.0012638
1947.07894,-0.0012610
1946.11456,-0.0012582
1945.15018,-0.0012554
1944.18581,-0.0012526
1943.22143,-0.0012498
1942.25705,-0.0012470
1941.29267,-0.0012442
1940.32829,-0.0012415
1939.36392,-0.0012387
1938.39954,-0.0012359
1937.43516,-0.0013116
1936.47078,-0.0012847
1935.50641,-0.0011026
1934.54203,-0.0010199
1933.57765,-0.0010599
1932.61327,-0.0010557
1931.64889,-0.0010770
1930.68452,-0.0011792
1929.72014,-0.0012544
1928.75576,-0.0012363
1927.79138,-0.0011598
1926.82700,-0.0010911
1925.86263,-0.0010646
1924.89825,-0.0009675
1923.93387,-0.0008948
1922.96949,-0.0008964
1922.00512,-0.0008281
1921.04074,-0.0007189
1920.07636,-0.0007267
1919.11198,-0.0007775
1918.14760,-0.0007487
1917.18323,-0.0006598
1916.21885,-0.0005742
1915.25447,-0.0005686
1914.29009,-0.0006904
1913.32571,-0.0009153
1912.36134,-0.0010719
1911.39696,-0.0010250
1910.43258,-0.0009825
1909.46820,-0.0010921
1908.50382,-0.0012066
1907.53945,-0.0012406
1906.57507,-0.0012014
1905.61069,-0.0011234
1904.64631,-0.0010810
1903.68194,-0.0010998
1902.71756,-0.0010873
1901.75318,-0.0009447
1900.78880,-0.0007338
1899.82442,-0.0005846
1898.86005,-0.0005484
1897.89567,-0.0005488
1896.93129,-0.0005283
1895.96691,-0.0004744
1895.00253,-0.0003441
1894.03816,-0.0002348
1893.07378,-0.0002486
1892.10940,-0.0003585
1891.14502,-0.0004520
1890.18065,-0.0004430
1889.21627,-0.0004377
1888.25189,-0.0004662
1887.28751,-0.0004653
1886.32313,-0.0004717
1885.35876,-0.0004982
1884.39438,-0.0004803
1883.43000,-0.0004202
1882.46562,-0.0004582
1881.50124,-0.0006091
1880.53687,-0.0007990
1879.57249,-0.0009671
1878.60811,-0.0010208
1877.64373,-0.0010154
1876.67935,-0.0010134
1875.71498,-0.0010028
1874.75060,-0.0009450
1873.78622,-0.0007919
1872.82184,-0.0006194
1871.85747,-0.0005104
1870.89309,-0.0004595
1869.92871,-0.0003987
1868.96433,-0.0003293
1867.99995,-0.0003277
1867.03558,-0.0003825
1866.07120,-0.0004856
1865.10682,-0.0006301
1864.14244,-0.0007374
1863.17806,-0.0007577
1862.21369,-0.0007419
1861.24931,-0.0007345
1860.28493,-0.0007019
1859.32055,-0.0006467
1858.35618,-0.0006096
1857.39180,-0.0005962
1856.42742,-0.0005990
1855.46304,-0.0006464
1854.49866,-0.0007245
1853.53429,-0.0007673
1852.56991,-0.0007743
1851.60553,-0.0007924
1850.64115,-0.0008272
1849.67677,-0.0007712
1848.71240,-0.0005925
1847.74802,-0.0004047
1846.78364,-0.0002428
1845.81926,-0.0000892
1844.85488,0.0000406
1843.89051,0.0000734
1842.92613,0.0000130
1841.96175,-0.0000543
1840.99737,-0.0001549
1840.03300,-0.0003010
1839.06862,-0.0004275
1838.10424,-0.0004765
1837.13986,-0.0004964
1836.17548,-0.0005533
1835.21111,-0.0005533
1834.24673,-0.0004728
1833.28235,-0.0003719
1832.31797,-0.0003017
1831.35359,-0.0002862
1830.38922,-0.0002227
1829.42484,-0.0001011
1828.46046,-0.0000083
1827.49608,0.0000203
1826.53171,-0.0000241
1825.56733,-0.0001161
1824.60295,-0.0002056
1823.63857,-0.0002279
1822.67419,-0.0002284
1821.70982,-0.0002604
1820.74544,-0.0003139
1819.78106,-0.0003935
1818.81668,-0.0004217
1817.85230,-0.0004191
1816.88793,-0.0004596
1815.92355,-0.0004946
1814.95917,-0.0004990
1813.99479,-0.0004850
1813.03041,-0.0004729
1812.06604,-0.0004546
1811.10166,-0.0004230
1810.13728,-0.0003918
1809.17290,-0.0003842
1808.20853,-0.0004221
1807.24415,-0.0004538
1806.27977,-0.0004632
1805.31539,-0.0004358
1804.35101,-0.0003466
1803.38664,-0.0002596
1802.42226,-0.0002196
1801.45788,-0.0001954
1800.49350,-0.0001566
1799.52912,-0.0001763
1798.56475,-0.0002450
1797.60037,-0.0002433
1796.63599,-0.0001764
1795.67161,-0.0000631
1794.70724,0.0000636
1793.74286,0.0001595
1792.77848,0.0002185
1791.81410,0.0001959
1790.84972,0.0001100
1789.88535,0.0000454
1788.92097,-0.0000085
1787.95659,-0.0001310
1786.99221,-0.0002372
1786.02783,-0.0001882
1785.06346,-0.0000742
1784.09908,0.0000060
1783.13470,0.0000534
1782.17032,0.0000358
1781.20594,-0.0000249
1780.24157,-0.0001163
1779.27719,-0.0002592
1778.31281,-0.0003046
1777.34843,-0.0001562
1776.38406,0.0000653
1775.41968,0.0002698
1774.45530,0.0004348
1773.49092,0.0005918
1772.52654,0.0007364
1771.56217,0.0007917
1770.59779,0.0007419
1769.63341,0.0006154
1768.66903,0.0003695
1767.70465,0.0000573
1766.74028,-0.0000303
1765.77590,0.0001115
1764.81152,0.0002248
1763.84714,0.0002463
1762.88276,0.0002126
1761.91839,0.0002770
1760.95401,0.0004058
1759.98963,0.0004354
1759.02525,0.0004226
1758.06088,0.0003233
1757.09650,0.0001966
1756.13212,0.0002859
1755.16774,0.0005432
1754.20336,0.0007742
1753.23899,0.0009375
1752.27461,0.0010695
1751.31023,0.0011684
1750.34585,0.0012496
1749.38147,0.0012678
1748.41710,0.0012097
1747.45272,0.0011114
1746.48834,0.0008996
1745.52396,0.0007679
1744.55959,0.0008898
1743.59521,0.0010236
1742.63083,0.0011035
1741.66645,0.0011253
1740.70207,0.0010215
1739.73770,0.0009915
1738.77332,0.0012058
1737.80894,0.0015585
1736.84456,0.0018650
1735.88018,0.0020341
1734.91581,0.0020895
1733.95143,0.0021105
1732.98705,0.0021032
1732.02267,0.0019480
1731.05829,0.0016296
1730.09392,0.0011826
1729.12954,0.0007225
1728.16516,0.0005188
1727.20078,0.0005777
1726.23641,0.0006555
1725.27203,0.0006177
1724.30765,0.0005100
1723.34327,0.0005302
1722.37889,0.0007907
1721.41452,0.0011503
1720.45014,0.0014941
1719.48576,0.0018375
1718.52138,0.0021111
1717.55700,0.0022609
1716.59263,0.0022820
1715.62825,0.0021625
1714.66387,0.0019195
1713.69949,0.0015261
1712.73512,0.0010806
1711.77074,0.0008231
1710.80636,0.0008248
1709.84198,0.0008909
1708.87760,0.0009754
1707.91323,0.0010640
1706.94885,0.0009459
1705.98447,0.0008773
1705.02009,0.0011870
1704.05571,0.0016423
1703.09134,0.0019274
1702.12696,0.0019482
1701.16258,0.0020868
1700.19820,0.0024671
1699.23382,0.0027655
1698.26945,0.0028533
1697.30507,0.0027176
1696.34069,0.0023246
1695.37631,0.0017697
1694.41194,0.0014200
1693.44756,0.0013589
1692.48318,0.0011878
1691.51880,0.0006878
1690.55442,0.0002297
1689.59005,0.0004513
1688.62567,0.0011042
1687.66129,0.0016502
1686.69691,0.0020212
1685.73253,0.0022670
1684.76816,0.0024052
1683.80378,0.0024042
1682.83940,0.0022369
1681.87502,0.0018766
1680.91065,0.0014307
1679.94627,0.0010575
1678.98189,0.0008934
1678.01751,0.0010221
1677.05313,0.0012213
1676.08876,0.0013236
1675.12438,0.0013619
1674.16000,0.0014991
1673.19562,0.0016806
1672.23124,0.0017338
1671.26687,0.0016722
1670.30249,0.0015088
1669.33811,0.0013901
1668.37373,0.0014048
1667.40935,0.0014251
1666.44498,0.0013764
1665.48060,0.0013013
1664.51622,0.0012340
1663.55184,0.0012115
1662.58747,0.0013057
1661.62309,0.0013388
1660.65871,0.0012157
1659.69433,0.0010041
1658.72995,0.0009195
1657.76558,0.0013367
1656.80120,0.0020889
1655.83682,0.0028036
1654.87244,0.0032595
1653.90806,0.0034795
1652.94369,0.0035251
1651.97931,0.0034072
1651.01493,0.0032608
1650.05055,0.0029726
1649.08618,0.0024696
1648.12180,0.0019421
1647.15742,0.0016868
1646.19304,0.0018012
1645.22866,0.0018712
1644.26429,0.0016995
1643.29991,0.0013959
1642.33553,0.0010318
1641.37115,0.0007410
1640.40677,0.0008422
1639.44240,0.0012835
1638.47802,0.0016767
1637.51364,0.0019163
1636.54926,0.0020445
1635.58488,0.0020663
1634.62051,0.0019573
1633.65613,0.0017634
1632.69175,0.0015217
1631.72737,0.0012181
1630.76300,0.0008657
1629.79862,0.0006059
1628.83424,0.0006982
1627.86986,0.0009187
1626.90548,0.0010392
1625.94111,0.0011069
1624.97673,0.0011156
1624.01235,0.0010543
1623.04797,0.0008565
1622.08359,0.0008211
1621.11922,0.0010591
1620.15484,0.0012568
1619.19046,0.0013440
1618.22608,0.0013626
1617.26171,0.0014231
1616.29733,0.0014533
1615.33295,0.0013647
1614.36857,0.0012039
1613.40419,0.0009592
1612.43982,0.0006417
1611.47544,0.0003367
1610.51106,0.0002918
1609.54668,0.0004044
1608.58230,0.0004224
1607.61793,0.0004071
1606.65355,0.0003885
1605.68917,0.0003664
1604.72479,0.0003243
1603.76041,0.0002834
1602.79604,0.0002633
1601.83166,0.0002359
1600.86728,0.0002203
1599.90290,0.0002225
1598.93853,0.0002376
1597.97415,0.0002594
1597.00977,0.0002857
1596.04539,0.0003044
1595.08101,0.0003217
1594.11664,0.0003352
1593.15226,0.0003326
1592.18788,0.0003213
1591.22350,0.0003086
1590.25912,0.0002982
1589.29475,0.0002823
1588.33037,0.0002802
1587.36599,0.0002806
1586.40161,0.0002842
1585.43724,0.0002750
1584.47286,0.0002576
1583.50848,0.0002157
1582.54410,0.0000785
1581.57972,0.0001159
1580.61535,0.0004499
1579.65097,0.0008161
1578.68659,0.0010971
1577.72221,0.0012924
1576.75783,0.0013726
1575.79346,0.0013283
1574.82908,0.0013135
1573.86470,0.0013243
1572.90032,0.0012366
1571.93594,0.0010056
1570.97157,0.0007215
1570.00719,0.0007241
1569.04281,0.0009124
1568.07843,0.0009556
1567.11406,0.0008111
1566.14968,0.0005553
1565.18530,0.0004266
1564.22092,0.0005981
1563.25654,0.0012118
1562.29217,0.0020415
1561.32779,0.0026201
1560.36341,0.0029233
1559.39903,0.0031602
1558.43465,0.0033406
1557.47028,0.0032751
1556.50590,0.0028904
1555.54152,0.0022688
1554.57714,0.0016415
1553.61276,0.0012514
1552.64839,0.0010584
1551.68401,0.0010143
1550.71963,0.0010198
1549.75525,0.0009562
1548.79088,0.0008860
1547.82650,0.0009720
1546.86212,0.0011934
1545.89774,0.0013482
1544.93336,0.0015959
1543.96899,0.0021378
1543.00461,0.0027263
1542.04023,0.0030974
1541.07585,0.0031731
1540.11147,0.0029946
1539.14710,0.0027621
1538.18272,0.0025756
1537.21834,0.0022631
1536.25396,0.0018966
1535.28959,0.0015718
1534.32521,0.0012335
1533.36083,0.0011284
1532.39645,0.0012400
1531.43207,0.0012879
1530.46770,0.0012848
1529.50332,0.0012461
1528.53894,0.0011405
1527.57456,0.0010999
1526.61018,0.0012978
1525.64581,0.0016725
1524.68143,0.0020256
1523.71705,0.0021951
1522.75267,0.0022569
1521.78829,0.0023394
1520.82392,0.0023466
1519.85954,0.0022884
1518.89516,0.0021551
1517.93078,0.0019030
1516.96641,0.0015880
1516.00203,0.0012936
1515.03765,0.0011867
1514.07327,0.0011725
1513.10889,0.0010676
1512.14452,0.0010304
1511.18014,0.0013355
1510.21576,0.0018963
1509.25138,0.0023789
1508.28700,0.0026623
1507.32263,0.0027336
1506.35825,0.0026666
1505.39387,0.0024493
1504.42949,0.0020731
1503.46512,0.0016342
1502.50074,0.0010819
1501.53636,0.0006899
1500.57198,0.0007253
1499.60760,0.0010116
1498.64323,0.0013054
1497.67885,0.0014158
1496.71447,0.0013659
1495.75009,0.0012965
1494.78571,0.0012556
1493.82134,0.0011783
1492.85696,0.0011085
1491.89258,0.0010913
1490.92820,0.0010446
1489.96382,0.0011011
1488.99945,0.0012133
1488.03507,0.0011841
1487.07069,0.0010614
1486.10631,0.0008910
1485.14194,0.0007243
1484.17756,0.0006287
1483.21318,0.0005702
1482.24880,0.0005091
1481.28442,0.0005411
1480.32005,0.0006394
1479.35567,0.0006892
1478.39129,0.0007876
1477.42691,0.0010094
1476.46253,0.0013126
1475.49816,0.0015937
1474.53378,0.0017896
1473.56940,0.0018915
1472.60502,0.0018703
1471.64065,0.0017097
1470.67627,0.0015065
1469.71189,0.0014369
1468.74751,0.0013774
1467.78313,0.0012714
1466.81876,0.0012687
1465.85438,0.0013258
1464.89000,0.0013875
1463.92562,0.0013498
1462.96124,0.0012648
1461.99687,0.0014148
1461.03249,0.0017605
1460.06811,0.0020809
1459.10373,0.0023552
1458.13935,0.0026237
1457.17498,0.0027576
1456.21060,0.0027240
1455.24622,0.0025346
1454.28184,0.0021687
1453.31747,0.0017652
1452.35309,0.0013952
1451.38871,0.0011580
1450.42433,0.0012046
1449.45995,0.0013602
1448.49558,0.0014111
1447.53120,0.0013998
1446.56682,0.0013809
1445.60244,0.0013445
1444.63806,0.0012934
1443.67369,0.0011497
1442.70931,0.0010098
1441.74493,0.0011281
1440.78055,0.0014162
1439.81618,0.0016483
1438.85180,0.0017998
1437.88742,0.0018903
1436.92304,0.0018962
1435.95866,0.0018547
1434.99429,0.0017977
1434.02991,0.0017071
1433.06553,0.0015561
1432.10115,0.0013522
1431.13677,0.0012204
1430.17240,0.0012594
1429.20802,0.0013448
1428.24364,0.0013719
1427.27926,0.0013835
1426.31488,0.0013191
1425.35051,0.0012084
1424.38613,0.0012776
1423.42175,0.0015000
1422.45737,0.0017268
1421.49300,0.0019039
1420.52862,0.0020137
1419.56424,0.0020335
1418.59986,0.0019769
1417.63548,0.0019059
1416.67111,0.0017956
1415.70673,0.0016176
1414.74235,0.0013611
1413.77797,0.0011518
1412.81359,0.0011401
1411.84922,0.0011630
1410.88484,0.0011497
1409.92046,0.0011710
1408.95608,0.0011962
1407.99171,0.0012085
1407.02733,0.0012142
1406.06295,0.0012023
1405.09857,0.0011824
1404.13419,0.0012066
1403.16982,0.0012501
1402.20544,0.0012777
1401.24106,0.0012774
1400.27668,0.0012648
1399.31230,0.0013419
1398.34793,0.0014731
1397.38355,0.0015634
1396.41917,0.0015950
1395.45479,0.0015603
1394.49041,0.0014526
1393.52604,0.0013330
1392.56166,0.0013188
1391.59728,0.0013607
1390.63290,0.0013718
1389.66853,0.0013519
1388.70415,0.0013570
1387.73977,0.0014319
1386.77539,0.0014781
1385.81101,0.0014610
1384.84664,0.0014020
1383.88226,0.0013037
1382.91788,0.0011962
1381.95350,0.0011091
1380.98912,0.0010993
1380.02475,0.0011385
1379.06037,0.0011975
1378.09599,0.0012837
1377.13161,0.0013585
1376.16724,0.0014138
1375.20286,0.0014372
1374.23848,0.0014339
1373.27410,0.0014180
1372.30972,0.0013775
1371.34535,0.0013203
1370.38097,0.0012326
1369.41659,0.0011231
1368.45221,0.0010721
1367.48783,0.0011078
1366.52346,0.0011758
1365.55908,0.0012341
1364.59470,0.0012644
1363.63032,0.0012772
1362.66594,0.0012938
1361.70157,0.0012954
1360.73719,0.0012664
1359.77281,0.0012295
1358.80843,0.0011821
1357.84406,0.0011140
1356.87968,0.0010717
1355.91530,0.0010659
1354.95092,0.0010781
1353.98654,0.0010980
1353.02217,0.0010950
1352.05779,0.0010834
1351.09341,0.0010782
1350.12903,0.0010701
1349.16465,0.0010697
1348.20028,0.0010773
1347.23590,0.0010697
1346.27152,0.0010381
1345.30714,0.0010217
1344.34276,0.0010442
1343.37839,0.0010906
1342.41401,0.0011335
1341.44963,0.0011672
1340.48525,0.0012010
1339.52088,0.0012202
1338.55650,0.0012225
1337.59212,0.0012079
1336.62774,0.0011813
1335.66336,0.0011396
1334.69899,0.0010861
1333.73461,0.0010543
1332.77023,0.0010367
1331.80585,0.0010306
1330.84147,0.0010359
1329.87710,0.0010353
1328.91272,0.0010351
1327.94834,0.0010304
1326.98396,0.0010170
1326.01959,0.0009999
1325.05521,0.0009985
1324.09083,0.0010141
1323.12645,0.0010256
1322.16207,0.0010390
1321.19770,0.0010533
1320.23332,0.0010763
1319.26894,0.0011031
1318.30456,0.0011149
1317.34018,0.0011303
1316.37581,0.0011381
1315.41143,0.0011188
1314.44705,0.0010917
1313.48267,0.0010750
1312.51829,0.0010743
1311.55392,0.0010727
1310.58954,0.0010689
1309.62516,0.0010785
1308.66078,0.0010976
1307.69641,0.0011240
1306.73203,0.0011533
1305.76765,0.0011738
1304.80327,0.0011794
1303.83889,0.0011807
1302.87452,0.0011827
1301.91014,0.0011791
1300.94576,0.0011807
1299.98138,0.0011826
1299.01700,0.0011780
1298.05263,0.0011711
1297.08825,0.0011672
1296.12387,0.0011804
1295.15949,0.0011956
1294.19512,0.0012046
1293.23074,0.0012259
1292.26636,0.0012592
1291.30198,0.0012877
1290.33760,0.0013015
1289.37323,0.0013110
1288.40885,0.0013201
1287.44447,0.0013158
1286.48009,0.0012933
1285.51571,0.0012746
1284.55134,0.0012723
1283.58696,0.0012693
1282.62258,0.0012703
1281.65820,0.0012832
1280.69382,0.0012932
1279.72945,0.0012930
1278.76507,0.0012890
1277.80069,0.0012931
1276.83631,0.0013173
1275.87194,0.0013555
1274.90756,0.0013874
1273.94318,0.0014167
1272.97880,0.0014424
1272.01442,0.0014586
1271.05005,0.0014737
1270.08567,0.0014783
1269.12129,0.0014656
1268.15691,0.0014494
1267.19253,0.0014436
1266.22816,0.0014513
1265.26378,0.0014834
1264.29940,0.0015352
1263.33502,0.0015826
1262.37065,0.0016230
1261.40627,0.0016484
1260.44189,0.0016693
1259.47751,0.0016975
1258.51313,0.0017075
1257.54876,0.0016971
1256.58438,0.0016843
1255.62000,0.0016734
1254.65562,0.0016631
1253.69124,0.0016693
1252.72687,0.0016934
1251.76249,0.0017192
1250.79811,0.0017449
1249.83373,0.0017643
1248.86935,0.0017846
1247.90498,0.0018086
1246.94060,0.0018299
1245.97622,0.0018537
1245.01184,0.0018833
1244.04747,0.0019198
1243.08309,0.0019533
1242.11871,0.0019955
1241.15433,0.0020454
1240.18995,0.0020811
1239.22558,0.0021085
1238.26120,0.0021253
1237.29682,0.0021332
1236.33244,0.0021436
1235.36806,0.0021688
1234.40369,0.0022039
1233.43931,0.0022354
1232.47493,0.0022783
1231.51055,0.0023270
1230.54618,0.0023791
1229.58180,0.0024388
1228.61742,0.0024914
1227.65304,0.0025331
1226.68866,0.0025609
1225.72429,0.0025743
1224.75991,0.0025799
1223.79553,0.0025918
1222.83115,0.0026044
1221.86677,0.0026149
1220.90240,0.0026422
1219.93802,0.0026764
1218.97364,0.0027151
1218.00926,0.0027637
1217.04488,0.0028026
1216.08051,0.0028224
1215.11613,0.0028348
1214.15175,0.0028451
1213.18737,0.0028524
1212.22300,0.0028618
1211.25862,0.0028745
1210.29424,0.0029035
1209.32986,0.0029395
1208.36548,0.0029697
1207.40111,0.0030123
1206.43673,0.0030643
1205.47235,0.0031197
1204.50797,0.0031737
1203.54359,0.0032239
1202.57922,0.0032686
1201.61484,0.0032954
1200.65046,0.0032960
1199.68608,0.0032791
1198.72171,0.0032743
1197.75733,0.0032713
1196.79295,0.0032668
1195.82857,0.0032770
1194.86419,0.0032996
1193.89982,0.0033454
1192.93544,0.0033933
1191.97106,0.0034333
1191.00668,0.0034718
1190.04230,0.0034968
1189.07793,0.0035116
1188.11355,0.0035269
1187.14917,0.0035509
1186.18479,0.0035672
1185.22041,0.0035741
1184.25604,0.0035757
1183.29166,0.0035783
1182.32728,0.0036035
1181.36290,0.0036429
1180.39853,0.0036918
1179.43415,0.0037391
1178.46977,0.0037823
1177.50539,0.0038305
1176.54101,0.0038617
1175.57664,0.0038602
1174.61226,0.0038415
1173.64788,0.0038308
1172.68350,0.0038235
1171.71912,0.0038188
1170.75475,0.0038238
1169.79037,0.0038375
1168.82599,0.0038556
1167.86161,0.0038677
1166.89724,0.0038917
1165.93286,0.0039267
1164.96848,0.0039536
1164.00410,0.0039666
1163.03972,0.0039642
1162.07535,0.0039617
1161.11097,0.0039561
1160.14659,0.0039446
1159.18221,0.0039368
1158.21783,0.0039357
1157.25346,0.0039355
1156.28908,0.0039454
1155.32470,0.0039860
1154.36032,0.0040414
1153.39594,0.0040891
1152.43157,0.0041054
1151.46719,0.0040915
1150.50281,0.0040748
1149.53843,0.0040459
1148.57406,0.0040144
1147.60968,0.0040042
1146.64530,0.0040094
1145.68092,0.0040208
1144.71654,0.0040350
1143.75217,0.0040621
1142.78779,0.0041043
1141.82341,0.0041348
1140.85903,0.0041455
1139.89465,0.0041592
1138.93028,0.0041681
1137.96590,0.0041631
1137.00152,0.0041758
1136.03714,0.0042203
1135.07276,0.0042775
1134.10839,0.0043265
1133.14401,0.0043534
1132.17963,0.0043638
1131.21525,0.0043673
1130.25088,0.0043617
1129.28650,0.0043666
1128.32212,0.0043799
1127.35774,0.0043712
1126.39336,0.0043552
1125.42899,0.0043616
1124.46461,0.0043957
1123.50023,0.0044390
1122.53585,0.0044690
1121.57147,0.0044742
1120.60710,0.0044581
1119.64272,0.0044390
1118.67834,0.0044205
1117.71396,0.0043980
1116.74959,0.0043527
1115.78521,0.0042832
1114.82083,0.0042317
1113.85645,0.0042160
1112.89207,0.0042243
1111.92770,0.0042471
1110.96332,0.0042726
1109.99894,0.0042852
1109.03456,0.0042938
1108.07018,0.0043038
1107.10581,0.0042978
1106.14143,0.0042784
1105.17705,0.0042398
1104.21267,0.0041889
1103.24829,0.0041605
1102.28392,0.0041514
1101.31954,0.0041425
1100.35516,0.0041379
1099.39078,0.0041339
1098.42641,0.0041145
1097.46203,0.0041045
1096.49765,0.0041239
1095.53327,0.0041541
1094.56889,0.0041823
1093.60452,0.0041849
1092.64014,0.0041673
1091.67576,0.0041626
1090.71138,0.0041634
1089.74700,0.0041464
1088.78263,0.0041099
1087.81825,0.0040631
1086.85387,0.0040062
1085.88949,0.0039661
1084.92512,0.0039584
1083.96074,0.0039628
1082.99636,0.0039749
1082.03198,0.0039610
1081.06760,0.0039262
1080.10323,0.0039233
1079.13885,0.0039394
1078.17447,0.0039598
1077.21009,0.0039694
1076.24571,0.0039484
1075.28134,0.0039082
1074.31696,0.0038693
1073.35258,0.0038449
1072.38820,0.0038137
1071.42382,0.0037648
1070.45945,0.0036932
1069.49507,0.0036250
1068.53069,0.0036002
1067.56631,0.0035837
1066.60194,0.0035725
1065.63756,0.0035630
1064.67318,0.0035371
1063.70880,0.0035198
1062.74442,0.0035040
1061.78005,0.0035065
1060.81567,0.0035198
1059.85129,0.0035177
1058.88691,0.0035160
1057.92253,0.0035069
1056.95816,0.0034986
1055.99378,0.0034881
1055.02940,0.0034688
1054.06502,0.0034460
1053.10065,0.0034142
1052.13627,0.0033861
1051.17189,0.0033492
1050.20751,0.0033071
1049.24313,0.0032709
1048.27876,0.0032354
1047.31438,0.0032162
1046.35000,0.0032056
1045.38562,0.0032061
1044.42124,0.0032145
1043.45687,0.0032087
1042.49249,0.0032025
1041.52811,0.0031977
1040.56373,0.0031794
1039.59935,0.0031359
1038.63498,0.0030664
1037.67060,0.0029937
1036.70622,0.0029294
1035.74184,0.0028757
1034.77747,0.0028321
1033.81309,0.0027961
1032.84871,0.0027769
1031.88433,0.0027688
1030.91995,0.0027614
1029.95558,0.0027539
1028.99120,0.0027377
1028.02682,0.0027242
1027.06244,0.0027218
1026.09806,0.0027108
1025.13369,0.0026937
1024.16931,0.0026845
1023.20493,0.0026770
1022.24055,0.0026710
1021.27618,0.0026724
1020.31180,0.0026629
1019.34742,0.0026290
1018.38304,0.0025843
1017.41866,0.0025433
1016.45429,0.0025200
1015.48991,0.0025027
1014.52553,0.0024665
1013.56115,0.0024286
1012.59677,0.0023996
1011.63240,0.0023681
1010.66802,0.0023429
1009.70364,0.0023278
1008.73926,0.0023152
1007.77488,0.0022986
1006.81051,0.0022842
1005.84613,0.0022932
1004.88175,0.0023151
1003.91737,0.0023196
1002.95300,0.0023054
1001.98862,0.0022952
1001.02424,0.0022909
1000.05986,0.0022678
999.09548,0.0022282
998.13111,0.0021981
997.16673,0.0021842
996.20235,0.0021744
995.23797,0.0021705
994.27359,0.0021869
993.30922,0.0022261
992.34484,0.0022809
991.38046,0.0023293
990.41608,0.0023608
989.45171,0.0023633
988.48733,0.0023198
987.52295,0.0022642
986.55857,0.0022424
985.59419,0.0022520
984.62982,0.0022570
983.66544,0.0022584
982.70106,0.0022711
981.73668,0.0022775
980.77230,0.0022923
979.80793,0.0023215
978.84355,0.0023220
977.87917,0.0022833
976.91479,0.0022428
975.95041,0.0022349
974.98604,0.0022677
974.02166,0.0023272
973.05728,0.0023798
972.09290,0.0024097
971.12853,0.0024161
970.16415,0.0023963
969.19977,0.0023872
968.23539,0.0023964
967.27101,0.0023641
966.30664,0.0023028
965.34226,0.0022720
964.37788,0.0022693
963.41350,0.0022807
962.44912,0.0022996
961.48475,0.0023208
960.52037,0.0023434
959.55599,0.0023626
958.59161,0.0023545
957.62724,0.0023137
956.66286,0.0022853
955.69848,0.0022643
954.73410,0.0022372
953.76972,0.0022168
952.80535,0.0021851
951.84097,0.0021316
950.87659,0.0020720
949.91221,0.0020544
948.94783,0.0020680
947.98346,0.0020653
947.01908,0.0020437
946.05470,0.0020203
945.09032,0.0020368
944.12594,0.0020819
943.16157,0.0021238
942.19719,0.0021484
941.23281,0.0021512
940.26843,0.0021513
939.30406,0.0021532
938.33968,0.0021558
937.37530,0.0021236
936.41092,0.0020575
935.44654,0.0020007
934.48217,0.0019508
933.51779,0.0018905
932.55341,0.0018294
931.58903,0.0018050
930.62465,0.0017992
929.66028,0.0018182
928.69590,0.0018813
927.73152,0.0019301
926.76714,0.0019517
925.80276,0.0019621
924.83839,0.0019798
923.87401,0.0020198
922.90963,0.0020430
921.94525,0.0020146
920.98088,0.0019910
920.01650,0.0020026
919.05212,0.0019998
918.08774,0.0020147
917.12336,0.0020395
916.15899,0.0020091
915.19461,0.0019310
914.23023,0.0018638
913.26585,0.0018488
912.30147,0.0018536
911.33710,0.0018658
910.37272,0.0018791
909.40834,0.0019138
908.44396,0.0019559
907.47959,0.0019745
906.51521,0.0020374
905.55083,0.0020968
904.58645,0.0020880
903.62207,0.0020351
902.65770,0.0019860
901.69332,0.0019560
900.72894,0.0019101
899.76456,0.0018911
898.80018,0.0018936
897.83581,0.0019117
896.87143,0.0019365
895.90705,0.0019511
894.94267,0.0020228
893.97829,0.0021040
893.01392,0.0021366
892.04954,0.0021110
891.08516,0.0020357
890.12078,0.0019673
889.15641,0.0019307
888.19203,0.0019193
887.22765,0.0019029
886.26327,0.0018955
885.29889,0.0018877
884.33452,0.0018917
883.37014,0.0019600
882.40576,0.0020299
881.44138,0.0020685
880.47700,0.0020982
879.51263,0.0021315
878.54825,0.0021925
877.58387,0.0022635
876.61949,0.0022880
875.65512,0.0022618
874.69074,0.0022240
873.72636,0.0021721
872.76198,0.0021298
871.79760,0.0021122
870.83323,0.0020951
869.86885,0.0021048
868.90447,0.0021541
867.94009,0.0022181
866.97571,0.0022963
866.01134,0.0023573
865.04696,0.0023589
864.08258,0.0023444
863.11820,0.0023460
862.15382,0.0023547
861.18945,0.0023574
860.22507,0.0023486
859.26069,0.0023508
858.29631,0.0023576
857.33194,0.0023761
856.36756,0.0023942
855.40318,0.0023853
854.43880,0.0023535
853.47442,0.0023083
852.51005,0.0022861
851.54567,0.0022748
850.58129,0.0022677
849.61691,0.0022636
848.65253,0.0022477
847.68816,0.0022498
846.72378,0.0022722
845.75940,0.0023268
844.79502,0.0023748
843.83065,0.0023826
842.86627,0.0023938
841.90189,0.0023914
840.93751,0.0023576
839.97313,0.0023082
839.00876,0.0022897
838.04438,0.0022958
837.08000,0.0022719
836.11562,0.0022616
835.15124,0.0022952
834.18687,0.0023414
833.22249,0.0023575
832.25811,0.0023447
831.29373,0.0023437
830.32935,0.0023265
829.36498,0.0022694
828.40060,0.0022140
827.43622,0.0022086
826.47184,0.0022193
825.50747,0.0021915
824.54309,0.0021680
823.57871,0.0021546
822.61433,0.0021140
821.64995,0.0020776
820.68558,0.0020825
819.72120,0.0021258
818.75682,0.0021856
817.79244,0.0022430
816.82806,0.0022890
815.86369,0.0023493
814.89931,0.0024307
813.93493,0.0024928
812.97055,0.0025251
812.00618,0.0025028
811.04180,0.0024241
810.07742,0.0023491
809.11304,0.0022951
808.14866,0.0022656
807.18429,0.0022669
806.21991,0.0022613
805.25553,0.0022155
804.29115,0.0021700
803.32677,0.0021682
802.36240,0.0022031
801.39802,0.0022651
800.43364,0.0023073
799.46926,0.0023295
798.50488,0.0023646
797.54051,0.0024071
796.57613,0.0024816
795.61175,0.0025353
794.64737,0.0025122
793.68300,0.0024391
792.71862,0.0023509
791.75424,0.0022851
790.78986,0.0022369
789.82548,0.0021940
788.86111,0.0021508
787.89673,0.0021157
786.93235,0.0020886
785.96797,0.0020880
785.00359,0.0021329
784.03922,0.0021326
783.07484,0.0021121
782.11046,0.0021424
781.14608,0.0021948
780.18171,0.0022494
779.21733,0.0022426
778.25295,0.0021935
777.28857,0.0021499
776.32419,0.0020783
775.35982,0.0019961
774.39544,0.0019503
773.43106,0.0019381
772.46668,0.0019195
771.50230,0.0019332
770.53793,0.0020125
769.57355,0.0021065
768.60917,0.0021661
767.64479,0.0021572
766.68041,0.0021429
765.71604,0.0021690
764.75166,0.0021960
763.78728,0.0022248
762.82290,0.0022403
761.85853,0.0022329
760.89415,0.0022092
759.92977,0.0021750
758.96539,0.0021592
758.00101,0.0021150
757.03664,0.0020285
756.07226,0.0019808
755.10788,0.0019934
754.14350,0.0020320
753.17912,0.0020633
752.21475,0.0020850
751.25037,0.0020939
750.28599,0.0020921
749.32161,0.0020868
748.35724,0.0020527
747.39286,0.0020354
746.42848,0.0020588
745.46410,0.0020841
744.49972,0.0021214
743.53535,0.0021625
742.57097,0.0021940
741.60659,0.0022140
740.64221,0.0022294
739.67783,0.0022518
738.71346,0.0022487
737.74908,0.0021966
736.78470,0.0021396
735.82032,0.0021554
734.85594,0.0022256
733.89157,0.0022448
732.92719,0.0022197
731.96281,0.0022222
730.99843,0.0022276
730.03406,0.0022080
729.06968,0.0021817
728.10530,0.0021676
727.14092,0.0021562
726.17654,0.0021368
725.21217,0.0021839
724.24779,0.0023206
723.28341,0.0024656
722.31903,0.0025469
721.35465,0.0025527
720.39028,0.0025136
719.42590,0.0024423
718.46152,0.0023613
717.49714,0.0022722
716.53276,0.0021903
715.56839,0.0021364
714.60401,0.0021059
713.63963,0.0021414
712.67525,0.0022193
711.71088,0.0022783
710.74650,0.0023135
709.78212,0.0023360
708.81774,0.0023374
707.85336,0.0023218
706.88899,0.0023120
705.92461,0.0022881
704.96023,0.0022563
703.99585,0.0022209
703.03147,0.0022002
702.06710,0.0022041
701.10272,0.0021833
700.13834,0.0021630
699.17396,0.0021821
698.20959,0.0022530
697.24521,0.0023206
696.28083,0.0023436
695.31645,0.0023743
694.35207,0.0024090
693.38770,0.0024309
692.42332,0.0024414
691.45894,0.0024560
690.49456,0.0024502
689.53018,0.0024221
688.56581,0.0024270
687.60143,0.0024583
686.63705,0.0025150
685.67267,0.0025488
684.70829,0.0025399
683.74392,0.0025245
682.77954,0.0025327
681.81516,0.0025588
680.85078,0.0025566
679.88641,0.0025506
678.92203,0.0025321
677.95765,0.0025356
676.99327,0.0025452
676.02889,0.0025083
675.06452,0.0023314
674.10014,0.0019869
673.13576,0.0022449
672.17138,0.0032249
671.20700,0.0042032
670.24263,0.0049101
669.27825,0.0053073
668.31387,0.0054628
667.34949,0.0053811
666.38512,0.0050434
665.42074,0.0044553
664.45636,0.0036195
663.49198,0.0026470
662.52760,0.0018884
661.56323,0.0019493
660.59885,0.0023842
659.63447,0.0025352
658.67009,0.0025679
657.70571,0.0026039
656.74134,0.0026695
655.77696,0.0027088
654.81258,0.0027011
653.84820,0.0027070
652.88382,0.0027107
651.91945,0.0027441
650.95507,0.0027778
649.99069,0.0027550
649.02631,0.0026990
648.06194,0.0026647
647.09756,0.0026496
646.13318,0.0026410
645.16880,0.0026253
644.20442,0.0025731
643.24005,0.0025401
642.27567,0.0025341
641.31129,0.0025516
640.34691,0.0025952
639.38253,0.0026137
638.41816,0.0025990
637.45378,0.0025980
636.48940,0.0026308
635.52502,0.0026344
634.56065,0.0025981
633.59627,0.0025034
632.63189,0.0023473
631.66751,0.0022277
630.70313,0.0020777
629.73876,0.0019096
628.77438,0.0018763
627.81000,0.0019482
626.84562,0.0021719
625.88124,0.0026589
624.91687,0.0031524
623.95249,0.0036553
622.98811,0.0043990
622.02373,0.0048969
621.05935,0.0047901
620.09498,0.0043064
619.13060,0.0038977
618.16622,0.0038076
617.20184,0.0038909
616.23747,0.0037511
615.27309,0.0031951
614.30871,0.0028804
613.34433,0.0030584
612.37995,0.0037793
611.41558,0.0048445
610.45120,0.0054859
609.48682,0.0055028
608.52244,0.0051487
607.55806,0.0049236
606.59369,0.0047607
605.62931,0.0044371
604.66493,0.0038569
603.70055,0.0028861
602.73618,0.0022584
601.77180,0.0023101
600.80742,0.0028021
599.84304,0.0034019
598.87866,0.0038169
597.91429,0.0040183
596.94991,0.0039594
595.98553,0.0037742
595.02115,0.0036550
594.05677,0.0037586
593.09240,0.0039534
592.12802,0.0039368
591.16364,0.0038323
590.19926,0.0038762
589.23488,0.0039652
588.27051,0.0039399
587.30613,0.0038227
586.34175,0.0036684
585.37737,0.0034794
584.41300,0.0033189
583.44862,0.0032562
582.48424,0.0032270
581.51986,0.0032167
580.55548,0.0032537
579.59111,0.0032808
578.62673,0.0032600
577.66235,0.0031460
576.69797,0.0029905
575.73359,0.0028204
574.76922,0.0025930
573.80484,0.0024796
572.84046,0.0024776
571.87608,0.0023974
570.91171,0.0022880
569.94733,0.0022605
568.98295,0.0023684
568.01857,0.0025120
567.05419,0.0025236
566.08982,0.0024447
565.12544,0.0023992
564.16106,0.0024279
563.19668,0.0025011
562.23230,0.0026179
561.26793,0.0027080
560.30355,0.0027006
559.33917,0.0027227
558.37479,0.0027600
557.41041,0.0027767
556.44604,0.0027881
555.48166,0.0026928
554.51728,0.0025869
553.55290,0.0025322
552.58853,0.0025249
551.62415,0.0025988
550.65977,0.0026718
549.69539,0.0027191
548.73101,0.0027114
547.76664,0.0027013
546.80226,0.0027251
545.83788,0.0027543
544.87350,0.0027665
543.90912,0.0026484
542.94475,0.0024821
541.98037,0.0023067
541.01599,0.0021312
540.05161,0.0020621
539.08724,0.0020302
538.12286,0.0020079
537.15848,0.0020263
536.19410,0.0021799
535.22972,0.0024541
534.26535,0.0026768
533.30097,0.0027811
532.33659,0.0027327
531.37221,0.0026098
530.40783,0.0024565
529.44346,0.0023002
528.47908,0.0022050
527.51470,0.0021130
526.55032,0.0020319
525.58594,0.0020082
524.62157,0.0020862
523.65719,0.0022234
522.69281,0.0023580
521.72843,0.0025041
520.76406,0.0025727
519.79968,0.0025794
518.83530,0.0025951
517.87092,0.0026188
516.90654,0.0026672
515.94217,0.0026933
514.97779,0.0026429
514.01341,0.0024950
513.04903,0.0023432
512.08465,0.0023143
511.12028,0.0023775
510.15590,0.0024167
509.19152,0.0023705
508.22714,0.0023383
507.26276,0.0023480
506.29839,0.0023382
505.33401,0.0023602
504.36963,0.0023579
503.40525,0.0022943
502.44088,0.0022860
501.47650,0.0023470
500.51212,0.0024300
499.54774,0.0024493
498.58336,0.0023747
497.61899,0.0023463
496.65461,0.0023585
495.69023,0.0023176
494.72585,0.0023005
493.76147,0.0022742
492.79710,0.0021708
491.83272,0.0021265
490.86834,0.0021665
489.90396,0.0022561
488.93959,0.0024145
487.97521,0.0025617
487.01083,0.0027180
486.04645,0.0028977
485.08207,0.0029760
484.11770,0.0029669
483.15332,0.0028871
482.18894,0.0026577
481.22456,0.0023602
480.26018,0.0021162
479.29581,0.0019282
478.33143,0.0018534
477.36705,0.0019208
476.40267,0.0020183
475.43829,0.0020859
474.47392,0.0021149
473.50954,0.0021517
472.54516,0.0022487
471.58078,0.0023256
470.61641,0.0023592
469.65203,0.0023104
468.68765,0.0021523
467.72327,0.0020333
466.75889,0.0020009
465.79452,0.0020172
464.83014,0.0020197
463.86576,0.0020017
462.90138,0.0020925
461.93700,0.0023094
460.97263,0.0025636
460.00825,0.0027484
459.04387,0.0028021
458.07949,0.0026830
457.11512,0.0024685
456.15074,0.0023505
455.18636,0.0023144
454.22198,0.0022612
453.25760,0.0021559
452.29323,0.0021083
451.32885,0.0022014
450.36447,0.0023228
449.40009,0.0024354
448.43571,0.0025195
447.47134,0.0025629
446.50696,0.0025285
445.54258,0.0024404
444.57820,0.0024149
443.61382,0.0023894
442.64945,0.0022927
441.68507,0.0021606
440.72069,0.0021065
439.75631,0.0021195
438.79194,0.0021361
437.82756,0.0022089
436.86318,0.0022686
435.89880,0.0022926
434.93442,0.0022690
433.97005,0.0022033
433.00567,0.0021739
432.04129,0.0021357
431.07691,0.0020977
430.11253,0.0020878
429.14816,0.0021067
428.18378,0.0021907
427.21940,0.0023457
426.25502,0.0024649
425.29065,0.0024745
424.32627,0.0025404
423.36189,0.0027318
422.39751,0.0029364
421.43313,0.0030969
420.46876,0.0031941
419.50438,0.0031656
418.54000,0.0029840
417.57562,0.0027455
416.61124,0.0025631
415.64687,0.0023947
414.68249,0.0021382
413.71811,0.0019409
412.75373,0.0019518
411.78935,0.0020918
410.82498,0.0022191
409.86060,0.0022783
408.89622,0.0023071
407.93184,0.0022703
406.96747,0.0022161
406.00309,0.0021362
405.03871,0.0020079
404.07433,0.0020079
403.10995,0.0020079
402.14558,0.0020079
401.18120,0.0020079
400.21682,0.0020079
399.25244,0.0020079
