3998.31069,0.00093
3997.34631,0.00073
3996.38194,0.00063
3995.41756,0.00058
3994.45318,0.00054
3993.48880,0.00063
3992.52442,0.00059
3991.56005,0.00037
3990.59567,0.00022
3989.63129,0.00008
3988.66691,0.00011
3987.70253,0.00011
3986.73816,0.00003
3985.77378,0.00036
3984.80940,0.00060
3983.84502,0.00049
3982.88065,0.00040
3981.91627,0.00043
3980.95189,0.00028
3979.98751,0.00037
3979.02313,0.00092
3978.05876,0.00097
3977.09438,0.00075
3976.13000,0.00059
3975.16562,0.00036
3974.20124,0.00062
3973.23687,0.00072
3972.27249,0.00010
3971.30811,-0.00013
3970.34373,0.00004
3969.37935,-0.00011
3968.41498,0.00005
3967.45060,0.00050
3966.48622,0.00063
3965.52184,0.00093
3964.55747,0.00098
3963.59309,0.00038
3962.62871,0.00021
3961.66433,0.00057
3960.69995,0.00071
3959.73558,0.00049
3958.77120,0.00032
3957.80682,0.00038
3956.84244,0.00038
3955.87806,0.00040
3954.91369,0.00039
3953.94931,0.00026
3952.98493,0.00049
3952.02055,0.00071
3951.05618,0.00048
3950.09180,0.00028
3949.12742,0.00017
3948.16304,0.00016
3947.19866,0.00026
3946.23429,0.00051
3945.26991,0.00081
3944.30553,0.00050
3943.34115,0.00021
3942.37677,0.00031
3941.41240,0.00024
3940.44802,0.00001
3939.48364,-0.00007
3938.51926,0.00016
3937.55488,0.00032
3936.59051,0.00065
3935.62613,0.00085
3934.66175,0.00057
3933.69737,0.00055
3932.73300,0.00049
3931.76862,0.00047
3930.80424,0.00038
3929.83986,0.00017
3928.87548,0.00045
3927.91111,0.00060
3926.94673,0.00065
3925.98235,0.00069
3925.01797,0.00051
3924.05359,0.00056
3923.08922,0.00071
3922.12484,0.00066
3921.16046,0.00040
3920.19608,0.00016
3919.23171,0.00027
3918.26733,0.00066
3917.30295,0.00069
3916.33857,0.00022
3915.37419,0.00013
3914.40982,0.00040
3913.44544,0.00059
3912.48106,0.00043
3911.51668,0.00005
3910.55230,-0.00010
3909.58793,-0.00007
3908.62355,0.00029
3907.65917,0.00068
3906.69479,0.00075
3905.73041,0.00053
3904.76604,0.00009
3903.80166,0.00014
3902.83728,0.00058
3901.87290,0.00052
3900.90853,0.00032
3899.94415,0.00046
3898.97977,0.00061
3898.01539,0.00071
3897.05101,0.00071
3896.08664,0.00052
3895.12226,0.00033
3894.15788,0.00043
3893.19350,0.00080
3892.22912,0.00076
3891.26475,0.00043
3890.30037,0.00031
3889.33599,0.00032
3888.37161,0.00062
3887.40724,0.00081
3886.44286,0.00049
3885.47848,0.00029
3884.51410,0.00056
3883.54972,0.00079
3882.58535,0.00061
3881.62097,0.00039
3880.65659,0.00056
3879.69221,0.00098
3878.72783,0.00100
3877.76346,0.00052
3876.79908,0.00025
3875.83470,0.00034
3874.87032,0.00024
3873.90594,0.00009
3872.94157,0.00015
3871.97719,0.00020
3871.01281,0.00033
3870.04843,0.00030
3869.08406,0.00013
3868.11968,0.00014
3867.15530,0.00046
3866.19092,0.00098
3865.22654,0.00090
3864.26217,0.00047
3863.29779,0.00036
3862.33341,0.00040
3861.36903,0.00051
3860.40465,0.00046
3859.44028,0.00053
3858.47590,0.00067
3857.51152,0.00056
3856.54714,0.00055
3855.58276,0.00076
3854.61839,0.00092
3853.65401,0.00066
3852.68963,0.00073
3851.72525,0.00116
3850.76088,0.00086
3849.79650,0.00054
3848.83212,0.00049
3847.86774,0.00019
3846.90336,0.00005
3845.93899,0.00012
3844.97461,0.00022
3844.01023,0.00030
3843.04585,0.00028
3842.08147,0.00034
3841.11710,0.00061
3840.15272,0.00101
3839.18834,0.00096
3838.22396,0.00060
3837.25959,0.00077
3836.29521,0.00107
3835.33083,0.00102
3834.36645,0.00065
3833.40207,0.00039
3832.43770,0.00040
3831.47332,0.00028
3830.50894,0.00010
3829.54456,0.00011
3828.58018,0.00049
3827.61581,0.00060
3826.65143,0.00042
3825.68705,0.00049
3824.72267,0.00062
3823.75829,0.00085
3822.79392,0.00058
3821.82954,0.00003
3820.86516,0.00015
3819.90078,0.00053
3818.93641,0.00086
3817.97203,0.00094
3817.00765,0.00105
3816.04327,0.00094
3815.07889,0.00034
3814.11452,0.00019
3813.15014,0.00044
3812.18576,0.00048
3811.22138,0.00062
3810.25700,0.00113
3809.29263,0.00124
3808.32825,0.00082
3807.36387,0.00042
3806.39949,0.00036
3805.43512,0.00055
3804.47074,0.00044
3803.50636,0.00037
3802.54198,0.00062
3801.57760,0.00094
3800.61323,0.00090
3799.64885,0.00035
3798.68447,0.00017
3797.72009,0.00037
3796.75571,0.00050
3795.79134,0.00040
3794.82696,0.00023
3793.86258,0.00064
3792.89820,0.00104
3791.93382,0.00080
3790.96945,0.00040
3790.00507,0.00028
3789.04069,0.00032
3788.07631,0.00025
3787.11194,0.00015
3786.14756,0.00023
3785.18318,0.00048
3784.21880,0.00039
3783.25442,0.00021
3782.29005,0.00042
3781.32567,0.00059
3780.36129,0.00055
3779.39691,0.00056
3778.43253,0.00054
3777.46816,0.00042
3776.50378,0.00063
3775.53940,0.00098
3774.57502,0.00113
3773.61065,0.00127
3772.64627,0.00099
3771.68189,0.00056
3770.71751,0.00053
3769.75313,0.00063
3768.78876,0.00064
3767.82438,0.00038
3766.86000,0.00006
3765.89562,-0.00003
3764.93124,0.00035
3763.96687,0.00079
3763.00249,0.00076
3762.03811,0.00036
3761.07373,0.00000
3760.10935,0.00025
3759.14498,0.00059
3758.18060,0.00068
3757.21622,0.00091
3756.25184,0.00084
3755.28747,0.00058
3754.32309,0.00067
3753.35871,0.00078
3752.39433,0.00064
3751.42995,0.00072
3750.46558,0.00108
3749.50120,0.00108
3748.53682,0.00073
3747.57244,0.00030
3746.60806,0.00023
3745.64369,0.00059
3744.67931,0.00076
3743.71493,0.00072
3742.75055,0.00066
3741.78618,0.00067
3740.82180,0.00079
3739.85742,0.00077
3738.89304,0.00054
3737.92866,0.00043
3736.96429,0.00069
3735.99991,0.00104
3735.03553,0.00106
3734.07115,0.00071
3733.10677,0.00052
3732.14240,0.00069
3731.17802,0.00064
3730.21364,0.00059
3729.24926,0.00089
3728.28488,0.00088
3727.32051,0.00066
3726.35613,0.00073
3725.39175,0.00055
3724.42737,0.00030
3723.46300,0.00058
3722.49862,0.00103
3721.53424,0.00106
3720.56986,0.00093
3719.60548,0.00110
3718.64111,0.00076
3717.67673,0.00020
3716.71235,0.00030
3715.74797,0.00027
3714.78359,0.00021
3713.81922,0.00042
3712.85484,0.00058
3711.89046,0.00060
3710.92608,0.00058
3709.96171,0.00095
3708.99733,0.00115
3708.03295,0.00093
3707.06857,0.00065
3706.10419,0.00058
3705.13982,0.00081
3704.17544,0.00076
3703.21106,0.00065
3702.24668,0.00060
3701.28230,0.00053
3700.31793,0.00061
3699.35355,0.00067
3698.38917,0.00075
3697.42479,0.00049
3696.46041,0.00053
3695.49604,0.00097
3694.53166,0.00068
3693.56728,0.00042
3692.60290,0.00045
3691.63853,0.00025
3690.67415,0.00027
3689.70977,0.00047
3688.74539,0.00056
3687.78101,0.00056
3686.81664,0.00047
3685.85226,0.00053
3684.88788,0.00069
3683.92350,0.00062
3682.95912,0.00063
3681.99475,0.00072
3681.03037,0.00069
3680.06599,0.00086
3679.10161,0.00064
3678.13724,0.00027
3677.17286,0.00058
3676.20848,0.00083
3675.24410,0.00053
3674.27972,0.00024
3673.31535,0.00047
3672.35097,0.00095
3671.38659,0.00099
3670.42221,0.00078
3669.45783,0.00053
3668.49346,0.00036
3667.52908,0.00057
3666.56470,0.00070
3665.60032,0.00064
3664.63594,0.00064
3663.67157,0.00064
3662.70719,0.00076
3661.74281,0.00086
3660.77843,0.00105
3659.81406,0.00115
3658.84968,0.00094
3657.88530,0.00077
3656.92092,0.00065
3655.95654,0.00085
3654.99217,0.00125
3654.02779,0.00148
3653.06341,0.00147
3652.09903,0.00096
3651.13465,0.00065
3650.17028,0.00097
3649.20590,0.00120
3648.24152,0.00119
3647.27714,0.00092
3646.31276,0.00054
3645.34839,0.00061
3644.38401,0.00104
3643.41963,0.00135
3642.45525,0.00141
3641.49088,0.00118
3640.52650,0.00086
3639.56212,0.00083
3638.59774,0.00111
3637.63336,0.00113
3636.66899,0.00098
3635.70461,0.00092
3634.74023,0.00075
3633.77585,0.00065
3632.81147,0.00068
3631.84710,0.00094
3630.88272,0.00129
3629.91834,0.00140
3628.95396,0.00163
3627.98959,0.00157
3627.02521,0.00142
3626.06083,0.00170
3625.09645,0.00158
3624.13207,0.00092
3623.16770,0.00053
3622.20332,0.00096
3621.23894,0.00153
3620.27456,0.00178
3619.31018,0.00161
3618.34581,0.00104
3617.38143,0.00095
3616.41705,0.00114
3615.45267,0.00123
3614.48829,0.00128
3613.52392,0.00111
3612.55954,0.00111
3611.59516,0.00121
3610.63078,0.00132
3609.66641,0.00134
3608.70203,0.00138
3607.73765,0.00145
3606.77327,0.00115
3605.80889,0.00106
3604.84452,0.00134
3603.88014,0.00138
3602.91576,0.00134
3601.95138,0.00148
3600.98700,0.00149
3600.02263,0.00134
3599.05825,0.00116
3598.09387,0.00105
3597.12949,0.00116
3596.16512,0.00127
3595.20074,0.00130
3594.23636,0.00101
3593.27198,0.00092
3592.30760,0.00107
3591.34323,0.00108
3590.37885,0.00190
3589.41447,0.00221
3588.45009,0.00140
3587.48571,0.00112
3586.52134,0.00118
3585.55696,0.00137
3584.59258,0.00134
3583.62820,0.00110
3582.66382,0.00124
3581.69945,0.00148
3580.73507,0.00136
3579.77069,0.00119
3578.80631,0.00135
3577.84194,0.00132
3576.87756,0.00140
3575.91318,0.00173
3574.94880,0.00186
3573.98442,0.00178
3573.02005,0.00162
3572.05567,0.00160
3571.09129,0.00143
3570.12691,0.00139
3569.16253,0.00156
3568.19816,0.00156
3567.23378,0.00136
3566.26940,0.00125
3565.30502,0.00140
3564.34065,0.00114
3563.37627,0.00132
3562.41189,0.00185
3561.44751,0.00165
3560.48313,0.00161
3559.51876,0.00148
3558.55438,0.00115
3557.59000,0.00115
3556.62562,0.00139
3555.66124,0.00178
3554.69687,0.00193
3553.73249,0.00185
3552.76811,0.00165
3551.80373,0.00155
3550.83935,0.00154
3549.87498,0.00157
3548.91060,0.00175
3547.94622,0.00173
3546.98184,0.00169
3546.01747,0.00176
3545.05309,0.00179
3544.08871,0.00175
3543.12433,0.00190
3542.15995,0.00197
3541.19558,0.00176
3540.23120,0.00186
3539.26682,0.00188
3538.30244,0.00160
3537.33806,0.00140
3536.37369,0.00165
3535.40931,0.00190
3534.44493,0.00154
3533.48055,0.00143
3532.51618,0.00160
3531.55180,0.00179
3530.58742,0.00180
3529.62304,0.00154
3528.65866,0.00163
3527.69429,0.00167
3526.72991,0.00188
3525.76553,0.00221
3524.80115,0.00219
3523.83677,0.00232
3522.87240,0.00234
3521.90802,0.00204
3520.94364,0.00174
3519.97926,0.00195
3519.01488,0.00229
3518.05051,0.00218
3517.08613,0.00201
3516.12175,0.00173
3515.15737,0.00166
3514.19300,0.00188
3513.22862,0.00190
3512.26424,0.00177
3511.29986,0.00182
3510.33548,0.00202
3509.37111,0.00194
3508.40673,0.00202
3507.44235,0.00217
3506.47797,0.00218
3505.51359,0.00223
3504.54922,0.00198
3503.58484,0.00197
3502.62046,0.00193
3501.65608,0.00183
3500.69171,0.00202
3499.72733,0.00188
3498.76295,0.00170
3497.79857,0.00179
3496.83419,0.00214
3495.86982,0.00233
3494.90544,0.00211
3493.94106,0.00196
3492.97668,0.00179
3492.01230,0.00179
3491.04793,0.00213
3490.08355,0.00247
3489.11917,0.00232
3488.15479,0.00195
3487.19041,0.00195
3486.22604,0.00185
3485.26166,0.00195
3484.29728,0.00241
3483.33290,0.00249
3482.36853,0.00226
3481.40415,0.00209
3480.43977,0.00234
3479.47539,0.00259
3478.51101,0.00243
3477.54664,0.00238
3476.58226,0.00229
3475.61788,0.00205
3474.65350,0.00246
3473.68912,0.00255
3472.72475,0.00210
3471.76037,0.00226
3470.79599,0.00229
3469.83161,0.00234
3468.86724,0.00247
3467.90286,0.00222
3466.93848,0.00225
3465.97410,0.00241
3465.00972,0.00237
3464.04535,0.00211
3463.08097,0.00209
3462.11659,0.00227
3461.15221,0.00216
3460.18783,0.00226
3459.22346,0.00241
3458.25908,0.00245
3457.29470,0.00248
3456.33032,0.00262
3455.36594,0.00292
3454.40157,0.00282
3453.43719,0.00256
3452.47281,0.00244
3451.50843,0.00236
3450.54406,0.00231
3449.57968,0.00239
3448.61530,0.00246
3447.65092,0.00246
3446.68654,0.00278
3445.72217,0.00273
3444.75779,0.00232
3443.79341,0.00233
3442.82903,0.00234
3441.86465,0.00250
3440.90028,0.00280
3439.93590,0.00254
3438.97152,0.00233
3438.00714,0.00261
3437.04276,0.00288
3436.07839,0.00312
3435.11401,0.00287
3434.14963,0.00248
3433.18525,0.00256
3432.22088,0.00256
3431.25650,0.00260
3430.29212,0.00272
3429.32774,0.00286
3428.36336,0.00294
3427.39899,0.00270
3426.43461,0.00248
3425.47023,0.00232
3424.50585,0.00244
3423.54147,0.00267
3422.57710,0.00270
3421.61272,0.00274
3420.64834,0.00275
3419.68396,0.00282
3418.71959,0.00288
3417.75521,0.00295
3416.79083,0.00276
3415.82645,0.00265
3414.86207,0.00292
3413.89770,0.00284
3412.93332,0.00281
3411.96894,0.00283
3411.00456,0.00277
3410.04018,0.00277
3409.07581,0.00263
3408.11143,0.00276
3407.14705,0.00281
3406.18267,0.00269
3405.21829,0.00266
3404.25392,0.00272
3403.28954,0.00317
3402.32516,0.00324
3401.36078,0.00280
3400.39641,0.00259
3399.43203,0.00273
3398.46765,0.00285
3397.50327,0.00302
3396.53889,0.00324
3395.57452,0.00306
3394.61014,0.00305
3393.64576,0.00319
3392.68138,0.00315
3391.71700,0.00319
3390.75263,0.00313
3389.78825,0.00304
3388.82387,0.00288
3387.85949,0.00270
3386.89512,0.00279
3385.93074,0.00308
3384.96636,0.00309
3384.00198,0.00272
3383.03760,0.00269
3382.07323,0.00288
3381.10885,0.00290
3380.14447,0.00285
3379.18009,0.00297
3378.21571,0.00336
3377.25134,0.00341
3376.28696,0.00306
3375.32258,0.00281
3374.35820,0.00289
3373.39382,0.00310
3372.42945,0.00318
3371.46507,0.00313
3370.50069,0.00306
3369.53631,0.00328
3368.57194,0.00337
3367.60756,0.00322
3366.64318,0.00324
3365.67880,0.00309
3364.71442,0.00294
3363.75005,0.00300
3362.78567,0.00304
3361.82129,0.00315
3360.85691,0.00321
3359.89253,0.00307
3358.92816,0.00296
3357.96378,0.00291
3356.99940,0.00298
3356.03502,0.00315
3355.07065,0.00303
3354.10627,0.00282
3353.14189,0.00293
3352.17751,0.00303
3351.21313,0.00292
3350.24876,0.00284
3349.28438,0.00293
3348.32000,0.00307
3347.35562,0.00330
3346.39124,0.00346
3345.42687,0.00329
3344.46249,0.00319
3343.49811,0.00322
3342.53373,0.00310
3341.56935,0.00303
3340.60498,0.00315
3339.64060,0.00325
3338.67622,0.00331
3337.71184,0.00324
3336.74747,0.00317
3335.78309,0.00351
3334.81871,0.00351
3333.85433,0.00317
3332.88995,0.00339
3331.92558,0.00361
3330.96120,0.00331
3329.99682,0.00315
3329.03244,0.00318
3328.06806,0.00309
3327.10369,0.00336
3326.13931,0.00370
3325.17493,0.00359
3324.21055,0.00344
3323.24618,0.00322
3322.28180,0.00308
3321.31742,0.00314
3320.35304,0.00302
3319.38866,0.00306
3318.42429,0.00330
3317.45991,0.00329
3316.49553,0.00328
3315.53115,0.00346
3314.56677,0.00346
3313.60240,0.00342
3312.63802,0.00351
3311.67364,0.00341
3310.70926,0.00349
3309.74488,0.00366
3308.78051,0.00336
3307.81613,0.00319
3306.85175,0.00346
3305.88737,0.00355
3304.92300,0.00343
3303.95862,0.00324
3302.99424,0.00312
3302.02986,0.00319
3301.06548,0.00322
3300.10111,0.00310
3299.13673,0.00307
3298.17235,0.00324
3297.20797,0.00332
3296.24359,0.00342
3295.27922,0.00351
3294.31484,0.00323
3293.35046,0.00303
3292.38608,0.00312
3291.42171,0.00336
3290.45733,0.00352
3289.49295,0.00339
3288.52857,0.00331
3287.56419,0.00324
3286.59982,0.00303
3285.63544,0.00293
3284.67106,0.00324
3283.70668,0.00343
3282.74230,0.00308
3281.77793,0.00298
3280.81355,0.00317
3279.84917,0.00347
3278.88479,0.00353
3277.92041,0.00311
3276.95604,0.00294
3275.99166,0.00311
3275.02728,0.00331
3274.06290,0.00342
3273.09853,0.00342
3272.13415,0.00319
3271.16977,0.00303
3270.20539,0.00318
3269.24101,0.00315
3268.27664,0.00327
3267.31226,0.00351
3266.34788,0.00337
3265.38350,0.00319
3264.41912,0.00312
3263.45475,0.00311
3262.49037,0.00294
3261.52599,0.00277
3260.56161,0.00288
3259.59724,0.00307
3258.63286,0.00317
3257.66848,0.00315
3256.70410,0.00322
3255.73972,0.00334
3254.77535,0.00341
3253.81097,0.00338
3252.84659,0.00315
3251.88221,0.00300
3250.91783,0.00311
3249.95346,0.00326
3248.98908,0.00320
3248.02470,0.00307
3247.06032,0.00298
3246.09594,0.00298
3245.13157,0.00309
3244.16719,0.00308
3243.20281,0.00291
3242.23843,0.00284
3241.27406,0.00291
3240.30968,0.00301
3239.34530,0.00318
3238.38092,0.00315
3237.41654,0.00290
3236.45217,0.00274
3235.48779,0.00281
3234.52341,0.00299
3233.55903,0.00286
3232.59465,0.00279
3231.63028,0.00301
3230.66590,0.00310
3229.70152,0.00316
3228.73714,0.00301
3227.77276,0.00267
3226.80839,0.00245
3225.84401,0.00248
3224.87963,0.00257
3223.91525,0.00260
3222.95088,0.00271
3221.98650,0.00285
3221.02212,0.00303
3220.05774,0.00301
3219.09336,0.00286
3218.12899,0.00284
3217.16461,0.00292
3216.20023,0.00304
3215.23585,0.00288
3214.27147,0.00279
3213.30710,0.00273
3212.34272,0.00249
3211.37834,0.00281
3210.41396,0.00317
3209.44959,0.00299
3208.48521,0.00297
3207.52083,0.00326
3206.55645,0.00313
3205.59207,0.00278
3204.62770,0.00290
3203.66332,0.00292
3202.69894,0.00268
3201.73456,0.00274
3200.77018,0.00282
3199.80581,0.00265
3198.84143,0.00258
3197.87705,0.00268
3196.91267,0.00271
3195.94829,0.00267
3194.98392,0.00261
3194.01954,0.00269
3193.05516,0.00290
3192.09078,0.00295
3191.12641,0.00292
3190.16203,0.00279
3189.19765,0.00276
3188.23327,0.00279
3187.26889,0.00255
3186.30452,0.00243
3185.34014,0.00264
3184.37576,0.00293
3183.41138,0.00294
3182.44700,0.00282
3181.48263,0.00293
3180.51825,0.00299
3179.55387,0.00297
3178.58949,0.00287
3177.62512,0.00264
3176.66074,0.00253
3175.69636,0.00257
3174.73198,0.00272
3173.76760,0.00278
3172.80323,0.00293
3171.83885,0.00323
3170.87447,0.00302
3169.91009,0.00280
3168.94571,0.00279
3167.98134,0.00268
3167.01696,0.00280
3166.05258,0.00280
3165.08820,0.00283
3164.12382,0.00293
3163.15945,0.00272
3162.19507,0.00262
3161.23069,0.00252
3160.26631,0.00237
3159.30194,0.00236
3158.33756,0.00249
3157.37318,0.00266
3156.40880,0.00259
3155.44442,0.00249
3154.48005,0.00243
3153.51567,0.00231
3152.55129,0.00244
3151.58691,0.00262
3150.62253,0.00266
3149.65816,0.00279
3148.69378,0.00281
3147.72940,0.00253
3146.76502,0.00235
3145.80065,0.00248
3144.83627,0.00272
3143.87189,0.00274
3142.90751,0.00258
3141.94313,0.00255
3140.97876,0.00245
3140.01438,0.00254
3139.05000,0.00273
3138.08562,0.00252
3137.12124,0.00224
3136.15687,0.00213
3135.19249,0.00218
3134.22811,0.00214
3133.26373,0.00197
3132.29935,0.00219
3131.33498,0.00243
3130.37060,0.00236
3129.40622,0.00250
3128.44184,0.00274
3127.47747,0.00268
3126.51309,0.00247
3125.54871,0.00238
3124.58433,0.00231
3123.61995,0.00219
3122.65558,0.00222
3121.69120,0.00238
3120.72682,0.00243
3119.76244,0.00245
3118.79806,0.00257
3117.83369,0.00254
3116.86931,0.00227
3115.90493,0.00208
3114.94055,0.00217
3113.97618,0.00246
3113.01180,0.00259
3112.04742,0.00238
3111.08304,0.00243
3110.11866,0.00261
3109.15429,0.00240
3108.18991,0.00224
3107.22553,0.00230
3106.26115,0.00228
3105.29677,0.00221
3104.33240,0.00214
3103.36802,0.00216
3102.40364,0.00223
3101.43926,0.00221
3100.47488,0.00216
3099.51051,0.00218
3098.54613,0.00211
3097.58175,0.00208
3096.61737,0.00228
3095.65300,0.00229
3094.68862,0.00217
3093.72424,0.00214
3092.75986,0.00207
3091.79548,0.00217
3090.83111,0.00234
3089.86673,0.00232
3088.90235,0.00230
3087.93797,0.00218
3086.97359,0.00198
3086.00922,0.00201
3085.04484,0.00223
3084.08046,0.00231
3083.11608,0.00211
3082.15171,0.00207
3081.18733,0.00217
3080.22295,0.00219
3079.25857,0.00225
3078.29419,0.00221
3077.32982,0.00221
3076.36544,0.00229
3075.40106,0.00229
3074.43668,0.00228
3073.47230,0.00218
3072.50793,0.00220
3071.54355,0.00223
3070.57917,0.00222
3069.61479,0.00233
3068.65041,0.00229
3067.68604,0.00217
3066.72166,0.00201
3065.75728,0.00197
3064.79290,0.00218
3063.82853,0.00232
3062.86415,0.00231
3061.89977,0.00214
3060.93539,0.00209
3059.97101,0.00215
3059.00664,0.00213
3058.04226,0.00229
3057.07788,0.00240
3056.11350,0.00245
3055.14912,0.00242
3054.18475,0.00204
3053.22037,0.00179
3052.25599,0.00183
3051.29161,0.00193
3050.32724,0.00186
3049.36286,0.00165
3048.39848,0.00166
3047.43410,0.00183
3046.46972,0.00195
3045.50535,0.00196
3044.54097,0.00191
3043.57659,0.00195
3042.61221,0.00207
3041.64783,0.00216
3040.68346,0.00207
3039.71908,0.00194
3038.75470,0.00212
3037.79032,0.00233
3036.82594,0.00213
3035.86157,0.00200
3034.89719,0.00212
3033.93281,0.00204
3032.96843,0.00188
3032.00406,0.00194
3031.03968,0.00198
3030.07530,0.00202
3029.11092,0.00214
3028.14654,0.00206
3027.18217,0.00194
3026.21779,0.00191
3025.25341,0.00195
3024.28903,0.00191
3023.32465,0.00190
3022.36028,0.00215
3021.39590,0.00204
3020.43152,0.00182
3019.46714,0.00207
3018.50276,0.00234
3017.53839,0.00235
3016.57401,0.00211
3015.60963,0.00202
3014.64525,0.00201
3013.68088,0.00177
3012.71650,0.00176
3011.75212,0.00199
3010.78774,0.00208
3009.82336,0.00198
3008.85899,0.00189
3007.89461,0.00194
3006.93023,0.00187
3005.96585,0.00182
3005.00147,0.00200
3004.03710,0.00207
3003.07272,0.00202
3002.10834,0.00218
3001.14396,0.00237
3000.17959,0.00234
2999.21521,0.00217
2998.25083,0.00200
2997.28645,0.00203
2996.32207,0.00216
2995.35770,0.00218
2994.39332,0.00203
2993.42894,0.00194
2992.46456,0.00195
2991.50018,0.00180
2990.53581,0.00181
2989.57143,0.00194
2988.60705,0.00195
2987.64267,0.00203
2986.67829,0.00208
2985.71392,0.00214
2984.74954,0.00217
2983.78516,0.00206
2982.82078,0.00192
2981.85641,0.00183
2980.89203,0.00181
2979.92765,0.00179
2978.96327,0.00190
2977.99889,0.00211
2977.03452,0.00215
2976.07014,0.00201
2975.10576,0.00197
2974.14138,0.00216
2973.17700,0.00242
2972.21263,0.00260
2971.24825,0.00249
2970.28387,0.00226
2969.31949,0.00230
2968.35512,0.00246
2967.39074,0.00244
2966.42636,0.00231
2965.46198,0.00220
2964.49760,0.00210
2963.53323,0.00207
2962.56885,0.00213
2961.60447,0.00212
2960.64009,0.00218
2959.67571,0.00236
2958.71134,0.00248
2957.74696,0.00258
2956.78258,0.00260
2955.81820,0.00260
2954.85382,0.00257
2953.88945,0.00238
2952.92507,0.00233
2951.96069,0.00248
2950.99631,0.00252
2950.03194,0.00256
2949.06756,0.00246
2948.10318,0.00225
2947.13880,0.00218
2946.17442,0.00216
2945.21005,0.00225
2944.24567,0.00248
2943.28129,0.00261
2942.31691,0.00250
2941.35253,0.00246
2940.38816,0.00271
2939.42378,0.00272
2938.45940,0.00262
2937.49502,0.00281
2936.53065,0.00295
2935.56627,0.00303
2934.60189,0.00307
2933.63751,0.00302
2932.67313,0.00306
2931.70876,0.00325
2930.74438,0.00343
2929.78000,0.00348
2928.81562,0.00343
2927.85124,0.00336
2926.88687,0.00335
2925.92249,0.00339
2924.95811,0.00347
2923.99373,0.00355
2923.02935,0.00356
2922.06498,0.00357
2921.10060,0.00354
2920.13622,0.00351
2919.17184,0.00348
2918.20747,0.00328
2917.24309,0.00306
2916.27871,0.00304
2915.31433,0.00313
2914.34995,0.00311
2913.38558,0.00306
2912.42120,0.00302
2911.45682,0.00285
2910.49244,0.00269
2909.52806,0.00276
2908.56369,0.00284
2907.59931,0.00259
2906.63493,0.00239
2905.67055,0.00247
2904.70618,0.00249
2903.74180,0.00242
2902.77742,0.00231
2901.81304,0.00216
2900.84866,0.00210
2899.88429,0.00211
2898.91991,0.00211
2897.95553,0.00211
2896.99115,0.00221
2896.02677,0.00234
2895.06240,0.00229
2894.09802,0.00220
2893.13364,0.00218
2892.16926,0.00227
2891.20488,0.00236
2890.24051,0.00227
2889.27613,0.00214
2888.31175,0.00216
2887.34737,0.00224
2886.38300,0.00213
2885.41862,0.00193
2884.45424,0.00193
2883.48986,0.00200
2882.52548,0.00209
2881.56111,0.00219
2880.59673,0.00217
2879.63235,0.00214
2878.66797,0.00211
2877.70359,0.00212
2876.73922,0.00206
2875.77484,0.00204
2874.81046,0.00213
2873.84608,0.00207
2872.88171,0.00204
2871.91733,0.00214
2870.95295,0.00214
2869.98857,0.00211
2869.02419,0.00221
2868.05982,0.00234
2867.09544,0.00231
2866.13106,0.00226
2865.16668,0.00231
2864.20230,0.00231
2863.23793,0.00230
2862.27355,0.00244
2861.30917,0.00260
2860.34479,0.00248
2859.38041,0.00232
2858.41604,0.00229
2857.45166,0.00234
2856.48728,0.00242
2855.52290,0.00238
2854.55853,0.00247
2853.59415,0.00267
2852.62977,0.00264
2851.66539,0.00254
2850.70101,0.00249
2849.73664,0.00240
2848.77226,0.00228
2847.80788,0.00225
2846.84350,0.00217
2845.87912,0.00211
2844.91475,0.00220
2843.95037,0.00218
2842.98599,0.00211
2842.02161,0.00204
2841.05724,0.00202
2840.09286,0.00203
2839.12848,0.00190
2838.16410,0.00180
2837.19972,0.00175
2836.23535,0.00172
2835.27097,0.00189
2834.30659,0.00204
2833.34221,0.00200
2832.37783,0.00200
2831.41346,0.00196
2830.44908,0.00189
2829.48470,0.00184
2828.52032,0.00164
2827.55594,0.00158
2826.59157,0.00163
2825.62719,0.00163
2824.66281,0.00175
2823.69843,0.00177
2822.73406,0.00171
2821.76968,0.00176
2820.80530,0.00171
2819.84092,0.00164
2818.87654,0.00164
2817.91217,0.00163
2816.94779,0.00162
2815.98341,0.00165
2815.01903,0.00180
2814.05465,0.00184
2813.09028,0.00170
2812.12590,0.00165
2811.16152,0.00168
2810.19714,0.00165
2809.23276,0.00149
2808.26839,0.00143
2807.30401,0.00155
2806.33963,0.00151
2805.37525,0.00135
2804.41088,0.00131
2803.44650,0.00143
2802.48212,0.00158
2801.51774,0.00162
2800.55336,0.00169
2799.58899,0.00169
2798.62461,0.00157
2797.66023,0.00152
2796.69585,0.00158
2795.73147,0.00169
2794.76710,0.00166
2793.80272,0.00164
2792.83834,0.00174
2791.87396,0.00172
2790.90959,0.00163
2789.94521,0.00163
2788.98083,0.00159
2788.01645,0.00150
2787.05207,0.00156
2786.08770,0.00166
2785.12332,0.00164
2784.15894,0.00160
2783.19456,0.00156
2782.23018,0.00154
2781.26581,0.00159
2780.30143,0.00162
2779.33705,0.00150
2778.37267,0.00152
2777.40829,0.00163
2776.44392,0.00160
2775.47954,0.00170
2774.51516,0.00171
2773.55078,0.00161
2772.58641,0.00160
2771.62203,0.00158
2770.65765,0.00159
2769.69327,0.00157
2768.72889,0.00157
2767.76452,0.00161
2766.80014,0.00163
2765.83576,0.00166
2764.87138,0.00156
2763.90700,0.00148
2762.94263,0.00148
2761.97825,0.00144
2761.01387,0.00140
2760.04949,0.00148
2759.08512,0.00156
2758.12074,0.00149
2757.15636,0.00145
2756.19198,0.00152
2755.22760,0.00157
2754.26323,0.00157
2753.29885,0.00155
2752.33447,0.00159
2751.37009,0.00161
2750.40571,0.00157
2749.44134,0.00149
2748.47696,0.00140
2747.51258,0.00143
2746.54820,0.00151
2745.58382,0.00155
2744.61945,0.00160
2743.65507,0.00150
2742.69069,0.00137
2741.72631,0.00146
2740.76194,0.00160
2739.79756,0.00159
2738.83318,0.00145
2737.86880,0.00145
2736.90442,0.00152
2735.94005,0.00150
2734.97567,0.00152
2734.01129,0.00154
2733.04691,0.00148
2732.08253,0.00137
2731.11816,0.00123
2730.15378,0.00128
2729.18940,0.00149
2728.22502,0.00161
2727.26065,0.00151
2726.29627,0.00137
2725.33189,0.00139
2724.36751,0.00149
2723.40313,0.00148
2722.43876,0.00141
2721.47438,0.00139
2720.51000,0.00142
2719.54562,0.00143
2718.58124,0.00142
2717.61687,0.00139
2716.65249,0.00130
2715.68811,0.00131
2714.72373,0.00143
2713.75935,0.00150
2712.79498,0.00153
2711.83060,0.00154
2710.86622,0.00152
2709.90184,0.00154
2708.93747,0.00155
2707.97309,0.00149
2707.00871,0.00144
2706.04433,0.00144
2705.07995,0.00144
2704.11558,0.00142
2703.15120,0.00141
2702.18682,0.00141
2701.22244,0.00144
2700.25806,0.00153
2699.29369,0.00149
2698.32931,0.00136
2697.36493,0.00144
2696.40055,0.00152
2695.43618,0.00148
2694.47180,0.00152
2693.50742,0.00157
2692.54304,0.00165
2691.57866,0.00168
2690.61429,0.00153
2689.64991,0.00138
2688.68553,0.00136
2687.72115,0.00141
2686.75677,0.00144
2685.79240,0.00144
2684.82802,0.00135
2683.86364,0.00127
2682.89926,0.00127
2681.93488,0.00134
2680.97051,0.00148
2680.00613,0.00152
2679.04175,0.00143
2678.07737,0.00142
2677.11300,0.00148
2676.14862,0.00149
2675.18424,0.00149
2674.21986,0.00140
2673.25548,0.00120
2672.29111,0.00114
2671.32673,0.00117
2670.36235,0.00126
2669.39797,0.00139
2668.43359,0.00133
2667.46922,0.00140
2666.50484,0.00155
2665.54046,0.00148
2664.57608,0.00140
2663.61171,0.00139
2662.64733,0.00144
2661.68295,0.00145
2660.71857,0.00136
2659.75419,0.00130
2658.78982,0.00125
2657.82544,0.00130
2656.86106,0.00136
2655.89668,0.00132
2654.93230,0.00134
2653.96793,0.00132
2653.00355,0.00131
2652.03917,0.00132
2651.07479,0.00130
2650.11041,0.00131
2649.14604,0.00133
2648.18166,0.00136
2647.21728,0.00130
2646.25290,0.00124
2645.28853,0.00134
2644.32415,0.00136
2643.35977,0.00136
2642.39539,0.00146
2641.43101,0.00152
2640.46664,0.00151
2639.50226,0.00146
2638.53788,0.00125
2637.57350,0.00101
2636.60912,0.00108
2635.64475,0.00121
2634.68037,0.00124
2633.71599,0.00133
2632.75161,0.00126
2631.78724,0.00120
2630.82286,0.00126
2629.85848,0.00119
2628.89410,0.00116
2627.92972,0.00131
2626.96535,0.00138
2626.00097,0.00129
2625.03659,0.00127
2624.07221,0.00133
2623.10783,0.00129
2622.14346,0.00134
2621.17908,0.00139
2620.21470,0.00130
2619.25032,0.00122
2618.28594,0.00127
2617.32157,0.00126
2616.35719,0.00117
2615.39281,0.00124
2614.42843,0.00122
2613.46406,0.00106
2612.49968,0.00118
2611.53530,0.00135
2610.57092,0.00145
2609.60654,0.00160
2608.64217,0.00150
2607.67779,0.00118
2606.71341,0.00110
2605.74903,0.00121
2604.78465,0.00119
2603.82028,0.00114
2602.85590,0.00120
2601.89152,0.00118
2600.92714,0.00110
2599.96276,0.00112
2598.99839,0.00122
2598.03401,0.00127
2597.06963,0.00115
2596.10525,0.00111
2595.14088,0.00116
2594.17650,0.00093
2593.21212,0.00090
2592.24774,0.00117
2591.28336,0.00114
2590.31899,0.00102
2589.35461,0.00101
2588.39023,0.00109
2587.42585,0.00130
2586.46147,0.00116
2585.49710,0.00082
2584.53272,0.00105
2583.56834,0.00137
2582.60396,0.00118
2581.63959,0.00108
2580.67521,0.00128
2579.71083,0.00113
2578.74645,0.00098
2577.78207,0.00118
2576.81770,0.00120
2575.85332,0.00091
2574.88894,0.00065
2573.92456,0.00094
2572.96018,0.00142
2571.99581,0.00132
2571.03143,0.00107
2570.06705,0.00079
2569.10267,0.00067
2568.13829,0.00098
2567.17392,0.00118
2566.20954,0.00121
2565.24516,0.00109
2564.28078,0.00119
2563.31641,0.00154
2562.35203,0.00167
2561.38765,0.00160
2560.42327,0.00125
2559.45889,0.00109
2558.49452,0.00122
2557.53014,0.00115
2556.56576,0.00111
2555.60138,0.00121
2554.63700,0.00119
2553.67263,0.00107
2552.70825,0.00100
2551.74387,0.00093
2550.77949,0.00094
2549.81512,0.00107
2548.85074,0.00120
2547.88636,0.00145
2546.92198,0.00163
2545.95760,0.00160
2544.99323,0.00163
2544.02885,0.00174
2543.06447,0.00149
2542.10009,0.00106
2541.13571,0.00123
2540.17134,0.00152
2539.20696,0.00139
2538.24258,0.00128
2537.27820,0.00120
2536.31382,0.00101
2535.34945,0.00107
2534.38507,0.00137
2533.42069,0.00140
2532.45631,0.00103
2531.49194,0.00086
2530.52756,0.00119
2529.56318,0.00128
2528.59880,0.00110
2527.63442,0.00111
2526.67005,0.00111
2525.70567,0.00110
2524.74129,0.00111
2523.77691,0.00113
2522.81253,0.00115
2521.84816,0.00098
2520.88378,0.00072
2519.91940,0.00085
2518.95502,0.00128
2517.99065,0.00123
2517.02627,0.00097
2516.06189,0.00101
2515.09751,0.00100
2514.13313,0.00091
2513.16876,0.00078
2512.20438,0.00072
2511.24000,0.00077
2510.27562,0.00079
2509.31124,0.00088
2508.34687,0.00097
2507.38249,0.00108
2506.41811,0.00114
2505.45373,0.00082
2504.48935,0.00046
2503.52498,0.00060
2502.56060,0.00102
2501.59622,0.00107
2500.63184,0.00080
2499.66747,0.00083
2498.70309,0.00113
2497.73871,0.00137
2496.77433,0.00145
2495.80995,0.00138
2494.84558,0.00124
2493.88120,0.00107
2492.91682,0.00112
2491.95244,0.00125
2490.98806,0.00126
2490.02369,0.00147
2489.05931,0.00132
2488.09493,0.00096
2487.13055,0.00101
2486.16618,0.00113
2485.20180,0.00121
2484.23742,0.00102
2483.27304,0.00095
2482.30866,0.00121
2481.34429,0.00130
2480.37991,0.00117
2479.41553,0.00112
2478.45115,0.00135
2477.48677,0.00139
2476.52240,0.00131
2475.55802,0.00146
2474.59364,0.00144
2473.62926,0.00134
2472.66488,0.00110
2471.70051,0.00079
2470.73613,0.00079
2469.77175,0.00082
2468.80737,0.00063
2467.84300,0.00046
2466.87862,0.00051
2465.91424,0.00083
2464.94986,0.00124
2463.98548,0.00115
2463.02111,0.00093
2462.05673,0.00103
2461.09235,0.00093
2460.12797,0.00087
2459.16359,0.00102
2458.19922,0.00093
2457.23484,0.00089
2456.27046,0.00119
2455.30608,0.00119
2454.34171,0.00085
2453.37733,0.00080
2452.41295,0.00078
2451.44857,0.00084
2450.48419,0.00110
2449.51982,0.00120
2448.55544,0.00114
2447.59106,0.00106
2446.62668,0.00107
2445.66230,0.00104
2444.69793,0.00105
2443.73355,0.00095
2442.76917,0.00066
2441.80479,0.00069
2440.84041,0.00086
2439.87604,0.00100
2438.91166,0.00105
2437.94728,0.00105
2436.98290,0.00114
2436.01853,0.00095
2435.05415,0.00098
2434.08977,0.00135
2433.12539,0.00132
2432.16101,0.00112
2431.19664,0.00104
2430.23226,0.00109
2429.26788,0.00112
2428.30350,0.00108
2427.33912,0.00098
2426.37475,0.00080
2425.41037,0.00086
2424.44599,0.00105
2423.48161,0.00108
2422.51724,0.00094
2421.55286,0.00081
2420.58848,0.00107
2419.62410,0.00125
2418.65972,0.00099
2417.69535,0.00085
2416.73097,0.00107
2415.76659,0.00125
2414.80221,0.00108
2413.83783,0.00093
2412.87346,0.00110
2411.90908,0.00129
2410.94470,0.00141
2409.98032,0.00136
2409.01594,0.00086
2408.05157,0.00055
2407.08719,0.00096
2406.12281,0.00105
2405.15843,0.00076
2404.19406,0.00080
2403.22968,0.00104
2402.26530,0.00124
2401.30092,0.00117
2400.33654,0.00100
2399.37217,0.00099
2398.40779,0.00108
2397.44341,0.00113
2396.47903,0.00099
2395.51465,0.00105
2394.55028,0.00125
2393.58590,0.00125
2392.62152,0.00105
2391.65714,0.00095
2390.69276,0.00121
2389.72839,0.00126
2388.76401,0.00105
2387.79963,0.00100
2386.83525,0.00100
2385.87088,0.00114
2384.90650,0.00121
2383.94212,0.00105
2382.97774,0.00104
2382.01336,0.00111
2381.04899,0.00110
2380.08461,0.00116
2379.12023,0.00136
2378.15585,0.00167
2377.19147,0.00189
2376.22710,0.00190
2375.26272,0.00204
2374.29834,0.00237
2373.33396,0.00257
2372.36959,0.00272
2371.40521,0.00290
2370.44083,0.00305
2369.47645,0.00336
2368.51207,0.00363
2367.54770,0.00362
2366.58332,0.00360
2365.61894,0.00367
2364.65456,0.00368
2363.69018,0.00372
2362.72581,0.00387
2361.76143,0.00397
2360.79705,0.00393
2359.83267,0.00398
2358.86829,0.00407
2357.90392,0.00393
2356.93954,0.00358
2355.97516,0.00331
2355.01078,0.00327
2354.04641,0.00317
2353.08203,0.00294
2352.11765,0.00270
2351.15327,0.00224
2350.18889,0.00174
2349.22452,0.00169
2348.26014,0.00193
2347.29576,0.00214
2346.33138,0.00237
2345.36700,0.00263
2344.40263,0.00276
2343.43825,0.00287
2342.47387,0.00302
2341.50949,0.00309
2340.54512,0.00311
2339.58074,0.00307
2338.61636,0.00296
2337.65198,0.00300
2336.68760,0.00311
2335.72323,0.00312
2334.75885,0.00305
2333.79447,0.00308
2332.83009,0.00314
2331.86571,0.00308
2330.90134,0.00303
2329.93696,0.00288
2328.97258,0.00282
2328.00820,0.00298
2327.04382,0.00295
2326.07945,0.00274
2325.11507,0.00263
2324.15069,0.00271
2323.18631,0.00268
2322.22194,0.00242
2321.25756,0.00224
2320.29318,0.00202
2319.32880,0.00195
2318.36442,0.00219
2317.40005,0.00231
2316.43567,0.00213
2315.47129,0.00189
2314.50691,0.00174
2313.54253,0.00156
2312.57816,0.00150
2311.61378,0.00150
2310.64940,0.00147
2309.68502,0.00168
2308.72065,0.00194
2307.75627,0.00192
2306.79189,0.00169
2305.82751,0.00143
2304.86313,0.00136
2303.89876,0.00158
2302.93438,0.00159
2301.97000,0.00114
2301.00562,0.00091
2300.04124,0.00100
2299.07687,0.00109
2298.11249,0.00104
2297.14811,0.00074
2296.18373,0.00045
2295.21935,0.00044
2294.25498,0.00079
2293.29060,0.00116
2292.32622,0.00118
2291.36184,0.00125
2290.39747,0.00134
2289.43309,0.00130
2288.46871,0.00118
2287.50433,0.00094
2286.53995,0.00122
2285.57558,0.00143
2284.61120,0.00091
2283.64682,0.00073
2282.68244,0.00073
2281.71806,0.00077
2280.75369,0.00095
2279.78931,0.00106
2278.82493,0.00129
2277.86055,0.00123
2276.89618,0.00116
2275.93180,0.00142
2274.96742,0.00171
2274.00304,0.00193
2273.03866,0.00152
2272.07429,0.00081
2271.10991,0.00095
2270.14553,0.00095
2269.18115,0.00095
2268.21677,0.00095
2267.25240,0.00095
2266.28802,0.00095
2265.32364,0.00095
2264.35926,0.00095
2263.39488,0.00095
2262.43051,0.00095
2261.46613,0.00094
2260.50175,0.00094
2259.53737,0.00094
2258.57300,0.00094
2257.60862,0.00094
2256.64424,0.00094
2255.67986,0.00094
2254.71548,0.00094
2253.75111,0.00094
2252.78673,0.00094
2251.82235,0.00094
2250.85797,0.00093
2249.89359,0.00093
2248.92922,0.00093
2247.96484,0.00093
2247.00046,0.00093
2246.03608,0.00093
2245.07171,0.00093
2244.10733,0.00093
2243.14295,0.00093
2242.17857,0.00093
2241.21419,0.00093
2240.24982,0.00092
2239.28544,0.00092
2238.32106,0.00092
2237.35668,0.00092
2236.39230,0.00092
2235.42793,0.00092
2234.46355,0.00092
2233.49917,0.00092
2232.53479,0.00092
2231.57041,0.00092
2230.60604,0.00092
2229.64166,0.00092
2228.67728,0.00091
2227.71290,0.00091
2226.74853,0.00091
2225.78415,0.00091
2224.81977,0.00091
2223.85539,0.00091
2222.89101,0.00091
2221.92664,0.00091
2220.96226,0.00091
2219.99788,0.00091
2219.03350,0.00091
2218.06912,0.00090
2217.10475,0.00090
2216.14037,0.00090
2215.17599,0.00090
2214.21161,0.00090
2213.24724,0.00090
2212.28286,0.00090
2211.31848,0.00090
2210.35410,0.00090
2209.38972,0.00090
2208.42535,0.00090
2207.46097,0.00089
2206.49659,0.00089
2205.53221,0.00089
2204.56783,0.00089
2203.60346,0.00089
2202.63908,0.00089
2201.67470,0.00089
2200.71032,0.00089
2199.74594,0.00089
2198.78157,0.00089
2197.81719,0.00089
2196.85281,0.00088
2195.88843,0.00088
2194.92406,0.00088
2193.95968,0.00088
2192.99530,0.00088
2192.03092,0.00088
2191.06654,0.00088
2190.10217,0.00088
2189.13779,0.00088
2188.17341,0.00088
2187.20903,0.00088
2186.24465,0.00088
2185.28028,0.00087
2184.31590,0.00087
2183.35152,0.00087
2182.38714,0.00087
2181.42276,0.00087
2180.45839,0.00087
2179.49401,0.00087
2178.52963,0.00087
2177.56525,0.00087
2176.60088,0.00087
2175.63650,0.00087
2174.67212,0.00086
2173.70774,0.00086
2172.74336,0.00086
2171.77899,0.00086
2170.81461,0.00086
2169.85023,0.00086
2168.88585,0.00086
2167.92147,0.00086
2166.95710,0.00086
2165.99272,0.00086
2165.02834,0.00086
2164.06396,0.00085
2163.09959,0.00085
2162.13521,0.00085
2161.17083,0.00085
2160.20645,0.00085
2159.24207,0.00085
2158.27770,0.00085
2157.31332,0.00085
2156.34894,0.00085
2155.38456,0.00085
2154.42018,0.00085
2153.45581,0.00084
2152.49143,0.00084
2151.52705,0.00084
2150.56267,0.00084
2149.59829,0.00084
2148.63392,0.00084
2147.66954,0.00084
2146.70516,0.00084
2145.74078,0.00084
2144.77641,0.00084
2143.81203,0.00084
2142.84765,0.00084
2141.88327,0.00083
2140.91889,0.00083
2139.95452,0.00083
2138.99014,0.00083
2138.02576,0.00083
2137.06138,0.00083
2136.09700,0.00083
2135.13263,0.00083
2134.16825,0.00083
2133.20387,0.00083
2132.23949,0.00083
2131.27512,0.00082
2130.31074,0.00082
2129.34636,0.00082
2128.38198,0.00082
2127.41760,0.00082
2126.45323,0.00082
2125.48885,0.00082
2124.52447,0.00082
2123.56009,0.00082
2122.59571,0.00082
2121.63134,0.00082
2120.66696,0.00081
2119.70258,0.00081
2118.73820,0.00081
2117.77382,0.00081
2116.80945,0.00081
2115.84507,0.00081
2114.88069,0.00081
2113.91631,0.00081
2112.95194,0.00081
2111.98756,0.00081
2111.02318,0.00081
2110.05880,0.00080
2109.09442,0.00080
2108.13005,0.00080
2107.16567,0.00080
2106.20129,0.00080
2105.23691,0.00080
2104.27253,0.00080
2103.30816,0.00080
2102.34378,0.00080
2101.37940,0.00080
2100.41502,0.00080
2099.45065,0.00079
2098.48627,0.00079
2097.52189,0.00079
2096.55751,0.00079
2095.59313,0.00079
2094.62876,0.00079
2093.66438,0.00079
2092.70000,0.00079
2091.73562,0.00079
2090.77124,0.00079
2089.80687,0.00079
2088.84249,0.00079
2087.87811,0.00078
2086.91373,0.00078
2085.94935,0.00078
2084.98498,0.00078
2084.02060,0.00078
2083.05622,0.00078
2082.09184,0.00078
2081.12747,0.00078
2080.16309,0.00078
2079.19871,0.00078
2078.23433,0.00078
2077.26995,0.00077
2076.30558,0.00077
2075.34120,0.00077
2074.37682,0.00077
2073.41244,0.00077
2072.44806,0.00077
2071.48369,0.00077
2070.51931,0.00077
2069.55493,0.00077
2068.59055,0.00077
2067.62618,0.00077
2066.66180,0.00076
2065.69742,0.00076
2064.73304,0.00076
2063.76866,0.00076
2062.80429,0.00076
2061.83991,0.00076
2060.87553,0.00076
2059.91115,0.00076
2058.94677,0.00076
2057.98240,0.00076
2057.01802,0.00076
2056.05364,0.00075
2055.08926,0.00075
2054.12488,0.00075
2053.16051,0.00075
2052.19613,0.00075
2051.23175,0.00075
2050.26737,0.00075
2049.30300,0.00075
2048.33862,0.00075
2047.37424,0.00075
2046.40986,0.00075
2045.44548,0.00075
2044.48111,0.00074
2043.51673,0.00074
2042.55235,0.00074
2041.58797,0.00074
2040.62359,0.00074
2039.65922,0.00074
2038.69484,0.00074
2037.73046,0.00074
2036.76608,0.00074
2035.80171,0.00074
2034.83733,0.00074
2033.87295,0.00073
2032.90857,0.00073
2031.94419,0.00073
2030.97982,0.00073
2030.01544,0.00073
2029.05106,0.00073
2028.08668,0.00073
2027.12230,0.00073
2026.15793,0.00073
2025.19355,0.00073
2024.22917,0.00073
2023.26479,0.00072
2022.30041,0.00072
2021.33604,0.00072
2020.37166,0.00072
2019.40728,0.00072
2018.44290,0.00072
2017.47853,0.00072
2016.51415,0.00072
2015.54977,0.00072
2014.58539,0.00072
2013.62101,0.00072
2012.65664,0.00071
2011.69226,0.00071
2010.72788,0.00071
2009.76350,0.00071
2008.79912,0.00071
2007.83475,0.00071
2006.87037,0.00071
2005.90599,0.00071
2004.94161,0.00071
2003.97724,0.00071
2003.01286,0.00071
2002.04848,0.00070
2001.08410,0.00070
2000.11972,0.00070
1999.15535,0.00070
1998.19097,0.00070
1997.22659,0.00070
1996.26221,0.00070
1995.29783,0.00070
1994.33346,0.00070
1993.36908,0.00070
1992.40470,0.00070
1991.44032,0.00070
1990.47594,0.00069
1989.51157,0.00069
1988.54719,0.00069
1987.58281,0.00069
1986.61843,0.00069
1985.65406,0.00069
1984.68968,0.00069
1983.72530,0.00069
1982.76092,0.00069
1981.79654,0.00069
1980.83217,0.00069
1979.86779,0.00068
1978.90341,0.00068
1977.93903,0.00068
1976.97465,0.00068
1976.01028,0.00068
1975.04590,0.00068
1974.08152,0.00068
1973.11714,0.00068
1972.15276,0.00068
1971.18839,0.00068
1970.22401,0.00068
1969.25963,0.00067
1968.29525,0.00067
1967.33088,0.00067
1966.36650,0.00067
1965.40212,0.00067
1964.43774,0.00067
1963.47336,0.00067
1962.50899,0.00067
1961.54461,0.00067
1960.58023,0.00067
1959.61585,0.00067
1958.65147,0.00066
1957.68710,0.00066
1956.72272,0.00066
1955.75834,0.00066
1954.79396,0.00066
1953.82959,0.00066
1952.86521,0.00066
1951.90083,0.00066
1950.93645,0.00066
1949.97207,0.00066
1949.00770,0.00066
1948.04332,0.00066
1947.07894,0.00065
1946.11456,0.00065
1945.15018,0.00065
1944.18581,0.00065
1943.22143,0.00065
1942.25705,0.00065
1941.29267,0.00065
1940.32829,0.00065
1939.36392,0.00065
1938.39954,0.00065
1937.43516,0.00065
1936.47078,0.00064
1935.50641,0.00064
1934.54203,0.00064
1933.57765,0.00064
1932.61327,0.00064
1931.64889,0.00064
1930.68452,0.00064
1929.72014,0.00064
1928.75576,0.00064
1927.79138,0.00064
1926.82700,0.00064
1925.86263,0.00090
1924.89825,0.00143
1923.93387,0.00119
1922.96949,0.00070
1922.00512,0.00048
1921.04074,0.00045
1920.07636,0.00081
1919.11198,0.00104
1918.14760,0.00154
1917.18323,0.00147
1916.21885,0.00082
1915.25447,0.00080
1914.29009,0.00080
1913.32571,0.00101
1912.36134,0.00116
1911.39696,0.00086
1910.43258,0.00095
1909.46820,0.00134
1908.50382,0.00174
1907.53945,0.00158
1906.57507,0.00083
1905.61069,0.00064
1904.64631,0.00098
1903.68194,0.00089
1902.71756,0.00085
1901.75318,0.00129
1900.78880,0.00134
1899.82442,0.00110
1898.86005,0.00093
1897.89567,0.00047
1896.93129,0.00017
1895.96691,0.00020
1895.00253,0.00048
1894.03816,0.00073
1893.07378,0.00036
1892.10940,0.00007
1891.14502,0.00038
1890.18065,0.00083
1889.21627,0.00093
1888.25189,0.00076
1887.28751,0.00093
1886.32313,0.00076
1885.35876,0.00028
1884.39438,0.00053
1883.43000,0.00075
1882.46562,0.00055
1881.50124,0.00058
1880.53687,0.00084
1879.57249,0.00092
1878.60811,0.00088
1877.64373,0.00083
1876.67935,0.00066
1875.71498,0.00069
1874.75060,0.00082
1873.78622,0.00066
1872.82184,0.00044
1871.85747,0.00056
1870.89309,0.00080
1869.92871,0.00085
1868.96433,0.00081
1867.99995,0.00064
1867.03558,0.00047
1866.07120,0.00043
1865.10682,0.00050
1864.14244,0.00070
1863.17806,0.00070
1862.21369,0.00063
1861.24931,0.00066
1860.28493,0.00066
1859.32055,0.00063
1858.35618,0.00050
1857.39180,0.00052
1856.42742,0.00072
1855.46304,0.00095
1854.49866,0.00090
1853.53429,0.00067
1852.56991,0.00079
1851.60553,0.00088
1850.64115,0.00084
1849.67677,0.00089
1848.71240,0.00081
1847.74802,0.00066
1846.78364,0.00062
1845.81926,0.00077
1844.85488,0.00089
1843.89051,0.00098
1842.92613,0.00097
1841.96175,0.00086
1840.99737,0.00095
1840.03300,0.00098
1839.06862,0.00097
1838.10424,0.00104
1837.13986,0.00089
1836.17548,0.00081
1835.21111,0.00087
1834.24673,0.00091
1833.28235,0.00083
1832.31797,0.00069
1831.35359,0.00078
1830.38922,0.00092
1829.42484,0.00096
1828.46046,0.00104
1827.49608,0.00113
1826.53171,0.00099
1825.56733,0.00071
1824.60295,0.00075
1823.63857,0.00099
1822.67419,0.00098
1821.70982,0.00091
1820.74544,0.00092
1819.78106,0.00097
1818.81668,0.00116
1817.85230,0.00113
1816.88793,0.00094
1815.92355,0.00096
1814.95917,0.00089
1813.99479,0.00082
1813.03041,0.00087
1812.06604,0.00092
1811.10166,0.00085
1810.13728,0.00061
1809.17290,0.00067
1808.20853,0.00090
1807.24415,0.00092
1806.27977,0.00101
1805.31539,0.00100
1804.35101,0.00087
1803.38664,0.00089
1802.42226,0.00093
1801.45788,0.00090
1800.49350,0.00090
1799.52912,0.00095
1798.56475,0.00093
1797.60037,0.00085
1796.63599,0.00083
1795.67161,0.00091
1794.70724,0.00090
1793.74286,0.00076
1792.77848,0.00082
1791.81410,0.00108
1790.84972,0.00110
1789.88535,0.00084
1788.92097,0.00074
1787.95659,0.00092
1786.99221,0.00108
1786.02783,0.00107
1785.06346,0.00099
1784.09908,0.00096
1783.13470,0.00093
1782.17032,0.00091
1781.20594,0.00100
1780.24157,0.00108
1779.27719,0.00102
1778.31281,0.00092
1777.34843,0.00092
1776.38406,0.00101
1775.41968,0.00108
1774.45530,0.00110
1773.49092,0.00117
1772.52654,0.00119
1771.56217,0.00110
1770.59779,0.00104
1769.63341,0.00107
1768.66903,0.00109
1767.70465,0.00105
1766.74028,0.00102
1765.77590,0.00104
1764.81152,0.00106
1763.84714,0.00108
1762.88276,0.00115
1761.91839,0.00122
1760.95401,0.00119
1759.98963,0.00117
1759.02525,0.00123
1758.06088,0.00132
1757.09650,0.00131
1756.13212,0.00121
1755.16774,0.00126
1754.20336,0.00127
1753.23899,0.00128
1752.27461,0.00144
1751.31023,0.00149
1750.34585,0.00150
1749.38147,0.00156
1748.41710,0.00158
1747.45272,0.00155
1746.48834,0.00155
1745.52396,0.00157
1744.55959,0.00152
1743.59521,0.00154
1742.63083,0.00163
1741.66645,0.00164
1740.70207,0.00170
1739.73770,0.00179
1738.77332,0.00181
1737.80894,0.00171
1736.84456,0.00170
1735.88018,0.00182
1734.91581,0.00190
1733.95143,0.00193
1732.98705,0.00181
1732.02267,0.00170
1731.05829,0.00171
1730.09392,0.00166
1729.12954,0.00164
1728.16516,0.00168
1727.20078,0.00173
1726.23641,0.00175
1725.27203,0.00171
1724.30765,0.00175
1723.34327,0.00175
1722.37889,0.00164
1721.41452,0.00163
1720.45014,0.00169
1719.48576,0.00172
1718.52138,0.00181
1717.55700,0.00180
1716.59263,0.00167
1715.62825,0.00171
1714.66387,0.00173
1713.69949,0.00163
1712.73512,0.00165
1711.77074,0.00169
1710.80636,0.00170
1709.84198,0.00173
1708.87760,0.00177
1707.91323,0.00183
1706.94885,0.00188
1705.98447,0.00190
1705.02009,0.00184
1704.05571,0.00186
1703.09134,0.00188
1702.12696,0.00193
1701.16258,0.00213
1700.19820,0.00222
1699.23382,0.00217
1698.26945,0.00211
1697.30507,0.00216
1696.34069,0.00232
1695.37631,0.00231
1694.41194,0.00222
1693.44756,0.00222
1692.48318,0.00225
1691.51880,0.00234
1690.55442,0.00249
1689.59005,0.00256
1688.62567,0.00257
1687.66129,0.00253
1686.69691,0.00249
1685.73253,0.00267
1684.76816,0.00289
1683.80378,0.00291
1682.83940,0.00284
1681.87502,0.00277
1680.91065,0.00281
1679.94627,0.00283
1678.98189,0.00283
1678.01751,0.00290
1677.05313,0.00311
1676.08876,0.00332
1675.12438,0.00334
1674.16000,0.00328
1673.19562,0.00329
1672.23124,0.00335
1671.26687,0.00337
1670.30249,0.00338
1669.33811,0.00346
1668.37373,0.00347
1667.40935,0.00348
1666.44498,0.00350
1665.48060,0.00347
1664.51622,0.00356
1663.55184,0.00370
1662.58747,0.00382
1661.62309,0.00391
1660.65871,0.00403
1659.69433,0.00411
1658.72995,0.00411
1657.76558,0.00415
1656.80120,0.00423
1655.83682,0.00434
1654.87244,0.00439
1653.90806,0.00452
1652.94369,0.00469
1651.97931,0.00464
1651.01493,0.00456
1650.05055,0.00450
1649.08618,0.00453
1648.12180,0.00459
1647.15742,0.00461
1646.19304,0.00470
1645.22866,0.00462
1644.26429,0.00452
1643.29991,0.00454
1642.33553,0.00453
1641.37115,0.00449
1640.40677,0.00439
1639.44240,0.00438
1638.47802,0.00444
1637.51364,0.00445
1636.54926,0.00446
1635.58488,0.00447
1634.62051,0.00437
1633.65613,0.00422
1632.69175,0.00418
1631.72737,0.00417
1630.76300,0.00412
1629.79862,0.00413
1628.83424,0.00417
1627.86986,0.00413
1626.90548,0.00403
1625.94111,0.00401
1624.97673,0.00405
1624.01235,0.00409
1623.04797,0.00404
1622.08359,0.00394
1621.11922,0.00390
1620.15484,0.00386
1619.19046,0.00384
1618.22608,0.00393
1617.26171,0.00408
1616.29733,0.00405
1615.33295,0.00392
1614.36857,0.00386
1613.40419,0.00383
1612.43982,0.00377
1611.47544,0.00372
1610.51106,0.00377
1609.54668,0.00379
1608.58230,0.00372
1607.61793,0.00370
1606.65355,0.00370
1605.68917,0.00375
1604.72479,0.00380
1603.76041,0.00379
1602.79604,0.00367
1601.83166,0.00356
1600.86728,0.00360
1599.90290,0.00364
1598.93853,0.00362
1597.97415,0.00365
1597.00977,0.00373
1596.04539,0.00374
1595.08101,0.00370
1594.11664,0.00369
1593.15226,0.00370
1592.18788,0.00374
1591.22350,0.00373
1590.25912,0.00368
1589.29475,0.00367
1588.33037,0.00368
1587.36599,0.00372
1586.40161,0.00367
1585.43724,0.00360
1584.47286,0.00365
1583.50848,0.00373
1582.54410,0.00372
1581.57972,0.00368
1580.61535,0.00368
1579.65097,0.00368
1578.68659,0.00369
1577.72221,0.00370
1576.75783,0.00372
1575.79346,0.00369
1574.82908,0.00365
1573.86470,0.00363
1572.90032,0.00352
1571.93594,0.00349
1570.97157,0.00352
1570.00719,0.00351
1569.04281,0.00348
1568.07843,0.00339
1567.11406,0.00339
1566.14968,0.00342
1565.18530,0.00341
1564.22092,0.00338
1563.25654,0.00336
1562.29217,0.00336
1561.32779,0.00342
1560.36341,0.00357
1559.39903,0.00362
1558.43465,0.00355
1557.47028,0.00351
1556.50590,0.00352
1555.54152,0.00356
1554.57714,0.00357
1553.61276,0.00355
1552.64839,0.00353
1551.68401,0.00354
1550.71963,0.00356
1549.75525,0.00355
1548.79088,0.00357
1547.82650,0.00363
1546.86212,0.00367
1545.89774,0.00373
1544.93336,0.00376
1543.96899,0.00367
1543.00461,0.00366
1542.04023,0.00377
1541.07585,0.00382
1540.11147,0.00388
1539.14710,0.00382
1538.18272,0.00363
1537.21834,0.00354
1536.25396,0.00355
1535.28959,0.00358
1534.32521,0.00360
1533.36083,0.00356
1532.39645,0.00343
1531.43207,0.00337
1530.46770,0.00339
1529.50332,0.00340
1528.53894,0.00346
1527.57456,0.00343
1526.61018,0.00332
1525.64581,0.00329
1524.68143,0.00330
1523.71705,0.00328
1522.75267,0.00328
1521.78829,0.00335
1520.82392,0.00334
1519.85954,0.00321
1518.89516,0.00311
1517.93078,0.00316
1516.96641,0.00322
1516.00203,0.00322
1515.03765,0.00321
1514.07327,0.00316
1513.10889,0.00314
1512.14452,0.00312
1511.18014,0.00304
1510.21576,0.00301
1509.25138,0.00302
1508.28700,0.00301
1507.32263,0.00300
1506.35825,0.00301
1505.39387,0.00292
1504.42949,0.00281
1503.46512,0.00273
1502.50074,0.00273
1501.53636,0.00274
1500.57198,0.00266
1499.60760,0.00262
1498.64323,0.00265
1497.67885,0.00267
1496.71447,0.00267
1495.75009,0.00262
1494.78571,0.00257
1493.82134,0.00254
1492.85696,0.00253
1491.89258,0.00251
1490.92820,0.00255
1489.96382,0.00253
1488.99945,0.00247
1488.03507,0.00250
1487.07069,0.00253
1486.10631,0.00250
1485.14194,0.00240
1484.17756,0.00236
1483.21318,0.00235
1482.24880,0.00230
1481.28442,0.00236
1480.32005,0.00240
1479.35567,0.00238
1478.39129,0.00237
1477.42691,0.00243
1476.46253,0.00254
1475.49816,0.00255
1474.53378,0.00260
1473.56940,0.00273
1472.60502,0.00273
1471.64065,0.00268
1470.67627,0.00263
1469.71189,0.00260
1468.74751,0.00264
1467.78313,0.00269
1466.81876,0.00272
1465.85438,0.00274
1464.89000,0.00281
1463.92562,0.00280
1462.96124,0.00275
1461.99687,0.00280
1461.03249,0.00283
1460.06811,0.00280
1459.10373,0.00280
1458.13935,0.00293
1457.17498,0.00305
1456.21060,0.00296
1455.24622,0.00291
1454.28184,0.00292
1453.31747,0.00289
1452.35309,0.00289
1451.38871,0.00291
1450.42433,0.00288
1449.45995,0.00287
1448.49558,0.00294
1447.53120,0.00296
1446.56682,0.00289
1445.60244,0.00288
1444.63806,0.00285
1443.67369,0.00287
1442.70931,0.00295
1441.74493,0.00292
1440.78055,0.00286
1439.81618,0.00288
1438.85180,0.00290
1437.88742,0.00296
1436.92304,0.00307
1435.95866,0.00306
1434.99429,0.00302
1434.02991,0.00305
1433.06553,0.00298
1432.10115,0.00292
1431.13677,0.00300
1430.17240,0.00308
1429.20802,0.00306
1428.24364,0.00302
1427.27926,0.00301
1426.31488,0.00295
1425.35051,0.00301
1424.38613,0.00318
1423.42175,0.00322
1422.45737,0.00319
1421.49300,0.00319
1420.52862,0.00325
1419.56424,0.00329
1418.59986,0.00329
1417.63548,0.00328
1416.67111,0.00326
1415.70673,0.00326
1414.74235,0.00330
1413.77797,0.00331
1412.81359,0.00331
1411.84922,0.00336
1410.88484,0.00339
1409.92046,0.00340
1408.95608,0.00341
1407.99171,0.00333
1407.02733,0.00325
1406.06295,0.00330
1405.09857,0.00339
1404.13419,0.00333
1403.16982,0.00326
1402.20544,0.00334
1401.24106,0.00339
1400.27668,0.00338
1399.31230,0.00335
1398.34793,0.00336
1397.38355,0.00338
1396.41917,0.00334
1395.45479,0.00335
1394.49041,0.00340
1393.52604,0.00339
1392.56166,0.00335
1391.59728,0.00333
1390.63290,0.00333
1389.66853,0.00331
1388.70415,0.00331
1387.73977,0.00336
1386.77539,0.00335
1385.81101,0.00329
1384.84664,0.00329
1383.88226,0.00331
1382.91788,0.00331
1381.95350,0.00334
1380.98912,0.00332
1380.02475,0.00330
1379.06037,0.00326
1378.09599,0.00320
1377.13161,0.00322
1376.16724,0.00330
1375.20286,0.00335
1374.23848,0.00327
1373.27410,0.00318
1372.30972,0.00319
1371.34535,0.00324
1370.38097,0.00318
1369.41659,0.00312
1368.45221,0.00312
1367.48783,0.00311
1366.52346,0.00312
1365.55908,0.00315
1364.59470,0.00317
1363.63032,0.00316
1362.66594,0.00311
1361.70157,0.00307
1360.73719,0.00306
1359.77281,0.00305
1358.80843,0.00301
1357.84406,0.00298
1356.87968,0.00298
1355.91530,0.00295
1354.95092,0.00293
1353.98654,0.00295
1353.02217,0.00296
1352.05779,0.00294
1351.09341,0.00289
1350.12903,0.00286
1349.16465,0.00286
1348.20028,0.00286
1347.23590,0.00287
1346.27152,0.00285
1345.30714,0.00284
1344.34276,0.00287
1343.37839,0.00287
1342.41401,0.00284
1341.44963,0.00287
1340.48525,0.00286
1339.52088,0.00282
1338.55650,0.00287
1337.59212,0.00288
1336.62774,0.00282
1335.66336,0.00280
1334.69899,0.00280
1333.73461,0.00275
1332.77023,0.00268
1331.80585,0.00269
1330.84147,0.00274
1329.87710,0.00277
1328.91272,0.00278
1327.94834,0.00271
1326.98396,0.00268
1326.01959,0.00274
1325.05521,0.00273
1324.09083,0.00274
1323.12645,0.00280
1322.16207,0.00283
1321.19770,0.00281
1320.23332,0.00280
1319.26894,0.00280
1318.30456,0.00273
1317.34018,0.00267
1316.37581,0.00269
1315.41143,0.00276
1314.44705,0.00277
1313.48267,0.00275
1312.51829,0.00272
1311.55392,0.00270
1310.58954,0.00273
1309.62516,0.00273
1308.66078,0.00281
1307.69641,0.00290
1306.73203,0.00287
1305.76765,0.00274
1304.80327,0.00267
1303.83889,0.00274
1302.87452,0.00275
1301.91014,0.00275
1300.94576,0.00278
1299.98138,0.00278
1299.01700,0.00276
1298.05263,0.00264
1297.08825,0.00265
1296.12387,0.00275
1295.15949,0.00277
1294.19512,0.00277
1293.23074,0.00270
1292.26636,0.00269
1291.30198,0.00275
1290.33760,0.00281
1289.37323,0.00282
1288.40885,0.00279
1287.44447,0.00276
1286.48009,0.00271
1285.51571,0.00273
1284.55134,0.00278
1283.58696,0.00277
1282.62258,0.00276
1281.65820,0.00278
1280.69382,0.00280
1279.72945,0.00280
1278.76507,0.00283
1277.80069,0.00283
1276.83631,0.00284
1275.87194,0.00291
1274.90756,0.00294
1273.94318,0.00291
1272.97880,0.00290
1272.01442,0.00290
1271.05005,0.00285
1270.08567,0.00280
1269.12129,0.00284
1268.15691,0.00293
1267.19253,0.00292
1266.22816,0.00290
1265.26378,0.00302
1264.29940,0.00307
1263.33502,0.00301
1262.37065,0.00301
1261.40627,0.00308
1260.44189,0.00309
1259.47751,0.00305
1258.51313,0.00302
1257.54876,0.00299
1256.58438,0.00297
1255.62000,0.00295
1254.65562,0.00296
1253.69124,0.00301
1252.72687,0.00299
1251.76249,0.00295
1250.79811,0.00300
1249.83373,0.00309
1248.86935,0.00311
1247.90498,0.00307
1246.94060,0.00300
1245.97622,0.00299
1245.01184,0.00301
1244.04747,0.00294
1243.08309,0.00291
1242.11871,0.00294
1241.15433,0.00296
1240.18995,0.00301
1239.22558,0.00304
1238.26120,0.00306
1237.29682,0.00304
1236.33244,0.00295
1235.36806,0.00289
1234.40369,0.00293
1233.43931,0.00299
1232.47493,0.00301
1231.51055,0.00296
1230.54618,0.00289
1229.58180,0.00291
1228.61742,0.00295
1227.65304,0.00299
1226.68866,0.00302
1225.72429,0.00296
1224.75991,0.00295
1223.79553,0.00294
1222.83115,0.00294
1221.86677,0.00291
1220.90240,0.00290
1219.93802,0.00290
1218.97364,0.00282
1218.00926,0.00282
1217.04488,0.00287
1216.08051,0.00283
1215.11613,0.00282
1214.15175,0.00284
1213.18737,0.00284
1212.22300,0.00283
1211.25862,0.00281
1210.29424,0.00279
1209.32986,0.00280
1208.36548,0.00276
1207.40111,0.00273
1206.43673,0.00281
1205.47235,0.00284
1204.50797,0.00275
1203.54359,0.00270
1202.57922,0.00273
1201.61484,0.00275
1200.65046,0.00277
1199.68608,0.00283
1198.72171,0.00281
1197.75733,0.00279
1196.79295,0.00277
1195.82857,0.00273
1194.86419,0.00268
1193.89982,0.00269
1192.93544,0.00278
1191.97106,0.00280
1191.00668,0.00281
1190.04230,0.00278
1189.07793,0.00268
1188.11355,0.00268
1187.14917,0.00271
1186.18479,0.00269
1185.22041,0.00273
1184.25604,0.00282
1183.29166,0.00278
1182.32728,0.00270
1181.36290,0.00275
1180.39853,0.00282
1179.43415,0.00285
1178.46977,0.00282
1177.50539,0.00277
1176.54101,0.00279
1175.57664,0.00283
1174.61226,0.00287
1173.64788,0.00286
1172.68350,0.00279
1171.71912,0.00272
1170.75475,0.00270
1169.79037,0.00270
1168.82599,0.00275
1167.86161,0.00278
1166.89724,0.00277
1165.93286,0.00283
1164.96848,0.00285
1164.00410,0.00276
1163.03972,0.00271
1162.07535,0.00272
1161.11097,0.00274
1160.14659,0.00273
1159.18221,0.00279
1158.21783,0.00285
1157.25346,0.00285
1156.28908,0.00289
1155.32470,0.00283
1154.36032,0.00276
1153.39594,0.00287
1152.43157,0.00286
1151.46719,0.00278
1150.50281,0.00282
1149.53843,0.00290
1148.57406,0.00293
1147.60968,0.00287
1146.64530,0.00278
1145.68092,0.00272
1144.71654,0.00270
1143.75217,0.00278
1142.78779,0.00288
1141.82341,0.00279
1140.85903,0.00263
1139.89465,0.00270
1138.93028,0.00284
1137.96590,0.00288
1137.00152,0.00289
1136.03714,0.00287
1135.07276,0.00288
1134.10839,0.00288
1133.14401,0.00286
1132.17963,0.00286
1131.21525,0.00287
1130.25088,0.00291
1129.28650,0.00302
1128.32212,0.00311
1127.35774,0.00300
1126.39336,0.00297
1125.42899,0.00315
1124.46461,0.00315
1123.50023,0.00305
1122.53585,0.00299
1121.57147,0.00297
1120.60710,0.00301
1119.64272,0.00300
1118.67834,0.00298
1117.71396,0.00298
1116.74959,0.00295
1115.78521,0.00293
1114.82083,0.00309
1113.85645,0.00329
1112.89207,0.00323
1111.92770,0.00314
1110.96332,0.00309
1109.99894,0.00303
1109.03456,0.00308
1108.07018,0.00303
1107.10581,0.00293
1106.14143,0.00307
1105.17705,0.00321
1104.21267,0.00319
1103.24829,0.00319
1102.28392,0.00319
1101.31954,0.00308
1100.35516,0.00303
1099.39078,0.00301
1098.42641,0.00300
1097.46203,0.00310
1096.49765,0.00321
1095.53327,0.00323
1094.56889,0.00319
1093.60452,0.00311
1092.64014,0.00299
1091.67576,0.00285
1090.71138,0.00292
1089.74700,0.00302
1088.78263,0.00299
1087.81825,0.00307
1086.85387,0.00314
1085.88949,0.00308
1084.92512,0.00302
1083.96074,0.00303
1082.99636,0.00309
1082.03198,0.00317
1081.06760,0.00324
1080.10323,0.00324
1079.13885,0.00313
1078.17447,0.00307
1077.21009,0.00316
1076.24571,0.00322
1075.28134,0.00319
1074.31696,0.00319
1073.35258,0.00318
1072.38820,0.00307
1071.42382,0.00288
1070.45945,0.00284
1069.49507,0.00298
1068.53069,0.00305
1067.56631,0.00307
1066.60194,0.00302
1065.63756,0.00291
1064.67318,0.00286
1063.70880,0.00287
1062.74442,0.00289
1061.78005,0.00290
1060.81567,0.00298
1059.85129,0.00304
1058.88691,0.00302
1057.92253,0.00297
1056.95816,0.00296
1055.99378,0.00297
1055.02940,0.00286
1054.06502,0.00279
1053.10065,0.00280
1052.13627,0.00273
1051.17189,0.00277
1050.20751,0.00280
1049.24313,0.00283
1048.27876,0.00290
1047.31438,0.00289
1046.35000,0.00289
1045.38562,0.00286
1044.42124,0.00277
1043.45687,0.00276
1042.49249,0.00285
1041.52811,0.00292
1040.56373,0.00289
1039.59935,0.00285
1038.63498,0.00282
1037.67060,0.00287
1036.70622,0.00284
1035.74184,0.00266
1034.77747,0.00269
1033.81309,0.00281
1032.84871,0.00289
1031.88433,0.00293
1030.91995,0.00286
1029.95558,0.00279
1028.99120,0.00274
1028.02682,0.00278
1027.06244,0.00281
1026.09806,0.00271
1025.13369,0.00261
1024.16931,0.00261
1023.20493,0.00269
1022.24055,0.00272
1021.27618,0.00280
1020.31180,0.00283
1019.34742,0.00272
1018.38304,0.00270
1017.41866,0.00272
1016.45429,0.00275
1015.48991,0.00267
1014.52553,0.00252
1013.56115,0.00248
1012.59677,0.00252
1011.63240,0.00273
1010.66802,0.00282
1009.70364,0.00260
1008.73926,0.00244
1007.77488,0.00239
1006.81051,0.00244
1005.84613,0.00248
1004.88175,0.00241
1003.91737,0.00240
1002.95300,0.00245
1001.98862,0.00239
1001.02424,0.00232
1000.05986,0.00233
999.09548,0.00236
998.13111,0.00235
997.16673,0.00226
996.20235,0.00224
995.23797,0.00227
994.27359,0.00228
993.30922,0.00229
992.34484,0.00230
991.38046,0.00238
990.41608,0.00233
989.45171,0.00217
988.48733,0.00216
987.52295,0.00220
986.55857,0.00219
985.59419,0.00218
984.62982,0.00221
983.66544,0.00217
982.70106,0.00207
981.73668,0.00210
980.77230,0.00221
979.80793,0.00223
978.84355,0.00222
977.87917,0.00221
976.91479,0.00218
975.95041,0.00219
974.98604,0.00213
974.02166,0.00209
973.05728,0.00208
972.09290,0.00206
971.12853,0.00212
970.16415,0.00209
969.19977,0.00203
968.23539,0.00197
967.27101,0.00193
966.30664,0.00200
965.34226,0.00204
964.37788,0.00206
963.41350,0.00217
962.44912,0.00221
961.48475,0.00200
960.52037,0.00186
959.55599,0.00198
958.59161,0.00205
957.62724,0.00208
956.66286,0.00215
955.69848,0.00216
954.73410,0.00213
953.76972,0.00225
952.80535,0.00219
951.84097,0.00190
950.87659,0.00195
949.91221,0.00216
948.94783,0.00228
947.98346,0.00228
947.01908,0.00205
946.05470,0.00197
945.09032,0.00203
944.12594,0.00205
943.16157,0.00207
942.19719,0.00214
941.23281,0.00217
940.26843,0.00208
939.30406,0.00209
938.33968,0.00211
937.37530,0.00196
936.41092,0.00190
935.44654,0.00212
934.48217,0.00229
933.51779,0.00222
932.55341,0.00214
931.58903,0.00197
930.62465,0.00191
929.66028,0.00210
928.69590,0.00220
927.73152,0.00209
926.76714,0.00195
925.80276,0.00191
924.83839,0.00188
923.87401,0.00198
922.90963,0.00220
921.94525,0.00228
920.98088,0.00201
920.01650,0.00179
919.05212,0.00192
918.08774,0.00195
917.12336,0.00195
916.15899,0.00200
915.19461,0.00197
914.23023,0.00200
913.26585,0.00206
912.30147,0.00215
911.33710,0.00212
910.37272,0.00201
909.40834,0.00196
908.44396,0.00201
907.47959,0.00200
906.51521,0.00192
905.55083,0.00194
904.58645,0.00194
903.62207,0.00200
902.65770,0.00185
901.69332,0.00167
900.72894,0.00174
899.76456,0.00176
898.80018,0.00197
897.83581,0.00204
896.87143,0.00205
895.90705,0.00223
894.94267,0.00217
893.97829,0.00201
893.01392,0.00176
892.04954,0.00176
891.08516,0.00193
890.12078,0.00189
889.15641,0.00189
888.19203,0.00191
887.22765,0.00176
886.26327,0.00164
885.29889,0.00195
884.33452,0.00232
883.37014,0.00236
882.40576,0.00216
881.44138,0.00186
880.47700,0.00182
879.51263,0.00195
878.54825,0.00200
877.58387,0.00203
876.61949,0.00207
875.65512,0.00208
874.69074,0.00209
873.72636,0.00206
872.76198,0.00203
871.79760,0.00193
870.83323,0.00178
869.86885,0.00188
868.90447,0.00187
867.94009,0.00180
866.97571,0.00204
866.01134,0.00211
865.04696,0.00190
864.08258,0.00179
863.11820,0.00190
862.15382,0.00209
861.18945,0.00211
860.22507,0.00201
859.26069,0.00188
858.29631,0.00193
857.33194,0.00198
856.36756,0.00188
855.40318,0.00191
854.43880,0.00204
853.47442,0.00202
852.51005,0.00191
851.54567,0.00187
850.58129,0.00172
849.61691,0.00156
848.65253,0.00159
847.68816,0.00167
846.72378,0.00176
845.75940,0.00181
844.79502,0.00191
843.83065,0.00190
842.86627,0.00176
841.90189,0.00184
840.93751,0.00198
839.97313,0.00196
839.00876,0.00194
838.04438,0.00197
837.08000,0.00190
836.11562,0.00182
835.15124,0.00186
834.18687,0.00200
833.22249,0.00206
832.25811,0.00204
831.29373,0.00201
830.32935,0.00194
829.36498,0.00194
828.40060,0.00212
827.43622,0.00230
826.47184,0.00220
825.50747,0.00203
824.54309,0.00201
823.57871,0.00183
822.61433,0.00170
821.64995,0.00172
820.68558,0.00176
819.72120,0.00199
818.75682,0.00224
817.79244,0.00234
816.82806,0.00215
815.86369,0.00189
814.89931,0.00187
813.93493,0.00198
812.97055,0.00204
812.00618,0.00188
811.04180,0.00190
810.07742,0.00200
809.11304,0.00188
808.14866,0.00198
807.18429,0.00194
806.21991,0.00161
805.25553,0.00176
804.29115,0.00213
803.32677,0.00208
802.36240,0.00207
801.39802,0.00214
800.43364,0.00194
799.46926,0.00187
798.50488,0.00188
797.54051,0.00193
796.57613,0.00208
795.61175,0.00190
794.64737,0.00183
793.68300,0.00210
792.71862,0.00216
791.75424,0.00209
790.78986,0.00204
789.82548,0.00205
788.86111,0.00211
787.89673,0.00209
786.93235,0.00199
785.96797,0.00175
785.00359,0.00171
784.03922,0.00193
783.07484,0.00210
782.11046,0.00220
781.14608,0.00210
780.18171,0.00186
779.21733,0.00178
778.25295,0.00182
777.28857,0.00206
776.32419,0.00219
775.35982,0.00214
774.39544,0.00224
773.43106,0.00213
772.46668,0.00190
771.50230,0.00190
770.53793,0.00192
769.57355,0.00195
768.60917,0.00198
767.64479,0.00201
766.68041,0.00191
765.71604,0.00179
764.75166,0.00186
763.78728,0.00191
762.82290,0.00210
761.85853,0.00205
760.89415,0.00179
759.92977,0.00192
758.96539,0.00209
758.00101,0.00204
757.03664,0.00202
756.07226,0.00222
755.10788,0.00230
754.14350,0.00188
753.17912,0.00147
752.21475,0.00168
751.25037,0.00216
750.28599,0.00225
749.32161,0.00232
748.35724,0.00250
747.39286,0.00233
746.42848,0.00198
745.46410,0.00182
744.49972,0.00207
743.53535,0.00229
742.57097,0.00224
741.60659,0.00203
740.64221,0.00179
739.67783,0.00183
738.71346,0.00184
737.74908,0.00176
736.78470,0.00180
735.82032,0.00183
734.85594,0.00179
733.89157,0.00190
732.92719,0.00221
731.96281,0.00220
730.99843,0.00220
730.03406,0.00242
729.06968,0.00221
728.10530,0.00204
727.14092,0.00212
726.17654,0.00214
725.21217,0.00225
724.24779,0.00237
723.28341,0.00235
722.31903,0.00217
721.35465,0.00221
720.39028,0.00244
719.42590,0.00243
718.46152,0.00221
717.49714,0.00190
716.53276,0.00182
715.56839,0.00194
714.60401,0.00209
713.63963,0.00227
712.67525,0.00227
711.71088,0.00232
710.74650,0.00234
709.78212,0.00228
708.81774,0.00241
707.85336,0.00234
706.88899,0.00218
705.92461,0.00208
704.96023,0.00201
703.99585,0.00216
703.03147,0.00231
702.06710,0.00244
701.10272,0.00245
700.13834,0.00235
699.17396,0.00235
698.20959,0.00232
697.24521,0.00232
696.28083,0.00236
695.31645,0.00237
694.35207,0.00239
693.38770,0.00246
692.42332,0.00257
691.45894,0.00244
690.49456,0.00232
689.53018,0.00234
688.56581,0.00233
687.60143,0.00236
686.63705,0.00229
685.67267,0.00240
684.70829,0.00266
683.74392,0.00260
682.77954,0.00259
681.81516,0.00254
680.85078,0.00225
679.88641,0.00218
678.92203,0.00237
677.95765,0.00253
676.99327,0.00241
676.02889,0.00220
675.06452,0.00231
674.10014,0.00242
673.13576,0.00240
672.17138,0.00241
671.20700,0.00254
670.24263,0.00257
669.27825,0.00317
668.31387,0.00478
667.34949,0.00447
666.38512,0.00288
665.42074,0.00252
664.45636,0.00245
663.49198,0.00240
662.52760,0.00241
661.56323,0.00245
660.59885,0.00250
659.63447,0.00234
658.67009,0.00239
657.70571,0.00255
656.74134,0.00257
655.77696,0.00252
654.81258,0.00247
653.84820,0.00231
652.88382,0.00209
651.91945,0.00224
650.95507,0.00247
649.99069,0.00263
649.02631,0.00270
648.06194,0.00263
647.09756,0.00271
646.13318,0.00262
645.16880,0.00243
644.20442,0.00239
643.24005,0.00233
642.27567,0.00221
641.31129,0.00224
640.34691,0.00242
639.38253,0.00231
638.41816,0.00233
637.45378,0.00269
636.48940,0.00273
635.52502,0.00252
634.56065,0.00255
633.59627,0.00258
632.63189,0.00239
631.66751,0.00232
630.70313,0.00231
629.73876,0.00218
628.77438,0.00189
627.81000,0.00150
626.84562,0.00177
625.88124,0.00258
624.91687,0.00270
623.95249,0.00225
622.98811,0.00365
622.02373,0.00539
621.05935,0.00453
620.09498,0.00376
619.13060,0.00244
618.16622,0.00304
617.20184,0.00305
616.23747,0.00084
615.27309,0.00093
614.30871,0.00053
613.34433,0.00027
612.37995,0.00137
611.41558,-0.00047
610.45120,-0.00168
609.48682,0.00115
608.52244,-0.00005
607.55806,-0.00239
606.59369,-0.00094
605.62931,0.00107
604.66493,0.00294
603.70055,0.00208
602.73618,0.00213
601.77180,0.00428
600.80742,0.00401
599.84304,0.00339
598.87866,0.00288
597.91429,0.00294
596.94991,0.00302
595.98553,0.00189
595.02115,0.00125
594.05677,0.00157
593.09240,0.00234
592.12802,0.00304
591.16364,0.00304
590.19926,0.00287
589.23488,0.00321
588.27051,0.00316
587.30613,0.00253
586.34175,0.00237
585.37737,0.00224
584.41300,0.00211
583.44862,0.00213
582.48424,0.00209
581.51986,0.00245
580.55548,0.00285
579.59111,0.00287
578.62673,0.00294
577.66235,0.00325
576.69797,0.00326
575.73359,0.00266
574.76922,0.00203
573.80484,0.00180
572.84046,0.00183
571.87608,0.00231
570.91171,0.00297
569.94733,0.00263
568.98295,0.00232
568.01857,0.00285
567.05419,0.00299
566.08982,0.00314
565.12544,0.00353
564.16106,0.00363
563.19668,0.00295
562.23230,0.00234
561.26793,0.00240
560.30355,0.00236
559.33917,0.00257
558.37479,0.00265
557.41041,0.00249
556.44604,0.00220
555.48166,0.00193
554.51728,0.00219
553.55290,0.00187
552.58853,0.00121
551.62415,0.00092
550.65977,0.00148
549.69539,0.00279
548.73101,0.00302
547.76664,0.00253
546.80226,0.00249
545.83788,0.00253
544.87350,0.00255
543.90912,0.00289
542.94475,0.00287
541.98037,0.00258
541.01599,0.00252
540.05161,0.00214
539.08724,0.00201
538.12286,0.00236
537.15848,0.00282
536.19410,0.00318
535.22972,0.00297
534.26535,0.00274
533.30097,0.00270
532.33659,0.00286
531.37221,0.00307
530.40783,0.00275
529.44346,0.00226
528.47908,0.00223
527.51470,0.00242
526.55032,0.00247
525.58594,0.00283
524.62157,0.00311
523.65719,0.00288
522.69281,0.00266
521.72843,0.00279
520.76406,0.00318
519.79968,0.00304
518.83530,0.00281
517.87092,0.00307
516.90654,0.00332
515.94217,0.00315
514.97779,0.00253
514.01341,0.00241
513.04903,0.00278
512.08465,0.00268
511.12028,0.00237
510.15590,0.00216
509.19152,0.00210
508.22714,0.00245
507.26276,0.00257
506.29839,0.00222
505.33401,0.00198
504.36963,0.00175
503.40525,0.00168
502.44088,0.00167
501.47650,0.00186
500.51212,0.00253
499.54774,0.00269
498.58336,0.00248
497.61899,0.00252
496.65461,0.00273
495.69023,0.00289
494.72585,0.00259
493.76147,0.00227
492.79710,0.00237
491.83272,0.00264
490.86834,0.00256
489.90396,0.00215
488.93959,0.00202
487.97521,0.00246
487.01083,0.00308
486.04645,0.00297
485.08207,0.00237
484.11770,0.00232
483.15332,0.00277
482.18894,0.00288
481.22456,0.00259
480.26018,0.00267
479.29581,0.00293
478.33143,0.00295
477.36705,0.00290
476.40267,0.00273
475.43829,0.00224
474.47392,0.00194
473.50954,0.00246
472.54516,0.00288
471.58078,0.00245
470.61641,0.00191
469.65203,0.00207
468.68765,0.00288
467.72327,0.00311
466.75889,0.00264
465.79452,0.00234
464.83014,0.00226
463.86576,0.00228
462.90138,0.00216
461.93700,0.00200
460.97263,0.00222
460.00825,0.00243
459.04387,0.00252
458.07949,0.00258
457.11512,0.00268
456.15074,0.00267
455.18636,0.00222
454.22198,0.00209
453.25760,0.00224
452.29323,0.00208
451.32885,0.00220
450.36447,0.00240
449.40009,0.00242
448.43571,0.00254
447.47134,0.00251
446.50696,0.00234
445.54258,0.00235
444.57820,0.00224
443.61382,0.00200
442.64945,0.00229
441.68507,0.00249
440.72069,0.00236
439.75631,0.00226
438.79194,0.00170
437.82756,0.00165
436.86318,0.00220
435.89880,0.00227
434.93442,0.00214
433.97005,0.00207
433.00567,0.00211
432.04129,0.00210
431.07691,0.00216
430.11253,0.00240
429.14816,0.00225
428.18378,0.00215
427.21940,0.00209
426.25502,0.00184
425.29065,0.00199
424.32627,0.00208
423.36189,0.00189
422.39751,0.00209
421.43313,0.00226
420.46876,0.00203
419.50438,0.00186
418.54000,0.00191
417.57562,0.00208
416.61124,0.00172
415.64687,0.00129
414.68249,0.00151
413.71811,0.00150
412.75373,0.00152
411.78935,0.00173
410.82498,0.00160
409.86060,0.00178
408.89622,0.00209
407.93184,0.00228
406.96747,0.00232
406.00309,0.00205
405.03871,0.00199
404.07433,0.00197
403.10995,0.00207
402.14558,0.00230
401.18120,0.00225
400.21682,0.00214
399.25244,0.00194
