3998.31069,0.00476
3997.34631,0.00457
3996.38194,0.00460
3995.41756,0.00482
3994.45318,0.00509
3993.48880,0.00529
3992.52442,0.00530
3991.56005,0.00506
3990.59567,0.00450
3989.63129,0.00409
3988.66691,0.00428
3987.70253,0.00418
3986.73816,0.00406
3985.77378,0.00456
3984.80940,0.00461
3983.84502,0.00429
3982.88065,0.00453
3981.91627,0.00493
3980.95189,0.00491
3979.98751,0.00474
3979.02313,0.00490
3978.05876,0.00494
3977.09438,0.00456
3976.13000,0.00433
3975.16562,0.00443
3974.20124,0.00478
3973.23687,0.00503
3972.27249,0.00473
3971.30811,0.00450
3970.34373,0.00433
3969.37935,0.00405
3968.41498,0.00433
3967.45060,0.00475
3966.48622,0.00508
3965.52184,0.00532
3964.55747,0.00499
3963.59309,0.00460
3962.62871,0.00468
3961.66433,0.00481
3960.69995,0.00469
3959.73558,0.00452
3958.77120,0.00448
3957.80682,0.00463
3956.84244,0.00474
3955.87806,0.00468
3954.91369,0.00476
3953.94931,0.00491
3952.98493,0.00509
3952.02055,0.00504
3951.05618,0.00475
3950.09180,0.00487
3949.12742,0.00494
3948.16304,0.00458
3947.19866,0.00436
3946.23429,0.00457
3945.26991,0.00467
3944.30553,0.00435
3943.34115,0.00430
3942.37677,0.00445
3941.41240,0.00446
3940.44802,0.00452
3939.48364,0.00456
3938.51926,0.00452
3937.55488,0.00446
3936.59051,0.00478
3935.62613,0.00501
3934.66175,0.00483
3933.69737,0.00485
3932.73300,0.00480
3931.76862,0.00478
3930.80424,0.00488
3929.83986,0.00481
3928.87548,0.00496
3927.91111,0.00495
3926.94673,0.00461
3925.98235,0.00465
3925.01797,0.00477
3924.05359,0.00460
3923.08922,0.00467
3922.12484,0.00473
3921.16046,0.00457
3920.19608,0.00446
3919.23171,0.00440
3918.26733,0.00474
3917.30295,0.00482
3916.33857,0.00431
3915.37419,0.00438
3914.40982,0.00456
3913.44544,0.00442
3912.48106,0.00442
3911.51668,0.00442
3910.55230,0.00423
3909.58793,0.00384
3908.62355,0.00407
3907.65917,0.00449
3906.69479,0.00426
3905.73041,0.00418
3904.76604,0.00431
3903.80166,0.00463
3902.83728,0.00492
3901.87290,0.00460
3900.90853,0.00446
3899.94415,0.00484
3898.97977,0.00516
3898.01539,0.00512
3897.05101,0.00469
3896.08664,0.00422
3895.12226,0.00413
3894.15788,0.00443
3893.19350,0.00467
3892.22912,0.00475
3891.26475,0.00473
3890.30037,0.00462
3889.33599,0.00485
3888.37161,0.00492
3887.40724,0.00473
3886.44286,0.00485
3885.47848,0.00488
3884.51410,0.00499
3883.54972,0.00514
3882.58535,0.00494
3881.62097,0.00488
3880.65659,0.00489
3879.69221,0.00508
3878.72783,0.00537
3877.76346,0.00511
3876.79908,0.00480
3875.83470,0.00478
3874.87032,0.00474
3873.90594,0.00457
3872.94157,0.00437
3871.97719,0.00449
3871.01281,0.00477
3870.04843,0.00473
3869.08406,0.00443
3868.11968,0.00435
3867.15530,0.00467
3866.19092,0.00496
3865.22654,0.00475
3864.26217,0.00462
3863.29779,0.00475
3862.33341,0.00466
3861.36903,0.00447
3860.40465,0.00419
3859.44028,0.00421
3858.47590,0.00455
3857.51152,0.00462
3856.54714,0.00460
3855.58276,0.00455
3854.61839,0.00461
3853.65401,0.00489
3852.68963,0.00531
3851.72525,0.00557
3850.76088,0.00501
3849.79650,0.00456
3848.83212,0.00430
3847.86774,0.00401
3846.90336,0.00412
3845.93899,0.00417
3844.97461,0.00445
3844.01023,0.00473
3843.04585,0.00473
3842.08147,0.00482
3841.11710,0.00477
3840.15272,0.00472
3839.18834,0.00444
3838.22396,0.00424
3837.25959,0.00444
3836.29521,0.00455
3835.33083,0.00450
3834.36645,0.00433
3833.40207,0.00448
3832.43770,0.00462
3831.47332,0.00450
3830.50894,0.00440
3829.54456,0.00417
3828.58018,0.00427
3827.61581,0.00448
3826.65143,0.00447
3825.68705,0.00445
3824.72267,0.00452
3823.75829,0.00488
3822.79392,0.00475
3821.82954,0.00420
3820.86516,0.00436
3819.90078,0.00491
3818.93641,0.00497
3817.97203,0.00472
3817.00765,0.00464
3816.04327,0.00434
3815.07889,0.00399
3814.11452,0.00427
3813.15014,0.00433
3812.18576,0.00393
3811.22138,0.00414
3810.25700,0.00465
3809.29263,0.00480
3808.32825,0.00493
3807.36387,0.00495
3806.39949,0.00474
3805.43512,0.00466
3804.47074,0.00465
3803.50636,0.00455
3802.54198,0.00459
3801.57760,0.00492
3800.61323,0.00479
3799.64885,0.00434
3798.68447,0.00437
3797.72009,0.00460
3796.75571,0.00449
3795.79134,0.00406
3794.82696,0.00407
3793.86258,0.00454
3792.89820,0.00473
3791.93382,0.00463
3790.96945,0.00440
3790.00507,0.00439
3789.04069,0.00474
3788.07631,0.00483
3787.11194,0.00455
3786.14756,0.00448
3785.18318,0.00477
3784.21880,0.00460
3783.25442,0.00410
3782.29005,0.00423
3781.32567,0.00453
3780.36129,0.00445
3779.39691,0.00452
3778.43253,0.00466
3777.46816,0.00439
3776.50378,0.00427
3775.53940,0.00472
3774.57502,0.00512
3773.61065,0.00532
3772.64627,0.00536
3771.68189,0.00505
3770.71751,0.00471
3769.75313,0.00447
3768.78876,0.00458
3767.82438,0.00490
3766.86000,0.00452
3765.89562,0.00406
3764.93124,0.00441
3763.96687,0.00482
3763.00249,0.00490
3762.03811,0.00479
3761.07373,0.00453
3760.10935,0.00452
3759.14498,0.00455
3758.18060,0.00428
3757.21622,0.00425
3756.25184,0.00425
3755.28747,0.00416
3754.32309,0.00461
3753.35871,0.00498
3752.39433,0.00472
3751.42995,0.00448
3750.46558,0.00446
3749.50120,0.00450
3748.53682,0.00442
3747.57244,0.00410
3746.60806,0.00391
3745.64369,0.00415
3744.67931,0.00447
3743.71493,0.00442
3742.75055,0.00434
3741.78618,0.00445
3740.82180,0.00464
3739.85742,0.00490
3738.89304,0.00468
3737.92866,0.00400
3736.96429,0.00401
3735.99991,0.00434
3735.03553,0.00430
3734.07115,0.00410
3733.10677,0.00393
3732.14240,0.00422
3731.17802,0.00446
3730.21364,0.00448
3729.24926,0.00476
3728.28488,0.00472
3727.32051,0.00437
3726.35613,0.00440
3725.39175,0.00452
3724.42737,0.00445
3723.46300,0.00442
3722.49862,0.00431
3721.53424,0.00428
3720.56986,0.00463
3719.60548,0.00473
3718.64111,0.00449
3717.67673,0.00422
3716.71235,0.00414
3715.74797,0.00431
3714.78359,0.00410
3713.81922,0.00393
3712.85484,0.00430
3711.89046,0.00447
3710.92608,0.00441
3709.96171,0.00455
3708.99733,0.00467
3708.03295,0.00447
3707.06857,0.00439
3706.10419,0.00485
3705.13982,0.00519
3704.17544,0.00481
3703.21106,0.00432
3702.24668,0.00414
3701.28230,0.00417
3700.31793,0.00462
3699.35355,0.00497
3698.38917,0.00492
3697.42479,0.00470
3696.46041,0.00460
3695.49604,0.00481
3694.53166,0.00459
3693.56728,0.00446
3692.60290,0.00462
3691.63853,0.00421
3690.67415,0.00424
3689.70977,0.00460
3688.74539,0.00451
3687.78101,0.00444
3686.81664,0.00432
3685.85226,0.00422
3684.88788,0.00416
3683.92350,0.00426
3682.95912,0.00441
3681.99475,0.00447
3681.03037,0.00486
3680.06599,0.00505
3679.10161,0.00475
3678.13724,0.00427
3677.17286,0.00408
3676.20848,0.00447
3675.24410,0.00476
3674.27972,0.00475
3673.31535,0.00454
3672.35097,0.00457
3671.38659,0.00473
3670.42221,0.00465
3669.45783,0.00470
3668.49346,0.00460
3667.52908,0.00477
3666.56470,0.00499
3665.60032,0.00455
3664.63594,0.00440
3663.67157,0.00465
3662.70719,0.00477
3661.74281,0.00471
3660.77843,0.00509
3659.81406,0.00563
3658.84968,0.00549
3657.88530,0.00506
3656.92092,0.00487
3655.95654,0.00523
3654.99217,0.00530
3654.02779,0.00513
3653.06341,0.00562
3652.09903,0.00567
3651.13465,0.00519
3650.17028,0.00519
3649.20590,0.00568
3648.24152,0.00615
3647.27714,0.00602
3646.31276,0.00556
3645.34839,0.00544
3644.38401,0.00560
3643.41963,0.00593
3642.45525,0.00626
3641.49088,0.00614
3640.52650,0.00580
3639.56212,0.00567
3638.59774,0.00600
3637.63336,0.00616
3636.66899,0.00585
3635.70461,0.00598
3634.74023,0.00614
3633.77585,0.00605
3632.81147,0.00587
3631.84710,0.00566
3630.88272,0.00587
3629.91834,0.00598
3628.95396,0.00624
3627.98959,0.00670
3627.02521,0.00695
3626.06083,0.00693
3625.09645,0.00658
3624.13207,0.00636
3623.16770,0.00605
3622.20332,0.00603
3621.23894,0.00639
3620.27456,0.00647
3619.31018,0.00640
3618.34581,0.00624
3617.38143,0.00627
3616.41705,0.00639
3615.45267,0.00637
3614.48829,0.00624
3613.52392,0.00620
3612.55954,0.00636
3611.59516,0.00641
3610.63078,0.00642
3609.66641,0.00642
3608.70203,0.00656
3607.73765,0.00670
3606.77327,0.00679
3605.80889,0.00698
3604.84452,0.00701
3603.88014,0.00692
3602.91576,0.00675
3601.95138,0.00669
3600.98700,0.00676
3600.02263,0.00669
3599.05825,0.00643
3598.09387,0.00625
3597.12949,0.00642
3596.16512,0.00661
3595.20074,0.00681
3594.23636,0.00657
3593.27198,0.00635
3592.30760,0.00656
3591.34323,0.00658
3590.37885,0.00689
3589.41447,0.00698
3588.45009,0.00671
3587.48571,0.00637
3586.52134,0.00614
3585.55696,0.00654
3584.59258,0.00647
3583.62820,0.00640
3582.66382,0.00701
3581.69945,0.00727
3580.73507,0.00697
3579.77069,0.00676
3578.80631,0.00682
3577.84194,0.00671
3576.87756,0.00678
3575.91318,0.00697
3574.94880,0.00690
3573.98442,0.00668
3573.02005,0.00654
3572.05567,0.00670
3571.09129,0.00661
3570.12691,0.00654
3569.16253,0.00668
3568.19816,0.00690
3567.23378,0.00704
3566.26940,0.00669
3565.30502,0.00654
3564.34065,0.00644
3563.37627,0.00678
3562.41189,0.00739
3561.44751,0.00713
3560.48313,0.00692
3559.51876,0.00669
3558.55438,0.00637
3557.59000,0.00658
3556.62562,0.00691
3555.66124,0.00727
3554.69687,0.00746
3553.73249,0.00751
3552.76811,0.00751
3551.80373,0.00737
3550.83935,0.00720
3549.87498,0.00722
3548.91060,0.00734
3547.94622,0.00737
3546.98184,0.00733
3546.01747,0.00727
3545.05309,0.00759
3544.08871,0.00787
3543.12433,0.00765
3542.15995,0.00753
3541.19558,0.00736
3540.23120,0.00728
3539.26682,0.00733
3538.30244,0.00718
3537.33806,0.00726
3536.37369,0.00758
3535.40931,0.00777
3534.44493,0.00770
3533.48055,0.00762
3532.51618,0.00760
3531.55180,0.00762
3530.58742,0.00779
3529.62304,0.00779
3528.65866,0.00769
3527.69429,0.00775
3526.72991,0.00787
3525.76553,0.00793
3524.80115,0.00806
3523.83677,0.00829
3522.87240,0.00831
3521.90802,0.00816
3520.94364,0.00803
3519.97926,0.00798
3519.01488,0.00816
3518.05051,0.00828
3517.08613,0.00806
3516.12175,0.00793
3515.15737,0.00813
3514.19300,0.00822
3513.22862,0.00828
3512.26424,0.00827
3511.29986,0.00823
3510.33548,0.00843
3509.37111,0.00845
3508.40673,0.00840
3507.44235,0.00828
3506.47797,0.00833
3505.51359,0.00864
3504.54922,0.00871
3503.58484,0.00862
3502.62046,0.00833
3501.65608,0.00836
3500.69171,0.00859
3499.72733,0.00839
3498.76295,0.00838
3497.79857,0.00849
3496.83419,0.00866
3495.86982,0.00873
3494.90544,0.00868
3493.94106,0.00879
3492.97668,0.00869
3492.01230,0.00853
3491.04793,0.00860
3490.08355,0.00878
3489.11917,0.00856
3488.15479,0.00824
3487.19041,0.00824
3486.22604,0.00809
3485.26166,0.00834
3484.29728,0.00885
3483.33290,0.00891
3482.36853,0.00881
3481.40415,0.00872
3480.43977,0.00869
3479.47539,0.00850
3478.51101,0.00871
3477.54664,0.00920
3476.58226,0.00899
3475.61788,0.00881
3474.65350,0.00911
3473.68912,0.00907
3472.72475,0.00877
3471.76037,0.00873
3470.79599,0.00903
3469.83161,0.00945
3468.86724,0.00952
3467.90286,0.00916
3466.93848,0.00899
3465.97410,0.00911
3465.00972,0.00919
3464.04535,0.00915
3463.08097,0.00902
3462.11659,0.00897
3461.15221,0.00899
3460.18783,0.00902
3459.22346,0.00921
3458.25908,0.00916
3457.29470,0.00894
3456.33032,0.00925
3455.36594,0.00948
3454.40157,0.00917
3453.43719,0.00905
3452.47281,0.00932
3451.50843,0.00921
3450.54406,0.00894
3449.57968,0.00913
3448.61530,0.00913
3447.65092,0.00911
3446.68654,0.00960
3445.72217,0.00975
3444.75779,0.00941
3443.79341,0.00944
3442.82903,0.00970
3441.86465,0.00963
3440.90028,0.00949
3439.93590,0.00916
3438.97152,0.00902
3438.00714,0.00947
3437.04276,0.00970
3436.07839,0.00967
3435.11401,0.00933
3434.14963,0.00903
3433.18525,0.00899
3432.22088,0.00882
3431.25650,0.00917
3430.29212,0.00950
3429.32774,0.00949
3428.36336,0.00969
3427.39899,0.00969
3426.43461,0.00957
3425.47023,0.00936
3424.50585,0.00922
3423.54147,0.00936
3422.57710,0.00941
3421.61272,0.00925
3420.64834,0.00904
3419.68396,0.00905
3418.71959,0.00922
3417.75521,0.00918
3416.79083,0.00905
3415.82645,0.00920
3414.86207,0.00939
3413.89770,0.00949
3412.93332,0.00947
3411.96894,0.00939
3411.00456,0.00967
3410.04018,0.00962
3409.07581,0.00922
3408.11143,0.00918
3407.14705,0.00922
3406.18267,0.00926
3405.21829,0.00940
3404.25392,0.00948
3403.28954,0.00944
3402.32516,0.00942
3401.36078,0.00936
3400.39641,0.00933
3399.43203,0.00958
3398.46765,0.00963
3397.50327,0.00956
3396.53889,0.00964
3395.57452,0.00965
3394.61014,0.00970
3393.64576,0.00971
3392.68138,0.00958
3391.71700,0.00953
3390.75263,0.00955
3389.78825,0.00925
3388.82387,0.00904
3387.85949,0.00926
3386.89512,0.00927
3385.93074,0.00927
3384.96636,0.00927
3384.00198,0.00902
3383.03760,0.00911
3382.07323,0.00942
3381.10885,0.00950
3380.14447,0.00942
3379.18009,0.00950
3378.21571,0.00960
3377.25134,0.00942
3376.28696,0.00908
3375.32258,0.00889
3374.35820,0.00898
3373.39382,0.00907
3372.42945,0.00904
3371.46507,0.00907
3370.50069,0.00938
3369.53631,0.00958
3368.57194,0.00948
3367.60756,0.00967
3366.64318,0.00985
3365.67880,0.00955
3364.71442,0.00916
3363.75005,0.00912
3362.78567,0.00925
3361.82129,0.00933
3360.85691,0.00937
3359.89253,0.00930
3358.92816,0.00930
3357.96378,0.00905
3356.99940,0.00873
3356.03502,0.00883
3355.07065,0.00876
3354.10627,0.00883
3353.14189,0.00914
3352.17751,0.00904
3351.21313,0.00878
3350.24876,0.00879
3349.28438,0.00915
3348.32000,0.00942
3347.35562,0.00937
3346.39124,0.00925
3345.42687,0.00922
3344.46249,0.00924
3343.49811,0.00913
3342.53373,0.00913
3341.56935,0.00940
3340.60498,0.00948
3339.64060,0.00939
3338.67622,0.00962
3337.71184,0.00959
3336.74747,0.00911
3335.78309,0.00903
3334.81871,0.00902
3333.85433,0.00886
3332.88995,0.00913
3331.92558,0.00942
3330.96120,0.00901
3329.99682,0.00859
3329.03244,0.00873
3328.06806,0.00890
3327.10369,0.00903
3326.13931,0.00896
3325.17493,0.00883
3324.21055,0.00895
3323.24618,0.00891
3322.28180,0.00881
3321.31742,0.00886
3320.35304,0.00878
3319.38866,0.00857
3318.42429,0.00856
3317.45991,0.00870
3316.49553,0.00883
3315.53115,0.00897
3314.56677,0.00889
3313.60240,0.00880
3312.63802,0.00878
3311.67364,0.00870
3310.70926,0.00875
3309.74488,0.00883
3308.78051,0.00873
3307.81613,0.00869
3306.85175,0.00892
3305.88737,0.00898
3304.92300,0.00886
3303.95862,0.00868
3302.99424,0.00853
3302.02986,0.00875
3301.06548,0.00870
3300.10111,0.00843
3299.13673,0.00857
3298.17235,0.00875
3297.20797,0.00864
3296.24359,0.00862
3295.27922,0.00876
3294.31484,0.00845
3293.35046,0.00825
3292.38608,0.00846
3291.42171,0.00857
3290.45733,0.00880
3289.49295,0.00887
3288.52857,0.00872
3287.56419,0.00854
3286.59982,0.00845
3285.63544,0.00843
3284.67106,0.00843
3283.70668,0.00849
3282.74230,0.00834
3281.77793,0.00828
3280.81355,0.00844
3279.84917,0.00865
3278.88479,0.00878
3277.92041,0.00859
3276.95604,0.00836
3275.99166,0.00833
3275.02728,0.00855
3274.06290,0.00857
3273.09853,0.00839
3272.13415,0.00833
3271.16977,0.00823
3270.20539,0.00822
3269.24101,0.00831
3268.27664,0.00861
3267.31226,0.00862
3266.34788,0.00811
3265.38350,0.00793
3264.41912,0.00815
3263.45475,0.00836
3262.49037,0.00824
3261.52599,0.00818
3260.56161,0.00840
3259.59724,0.00833
3258.63286,0.00819
3257.66848,0.00820
3256.70410,0.00831
3255.73972,0.00865
3254.77535,0.00879
3253.81097,0.00840
3252.84659,0.00802
3251.88221,0.00815
3250.91783,0.00837
3249.95346,0.00840
3248.98908,0.00838
3248.02470,0.00848
3247.06032,0.00852
3246.09594,0.00844
3245.13157,0.00861
3244.16719,0.00855
3243.20281,0.00828
3242.23843,0.00840
3241.27406,0.00853
3240.30968,0.00848
3239.34530,0.00844
3238.38092,0.00848
3237.41654,0.00854
3236.45217,0.00844
3235.48779,0.00834
3234.52341,0.00814
3233.55903,0.00789
3232.59465,0.00793
3231.63028,0.00795
3230.66590,0.00797
3229.70152,0.00813
3228.73714,0.00809
3227.77276,0.00779
3226.80839,0.00776
3225.84401,0.00797
3224.87963,0.00777
3223.91525,0.00774
3222.95088,0.00814
3221.98650,0.00815
3221.02212,0.00809
3220.05774,0.00820
3219.09336,0.00821
3218.12899,0.00811
3217.16461,0.00798
3216.20023,0.00796
3215.23585,0.00799
3214.27147,0.00812
3213.30710,0.00807
3212.34272,0.00781
3211.37834,0.00790
3210.41396,0.00818
3209.44959,0.00816
3208.48521,0.00797
3207.52083,0.00790
3206.55645,0.00786
3205.59207,0.00789
3204.62770,0.00808
3203.66332,0.00821
3202.69894,0.00823
3201.73456,0.00809
3200.77018,0.00780
3199.80581,0.00771
3198.84143,0.00783
3197.87705,0.00786
3196.91267,0.00807
3195.94829,0.00822
3194.98392,0.00799
3194.01954,0.00791
3193.05516,0.00766
3192.09078,0.00752
3191.12641,0.00796
3190.16203,0.00809
3189.19765,0.00791
3188.23327,0.00790
3187.26889,0.00807
3186.30452,0.00819
3185.34014,0.00802
3184.37576,0.00783
3183.41138,0.00773
3182.44700,0.00788
3181.48263,0.00821
3180.51825,0.00812
3179.55387,0.00799
3178.58949,0.00794
3177.62512,0.00753
3176.66074,0.00724
3175.69636,0.00742
3174.73198,0.00767
3173.76760,0.00763
3172.80323,0.00760
3171.83885,0.00772
3170.87447,0.00763
3169.91009,0.00749
3168.94571,0.00734
3167.98134,0.00736
3167.01696,0.00762
3166.05258,0.00753
3165.08820,0.00747
3164.12382,0.00760
3163.15945,0.00752
3162.19507,0.00738
3161.23069,0.00729
3160.26631,0.00740
3159.30194,0.00758
3158.33756,0.00759
3157.37318,0.00739
3156.40880,0.00732
3155.44442,0.00749
3154.48005,0.00729
3153.51567,0.00712
3152.55129,0.00734
3151.58691,0.00744
3150.62253,0.00746
3149.65816,0.00737
3148.69378,0.00713
3147.72940,0.00701
3146.76502,0.00706
3145.80065,0.00719
3144.83627,0.00751
3143.87189,0.00766
3142.90751,0.00742
3141.94313,0.00721
3140.97876,0.00709
3140.01438,0.00710
3139.05000,0.00717
3138.08562,0.00714
3137.12124,0.00696
3136.15687,0.00688
3135.19249,0.00695
3134.22811,0.00672
3133.26373,0.00664
3132.29935,0.00692
3131.33498,0.00696
3130.37060,0.00681
3129.40622,0.00683
3128.44184,0.00705
3127.47747,0.00710
3126.51309,0.00688
3125.54871,0.00684
3124.58433,0.00708
3123.61995,0.00714
3122.65558,0.00704
3121.69120,0.00698
3120.72682,0.00690
3119.76244,0.00708
3118.79806,0.00730
3117.83369,0.00721
3116.86931,0.00697
3115.90493,0.00667
3114.94055,0.00663
3113.97618,0.00677
3113.01180,0.00689
3112.04742,0.00682
3111.08304,0.00680
3110.11866,0.00710
3109.15429,0.00710
3108.18991,0.00684
3107.22553,0.00675
3106.26115,0.00675
3105.29677,0.00670
3104.33240,0.00662
3103.36802,0.00668
3102.40364,0.00671
3101.43926,0.00677
3100.47488,0.00688
3099.51051,0.00683
3098.54613,0.00660
3097.58175,0.00627
3096.61737,0.00612
3095.65300,0.00633
3094.68862,0.00663
3093.72424,0.00665
3092.75986,0.00660
3091.79548,0.00670
3090.83111,0.00669
3089.86673,0.00664
3088.90235,0.00658
3087.93797,0.00640
3086.97359,0.00624
3086.00922,0.00641
3085.04484,0.00662
3084.08046,0.00638
3083.11608,0.00617
3082.15171,0.00641
3081.18733,0.00669
3080.22295,0.00663
3079.25857,0.00651
3078.29419,0.00644
3077.32982,0.00636
3076.36544,0.00638
3075.40106,0.00649
3074.43668,0.00653
3073.47230,0.00636
3072.50793,0.00630
3071.54355,0.00625
3070.57917,0.00621
3069.61479,0.00652
3068.65041,0.00650
3067.68604,0.00622
3066.72166,0.00618
3065.75728,0.00629
3064.79290,0.00640
3063.82853,0.00629
3062.86415,0.00623
3061.89977,0.00608
3060.93539,0.00593
3059.97101,0.00604
3059.00664,0.00610
3058.04226,0.00622
3057.07788,0.00629
3056.11350,0.00633
3055.14912,0.00627
3054.18475,0.00598
3053.22037,0.00599
3052.25599,0.00617
3051.29161,0.00613
3050.32724,0.00593
3049.36286,0.00572
3048.39848,0.00575
3047.43410,0.00577
3046.46972,0.00579
3045.50535,0.00594
3044.54097,0.00593
3043.57659,0.00585
3042.61221,0.00592
3041.64783,0.00603
3040.68346,0.00593
3039.71908,0.00572
3038.75470,0.00584
3037.79032,0.00600
3036.82594,0.00604
3035.86157,0.00613
3034.89719,0.00606
3033.93281,0.00588
3032.96843,0.00565
3032.00406,0.00555
3031.03968,0.00571
3030.07530,0.00590
3029.11092,0.00599
3028.14654,0.00587
3027.18217,0.00570
3026.21779,0.00567
3025.25341,0.00575
3024.28903,0.00580
3023.32465,0.00579
3022.36028,0.00581
3021.39590,0.00567
3020.43152,0.00567
3019.46714,0.00598
3018.50276,0.00599
3017.53839,0.00579
3016.57401,0.00567
3015.60963,0.00554
3014.64525,0.00549
3013.68088,0.00560
3012.71650,0.00571
3011.75212,0.00576
3010.78774,0.00568
3009.82336,0.00552
3008.85899,0.00556
3007.89461,0.00562
3006.93023,0.00552
3005.96585,0.00537
3005.00147,0.00531
3004.03710,0.00545
3003.07272,0.00556
3002.10834,0.00562
3001.14396,0.00574
3000.17959,0.00569
2999.21521,0.00550
2998.25083,0.00540
2997.28645,0.00544
2996.32207,0.00557
2995.35770,0.00569
2994.39332,0.00564
2993.42894,0.00557
2992.46456,0.00554
2991.50018,0.00537
2990.53581,0.00520
2989.57143,0.00524
2988.60705,0.00536
2987.64267,0.00549
2986.67829,0.00564
2985.71392,0.00576
2984.74954,0.00572
2983.78516,0.00559
2982.82078,0.00553
2981.85641,0.00539
2980.89203,0.00517
2979.92765,0.00518
2978.96327,0.00524
2977.99889,0.00528
2977.03452,0.00540
2976.07014,0.00537
2975.10576,0.00542
2974.14138,0.00560
2973.17700,0.00557
2972.21263,0.00541
2971.24825,0.00532
2970.28387,0.00534
2969.31949,0.00530
2968.35512,0.00510
2967.39074,0.00509
2966.42636,0.00524
2965.46198,0.00521
2964.49760,0.00513
2963.53323,0.00517
2962.56885,0.00525
2961.60447,0.00521
2960.64009,0.00522
2959.67571,0.00528
2958.71134,0.00517
2957.74696,0.00510
2956.78258,0.00520
2955.81820,0.00527
2954.85382,0.00522
2953.88945,0.00507
2952.92507,0.00509
2951.96069,0.00529
2950.99631,0.00528
2950.03194,0.00519
2949.06756,0.00510
2948.10318,0.00499
2947.13880,0.00505
2946.17442,0.00509
2945.21005,0.00510
2944.24567,0.00527
2943.28129,0.00527
2942.31691,0.00505
2941.35253,0.00504
2940.38816,0.00527
2939.42378,0.00526
2938.45940,0.00515
2937.49502,0.00528
2936.53065,0.00538
2935.56627,0.00536
2934.60189,0.00529
2933.63751,0.00522
2932.67313,0.00527
2931.70876,0.00547
2930.74438,0.00568
2929.78000,0.00569
2928.81562,0.00561
2927.85124,0.00558
2926.88687,0.00550
2925.92249,0.00537
2924.95811,0.00537
2923.99373,0.00538
2923.02935,0.00527
2922.06498,0.00532
2921.10060,0.00548
2920.13622,0.00544
2919.17184,0.00532
2918.20747,0.00522
2917.24309,0.00504
2916.27871,0.00509
2915.31433,0.00525
2914.34995,0.00516
2913.38558,0.00518
2912.42120,0.00531
2911.45682,0.00520
2910.49244,0.00516
2909.52806,0.00529
2908.56369,0.00530
2907.59931,0.00507
2906.63493,0.00490
2905.67055,0.00496
2904.70618,0.00502
2903.74180,0.00506
2902.77742,0.00511
2901.81304,0.00503
2900.84866,0.00494
2899.88429,0.00493
2898.91991,0.00487
2897.95553,0.00485
2896.99115,0.00502
2896.02677,0.00502
2895.06240,0.00486
2894.09802,0.00498
2893.13364,0.00505
2892.16926,0.00497
2891.20488,0.00508
2890.24051,0.00495
2889.27613,0.00472
2888.31175,0.00484
2887.34737,0.00497
2886.38300,0.00494
2885.41862,0.00485
2884.45424,0.00475
2883.48986,0.00491
2882.52548,0.00511
2881.56111,0.00507
2880.59673,0.00496
2879.63235,0.00493
2878.66797,0.00499
2877.70359,0.00500
2876.73922,0.00491
2875.77484,0.00488
2874.81046,0.00487
2873.84608,0.00483
2872.88171,0.00489
2871.91733,0.00503
2870.95295,0.00513
2869.98857,0.00494
2869.02419,0.00487
2868.05982,0.00506
2867.09544,0.00501
2866.13106,0.00490
2865.16668,0.00492
2864.20230,0.00489
2863.23793,0.00495
2862.27355,0.00509
2861.30917,0.00513
2860.34479,0.00506
2859.38041,0.00506
2858.41604,0.00507
2857.45166,0.00503
2856.48728,0.00500
2855.52290,0.00497
2854.55853,0.00499
2853.59415,0.00502
2852.62977,0.00492
2851.66539,0.00477
2850.70101,0.00478
2849.73664,0.00489
2848.77226,0.00489
2847.80788,0.00487
2846.84350,0.00494
2845.87912,0.00490
2844.91475,0.00475
2843.95037,0.00482
2842.98599,0.00488
2842.02161,0.00485
2841.05724,0.00486
2840.09286,0.00488
2839.12848,0.00488
2838.16410,0.00480
2837.19972,0.00470
2836.23535,0.00460
2835.27097,0.00472
2834.30659,0.00487
2833.34221,0.00485
2832.37783,0.00495
2831.41346,0.00485
2830.44908,0.00472
2829.48470,0.00475
2828.52032,0.00467
2827.55594,0.00468
2826.59157,0.00478
2825.62719,0.00479
2824.66281,0.00478
2823.69843,0.00474
2822.73406,0.00469
2821.76968,0.00472
2820.80530,0.00466
2819.84092,0.00452
2818.87654,0.00457
2817.91217,0.00467
2816.94779,0.00484
2815.98341,0.00489
2815.01903,0.00482
2814.05465,0.00480
2813.09028,0.00464
2812.12590,0.00448
2811.16152,0.00444
2810.19714,0.00462
2809.23276,0.00475
2808.26839,0.00464
2807.30401,0.00462
2806.33963,0.00459
2805.37525,0.00465
2804.41088,0.00471
2803.44650,0.00465
2802.48212,0.00460
2801.51774,0.00459
2800.55336,0.00471
2799.58899,0.00473
2798.62461,0.00473
2797.66023,0.00477
2796.69585,0.00473
2795.73147,0.00465
2794.76710,0.00453
2793.80272,0.00454
2792.83834,0.00465
2791.87396,0.00474
2790.90959,0.00470
2789.94521,0.00458
2788.98083,0.00446
2788.01645,0.00444
2787.05207,0.00457
2786.08770,0.00458
2785.12332,0.00455
2784.15894,0.00447
2783.19456,0.00436
2782.23018,0.00439
2781.26581,0.00443
2780.30143,0.00447
2779.33705,0.00443
2778.37267,0.00449
2777.40829,0.00465
2776.44392,0.00459
2775.47954,0.00453
2774.51516,0.00460
2773.55078,0.00465
2772.58641,0.00463
2771.62203,0.00457
2770.65765,0.00447
2769.69327,0.00443
2768.72889,0.00449
2767.76452,0.00451
2766.80014,0.00457
2765.83576,0.00456
2764.87138,0.00454
2763.90700,0.00462
2762.94263,0.00457
2761.97825,0.00444
2761.01387,0.00436
2760.04949,0.00442
2759.08512,0.00452
2758.12074,0.00450
2757.15636,0.00445
2756.19198,0.00446
2755.22760,0.00446
2754.26323,0.00445
2753.29885,0.00453
2752.33447,0.00460
2751.37009,0.00454
2750.40571,0.00446
2749.44134,0.00440
2748.47696,0.00429
2747.51258,0.00429
2746.54820,0.00437
2745.58382,0.00430
2744.61945,0.00432
2743.65507,0.00432
2742.69069,0.00427
2741.72631,0.00440
2740.76194,0.00456
2739.79756,0.00462
2738.83318,0.00438
2737.86880,0.00420
2736.90442,0.00428
2735.94005,0.00430
2734.97567,0.00435
2734.01129,0.00437
2733.04691,0.00429
2732.08253,0.00420
2731.11816,0.00408
2730.15378,0.00410
2729.18940,0.00419
2728.22502,0.00419
2727.26065,0.00410
2726.29627,0.00405
2725.33189,0.00401
2724.36751,0.00405
2723.40313,0.00417
2722.43876,0.00427
2721.47438,0.00428
2720.51000,0.00425
2719.54562,0.00423
2718.58124,0.00422
2717.61687,0.00428
2716.65249,0.00425
2715.68811,0.00413
2714.72373,0.00414
2713.75935,0.00416
2712.79498,0.00422
2711.83060,0.00431
2710.86622,0.00436
2709.90184,0.00438
2708.93747,0.00428
2707.97309,0.00419
2707.00871,0.00417
2706.04433,0.00431
2705.07995,0.00437
2704.11558,0.00424
2703.15120,0.00425
2702.18682,0.00428
2701.22244,0.00422
2700.25806,0.00423
2699.29369,0.00423
2698.32931,0.00417
2697.36493,0.00416
2696.40055,0.00426
2695.43618,0.00435
2694.47180,0.00424
2693.50742,0.00406
2692.54304,0.00419
2691.57866,0.00432
2690.61429,0.00425
2689.64991,0.00414
2688.68553,0.00412
2687.72115,0.00423
2686.75677,0.00419
2685.79240,0.00408
2684.82802,0.00400
2683.86364,0.00399
2682.89926,0.00408
2681.93488,0.00408
2680.97051,0.00408
2680.00613,0.00412
2679.04175,0.00410
2678.07737,0.00410
2677.11300,0.00410
2676.14862,0.00406
2675.18424,0.00403
2674.21986,0.00405
2673.25548,0.00401
2672.29111,0.00391
2671.32673,0.00389
2670.36235,0.00398
2669.39797,0.00410
2668.43359,0.00411
2667.46922,0.00409
2666.50484,0.00416
2665.54046,0.00423
2664.57608,0.00416
2663.61171,0.00396
2662.64733,0.00388
2661.68295,0.00391
2660.71857,0.00390
2659.75419,0.00386
2658.78982,0.00381
2657.82544,0.00387
2656.86106,0.00397
2655.89668,0.00403
2654.93230,0.00405
2653.96793,0.00400
2653.00355,0.00394
2652.03917,0.00386
2651.07479,0.00379
2650.11041,0.00373
2649.14604,0.00378
2648.18166,0.00395
2647.21728,0.00384
2646.25290,0.00378
2645.28853,0.00392
2644.32415,0.00387
2643.35977,0.00382
2642.39539,0.00390
2641.43101,0.00404
2640.46664,0.00413
2639.50226,0.00410
2638.53788,0.00393
2637.57350,0.00361
2636.60912,0.00365
2635.64475,0.00377
2634.68037,0.00362
2633.71599,0.00364
2632.75161,0.00385
2631.78724,0.00399
2630.82286,0.00387
2629.85848,0.00364
2628.89410,0.00363
2627.92972,0.00379
2626.96535,0.00389
2626.00097,0.00387
2625.03659,0.00388
2624.07221,0.00381
2623.10783,0.00370
2622.14346,0.00378
2621.17908,0.00380
2620.21470,0.00366
2619.25032,0.00369
2618.28594,0.00381
2617.32157,0.00376
2616.35719,0.00362
2615.39281,0.00332
2614.42843,0.00326
2613.46406,0.00343
2612.49968,0.00344
2611.53530,0.00362
2610.57092,0.00372
2609.60654,0.00379
2608.64217,0.00387
2607.67779,0.00372
2606.71341,0.00368
2605.74903,0.00371
2604.78465,0.00368
2603.82028,0.00363
2602.85590,0.00370
2601.89152,0.00365
2600.92714,0.00340
2599.96276,0.00339
2598.99839,0.00349
2598.03401,0.00357
2597.06963,0.00363
2596.10525,0.00371
2595.14088,0.00359
2594.17650,0.00319
2593.21212,0.00319
2592.24774,0.00350
2591.28336,0.00352
2590.31899,0.00330
2589.35461,0.00327
2588.39023,0.00335
2587.42585,0.00316
2586.46147,0.00317
2585.49710,0.00335
2584.53272,0.00340
2583.56834,0.00361
2582.60396,0.00372
2581.63959,0.00370
2580.67521,0.00377
2579.71083,0.00367
2578.74645,0.00354
2577.78207,0.00362
2576.81770,0.00358
2575.85332,0.00322
2574.88894,0.00290
2573.92456,0.00310
2572.96018,0.00342
2571.99581,0.00349
2571.03143,0.00348
2570.06705,0.00323
2569.10267,0.00314
2568.13829,0.00325
2567.17392,0.00342
2566.20954,0.00365
2565.24516,0.00346
2564.28078,0.00342
2563.31641,0.00382
2562.35203,0.00405
2561.38765,0.00412
2560.42327,0.00384
2559.45889,0.00339
2558.49452,0.00336
2557.53014,0.00336
2556.56576,0.00334
2555.60138,0.00347
2554.63700,0.00339
2553.67263,0.00351
2552.70825,0.00364
2551.74387,0.00336
2550.77949,0.00339
2549.81512,0.00336
2548.85074,0.00305
2547.88636,0.00315
2546.92198,0.00342
2545.95760,0.00348
2544.99323,0.00361
2544.02885,0.00375
2543.06447,0.00340
2542.10009,0.00298
2541.13571,0.00319
2540.17134,0.00364
2539.20696,0.00387
2538.24258,0.00368
2537.27820,0.00325
2536.31382,0.00312
2535.34945,0.00331
2534.38507,0.00350
2533.42069,0.00357
2532.45631,0.00339
2531.49194,0.00337
2530.52756,0.00349
2529.56318,0.00323
2528.59880,0.00296
2527.63442,0.00300
2526.67005,0.00325
2525.70567,0.00331
2524.74129,0.00334
2523.77691,0.00364
2522.81253,0.00372
2521.84816,0.00358
2520.88378,0.00333
2519.91940,0.00320
2518.95502,0.00327
2517.99065,0.00332
2517.02627,0.00344
2516.06189,0.00346
2515.09751,0.00343
2514.13313,0.00327
2513.16876,0.00307
2512.20438,0.00305
2511.24000,0.00301
2510.27562,0.00308
2509.31124,0.00299
2508.34687,0.00293
2507.38249,0.00317
2506.41811,0.00323
2505.45373,0.00324
2504.48935,0.00324
2503.52498,0.00323
2502.56060,0.00319
2501.59622,0.00331
2500.63184,0.00341
2499.66747,0.00314
2498.70309,0.00320
2497.73871,0.00337
2496.77433,0.00331
2495.80995,0.00349
2494.84558,0.00336
2493.88120,0.00297
2492.91682,0.00323
2491.95244,0.00363
2490.98806,0.00354
2490.02369,0.00343
2489.05931,0.00329
2488.09493,0.00322
2487.13055,0.00334
2486.16618,0.00328
2485.20180,0.00313
2484.23742,0.00301
2483.27304,0.00303
2482.30866,0.00308
2481.34429,0.00318
2480.37991,0.00336
2479.41553,0.00328
2478.45115,0.00325
2477.48677,0.00329
2476.52240,0.00344
2475.55802,0.00375
2474.59364,0.00372
2473.62926,0.00343
2472.66488,0.00311
2471.70051,0.00278
2470.73613,0.00260
2469.77175,0.00282
2468.80737,0.00297
2467.84300,0.00273
2466.87862,0.00261
2465.91424,0.00282
2464.94986,0.00309
2463.98548,0.00297
2463.02111,0.00289
2462.05673,0.00304
2461.09235,0.00297
2460.12797,0.00312
2459.16359,0.00320
2458.19922,0.00295
2457.23484,0.00300
2456.27046,0.00333
2455.30608,0.00344
2454.34171,0.00316
2453.37733,0.00299
2452.41295,0.00310
2451.44857,0.00303
2450.48419,0.00291
2449.51982,0.00310
2448.55544,0.00323
2447.59106,0.00308
2446.62668,0.00309
2445.66230,0.00323
2444.69793,0.00324
2443.73355,0.00297
2442.76917,0.00262
2441.80479,0.00255
2440.84041,0.00280
2439.87604,0.00296
2438.91166,0.00278
2437.94728,0.00290
2436.98290,0.00326
2436.01853,0.00332
2435.05415,0.00338
2434.08977,0.00358
2433.12539,0.00359
2432.16101,0.00328
2431.19664,0.00296
2430.23226,0.00277
2429.26788,0.00276
2428.30350,0.00279
2427.33912,0.00263
2426.37475,0.00262
2425.41037,0.00284
2424.44599,0.00298
2423.48161,0.00293
2422.51724,0.00281
2421.55286,0.00280
2420.58848,0.00309
2419.62410,0.00346
2418.65972,0.00336
2417.69535,0.00310
2416.73097,0.00315
2415.76659,0.00339
2414.80221,0.00333
2413.83783,0.00300
2412.87346,0.00300
2411.90908,0.00315
2410.94470,0.00324
2409.98032,0.00312
2409.01594,0.00274
2408.05157,0.00264
2407.08719,0.00289
2406.12281,0.00285
2405.15843,0.00271
2404.19406,0.00305
2403.22968,0.00319
2402.26530,0.00302
2401.30092,0.00297
2400.33654,0.00292
2399.37217,0.00304
2398.40779,0.00331
2397.44341,0.00331
2396.47903,0.00291
2395.51465,0.00290
2394.55028,0.00322
2393.58590,0.00328
2392.62152,0.00308
2391.65714,0.00271
2390.69276,0.00283
2389.72839,0.00304
2388.76401,0.00285
2387.79963,0.00273
2386.83525,0.00262
2385.87088,0.00272
2384.90650,0.00282
2383.94212,0.00283
2382.97774,0.00292
2382.01336,0.00290
2381.04899,0.00293
2380.08461,0.00308
2379.12023,0.00326
2378.15585,0.00338
2377.19147,0.00354
2376.22710,0.00367
2375.26272,0.00389
2374.29834,0.00439
2373.33396,0.00458
2372.36959,0.00461
2371.40521,0.00474
2370.44083,0.00480
2369.47645,0.00507
2368.51207,0.00541
2367.54770,0.00545
2366.58332,0.00539
2365.61894,0.00552
2364.65456,0.00563
2363.69018,0.00560
2362.72581,0.00568
2361.76143,0.00566
2360.79705,0.00560
2359.83267,0.00575
2358.86829,0.00595
2357.90392,0.00582
2356.93954,0.00547
2355.97516,0.00532
2355.01078,0.00528
2354.04641,0.00509
2353.08203,0.00474
2352.11765,0.00442
2351.15327,0.00404
2350.18889,0.00366
2349.22452,0.00353
2348.26014,0.00367
2347.29576,0.00403
2346.33138,0.00438
2345.36700,0.00464
2344.40263,0.00474
2343.43825,0.00472
2342.47387,0.00480
2341.50949,0.00479
2340.54512,0.00476
2339.58074,0.00490
2338.61636,0.00487
2337.65198,0.00468
2336.68760,0.00471
2335.72323,0.00483
2334.75885,0.00498
2333.79447,0.00516
2332.83009,0.00506
2331.86571,0.00484
2330.90134,0.00487
2329.93696,0.00490
2328.97258,0.00475
2328.00820,0.00477
2327.04382,0.00469
2326.07945,0.00436
2325.11507,0.00440
2324.15069,0.00462
2323.18631,0.00440
2322.22194,0.00405
2321.25756,0.00398
2320.29318,0.00397
2319.32880,0.00385
2318.36442,0.00389
2317.40005,0.00401
2316.43567,0.00394
2315.47129,0.00373
2314.50691,0.00365
2313.54253,0.00352
2312.57816,0.00318
2311.61378,0.00315
2310.64940,0.00326
2309.68502,0.00328
2308.72065,0.00324
2307.75627,0.00327
2306.79189,0.00346
2305.82751,0.00329
2304.86313,0.00310
2303.89876,0.00314
2302.93438,0.00314
2301.97000,0.00314
2301.00562,0.00303
2300.04124,0.00294
2299.07687,0.00292
2298.11249,0.00296
2297.14811,0.00295
2296.18373,0.00279
2295.21935,0.00265
2294.25498,0.00264
2293.29060,0.00287
2292.32622,0.00292
2291.36184,0.00277
2290.39747,0.00278
2289.43309,0.00279
2288.46871,0.00262
2287.50433,0.00270
2286.53995,0.00316
2285.57558,0.00287
2284.61120,0.00212
2283.64682,0.00219
2282.68244,0.00264
2281.71806,0.00265
2280.75369,0.00250
2279.78931,0.00295
2278.82493,0.00323
2277.86055,0.00262
2276.89618,0.00216
2275.93180,0.00221
2274.96742,0.00258
2274.00304,0.00290
2273.03866,0.00271
2272.07429,0.00254
2271.10991,0.00286
2270.14553,0.00286
2269.18115,0.00286
2268.21677,0.00285
2267.25240,0.00285
2266.28802,0.00285
2265.32364,0.00284
2264.35926,0.00284
2263.39488,0.00283
2262.43051,0.00283
2261.46613,0.00283
2260.50175,0.00282
2259.53737,0.00282
2258.57300,0.00282
2257.60862,0.00281
2256.64424,0.00281
2255.67986,0.00280
2254.71548,0.00280
2253.75111,0.00280
2252.78673,0.00279
2251.82235,0.00279
2250.85797,0.00278
2249.89359,0.00278
2248.92922,0.00278
2247.96484,0.00277
2247.00046,0.00277
2246.03608,0.00277
2245.07171,0.00276
2244.10733,0.00276
2243.14295,0.00275
2242.17857,0.00275
2241.21419,0.00275
2240.24982,0.00274
2239.28544,0.00274
2238.32106,0.00273
2237.35668,0.00273
2236.39230,0.00273
2235.42793,0.00272
2234.46355,0.00272
2233.49917,0.00272
2232.53479,0.00271
2231.57041,0.00271
2230.60604,0.00270
2229.64166,0.00270
2228.67728,0.00270
2227.71290,0.00269
2226.74853,0.00269
2225.78415,0.00268
2224.81977,0.00268
2223.85539,0.00268
2222.89101,0.00267
2221.92664,0.00267
2220.96226,0.00267
2219.99788,0.00266
2219.03350,0.00266
2218.06912,0.00265
2217.10475,0.00265
2216.14037,0.00265
2215.17599,0.00264
2214.21161,0.00264
2213.24724,0.00263
2212.28286,0.00263
2211.31848,0.00263
2210.35410,0.00262
2209.38972,0.00262
2208.42535,0.00262
2207.46097,0.00261
2206.49659,0.00261
2205.53221,0.00260
2204.56783,0.00260
2203.60346,0.00260
2202.63908,0.00259
2201.67470,0.00259
2200.71032,0.00258
2199.74594,0.00258
2198.78157,0.00258
2197.81719,0.00257
2196.85281,0.00257
2195.88843,0.00257
2194.92406,0.00256
2193.95968,0.00256
2192.99530,0.00255
2192.03092,0.00255
2191.06654,0.00255
2190.10217,0.00254
2189.13779,0.00254
2188.17341,0.00254
2187.20903,0.00253
2186.24465,0.00253
2185.28028,0.00252
2184.31590,0.00252
2183.35152,0.00252
2182.38714,0.00251
2181.42276,0.00251
2180.45839,0.00250
2179.49401,0.00250
2178.52963,0.00250
2177.56525,0.00249
2176.60088,0.00249
2175.63650,0.00249
2174.67212,0.00248
2173.70774,0.00248
2172.74336,0.00247
2171.77899,0.00247
2170.81461,0.00247
2169.85023,0.00246
2168.88585,0.00246
2167.92147,0.00245
2166.95710,0.00245
2165.99272,0.00245
2165.02834,0.00244
2164.06396,0.00244
2163.09959,0.00244
2162.13521,0.00243
2161.17083,0.00243
2160.20645,0.00242
2159.24207,0.00242
2158.27770,0.00242
2157.31332,0.00241
2156.34894,0.00241
2155.38456,0.00240
2154.42018,0.00240
2153.45581,0.00240
2152.49143,0.00239
2151.52705,0.00239
2150.56267,0.00239
2149.59829,0.00238
2148.63392,0.00238
2147.66954,0.00237
2146.70516,0.00237
2145.74078,0.00237
2144.77641,0.00236
2143.81203,0.00236
2142.84765,0.00235
2141.88327,0.00235
2140.91889,0.00235
2139.95452,0.00234
2138.99014,0.00234
2138.02576,0.00234
2137.06138,0.00233
2136.09700,0.00233
2135.13263,0.00232
2134.16825,0.00232
2133.20387,0.00232
2132.23949,0.00231
2131.27512,0.00231
2130.31074,0.00230
2129.34636,0.00230
2128.38198,0.00230
2127.41760,0.00229
2126.45323,0.00229
2125.48885,0.00229
2124.52447,0.00228
2123.56009,0.00228
2122.59571,0.00227
2121.63134,0.00227
2120.66696,0.00227
2119.70258,0.00226
2118.73820,0.00226
2117.77382,0.00226
2116.80945,0.00225
2115.84507,0.00225
2114.88069,0.00224
2113.91631,0.00224
2112.95194,0.00224
2111.98756,0.00223
2111.02318,0.00223
2110.05880,0.00222
2109.09442,0.00222
2108.13005,0.00222
2107.16567,0.00221
2106.20129,0.00221
2105.23691,0.00221
2104.27253,0.00220
2103.30816,0.00220
2102.34378,0.00219
2101.37940,0.00219
2100.41502,0.00219
2099.45065,0.00218
2098.48627,0.00218
2097.52189,0.00217
2096.55751,0.00217
2095.59313,0.00217
2094.62876,0.00216
2093.66438,0.00216
2092.70000,0.00216
2091.73562,0.00215
2090.77124,0.00215
2089.80687,0.00214
2088.84249,0.00214
2087.87811,0.00214
2086.91373,0.00213
2085.94935,0.00213
2084.98498,0.00212
2084.02060,0.00212
2083.05622,0.00212
2082.09184,0.00211
2081.12747,0.00211
2080.16309,0.00211
2079.19871,0.00210
2078.23433,0.00210
2077.26995,0.00209
2076.30558,0.00209
2075.34120,0.00209
2074.37682,0.00208
2073.41244,0.00208
2072.44806,0.00207
2071.48369,0.00207
2070.51931,0.00207
2069.55493,0.00206
2068.59055,0.00206
2067.62618,0.00206
2066.66180,0.00205
2065.69742,0.00205
2064.73304,0.00204
2063.76866,0.00204
2062.80429,0.00204
2061.83991,0.00203
2060.87553,0.00203
2059.91115,0.00202
2058.94677,0.00202
2057.98240,0.00202
2057.01802,0.00201
2056.05364,0.00201
2055.08926,0.00201
2054.12488,0.00200
2053.16051,0.00200
2052.19613,0.00199
2051.23175,0.00199
2050.26737,0.00199
2049.30300,0.00198
2048.33862,0.00198
2047.37424,0.00197
2046.40986,0.00197
2045.44548,0.00197
2044.48111,0.00196
2043.51673,0.00196
2042.55235,0.00196
2041.58797,0.00195
2040.62359,0.00195
2039.65922,0.00194
2038.69484,0.00194
2037.73046,0.00194
2036.76608,0.00193
2035.80171,0.00193
2034.83733,0.00193
2033.87295,0.00192
2032.90857,0.00192
2031.94419,0.00191
2030.97982,0.00191
2030.01544,0.00191
2029.05106,0.00190
2028.08668,0.00190
2027.12230,0.00189
2026.15793,0.00189
2025.19355,0.00189
2024.22917,0.00188
2023.26479,0.00188
2022.30041,0.00188
2021.33604,0.00187
2020.37166,0.00187
2019.40728,0.00186
2018.44290,0.00186
2017.47853,0.00186
2016.51415,0.00185
2015.54977,0.00185
2014.58539,0.00184
2013.62101,0.00184
2012.65664,0.00184
2011.69226,0.00183
2010.72788,0.00183
2009.76350,0.00183
2008.79912,0.00182
2007.83475,0.00182
2006.87037,0.00181
2005.90599,0.00181
2004.94161,0.00181
2003.97724,0.00180
2003.01286,0.00180
2002.04848,0.00179
2001.08410,0.00179
2000.11972,0.00179
1999.15535,0.00178
1998.19097,0.00178
1997.22659,0.00178
1996.26221,0.00177
1995.29783,0.00177
1994.33346,0.00176
1993.36908,0.00176
1992.40470,0.00176
1991.44032,0.00175
1990.47594,0.00175
1989.51157,0.00174
1988.54719,0.00174
1987.58281,0.00174
1986.61843,0.00173
1985.65406,0.00173
1984.68968,0.00173
1983.72530,0.00172
1982.76092,0.00172
1981.79654,0.00171
1980.83217,0.00171
1979.86779,0.00171
1978.90341,0.00170
1977.93903,0.00170
1976.97465,0.00169
1976.01028,0.00169
1975.04590,0.00169
1974.08152,0.00168
1973.11714,0.00168
1972.15276,0.00168
1971.18839,0.00167
1970.22401,0.00167
1969.25963,0.00166
1968.29525,0.00166
1967.33088,0.00166
1966.36650,0.00165
1965.40212,0.00165
1964.43774,0.00165
1963.47336,0.00164
1962.50899,0.00164
1961.54461,0.00163
1960.58023,0.00163
1959.61585,0.00163
1958.65147,0.00162
1957.68710,0.00162
1956.72272,0.00161
1955.75834,0.00161
1954.79396,0.00161
1953.82959,0.00160
1952.86521,0.00160
1951.90083,0.00160
1950.93645,0.00159
1949.97207,0.00159
1949.00770,0.00158
1948.04332,0.00158
1947.07894,0.00158
1946.11456,0.00157
1945.15018,0.00157
1944.18581,0.00156
1943.22143,0.00156
1942.25705,0.00156
1941.29267,0.00155
1940.32829,0.00155
1939.36392,0.00155
1938.39954,0.00154
1937.43516,0.00154
1936.47078,0.00153
1935.50641,0.00153
1934.54203,0.00153
1933.57765,0.00152
1932.61327,0.00152
1931.64889,0.00151
1930.68452,0.00151
1929.72014,0.00151
1928.75576,0.00150
1927.79138,0.00150
1926.82700,0.00150
1925.86263,0.00224
1924.89825,0.00229
1923.93387,0.00189
1922.96949,0.00158
1922.00512,0.00174
1921.04074,0.00236
1920.07636,0.00244
1919.11198,0.00212
1918.14760,0.00232
1917.18323,0.00237
1916.21885,0.00215
1915.25447,0.00225
1914.29009,0.00221
1913.32571,0.00208
1912.36134,0.00235
1911.39696,0.00240
1910.43258,0.00218
1909.46820,0.00227
1908.50382,0.00269
1907.53945,0.00271
1906.57507,0.00200
1905.61069,0.00179
1904.64631,0.00237
1903.68194,0.00255
1902.71756,0.00215
1901.75318,0.00206
1900.78880,0.00236
1899.82442,0.00216
1898.86005,0.00157
1897.89567,0.00158
1896.93129,0.00215
1895.96691,0.00211
1895.00253,0.00176
1894.03816,0.00173
1893.07378,0.00138
1892.10940,0.00110
1891.14502,0.00122
1890.18065,0.00180
1889.21627,0.00231
1888.25189,0.00210
1887.28751,0.00213
1886.32313,0.00206
1885.35876,0.00173
1884.39438,0.00180
1883.43000,0.00176
1882.46562,0.00172
1881.50124,0.00182
1880.53687,0.00187
1879.57249,0.00190
1878.60811,0.00192
1877.64373,0.00200
1876.67935,0.00207
1875.71498,0.00212
1874.75060,0.00212
1873.78622,0.00207
1872.82184,0.00184
1871.85747,0.00180
1870.89309,0.00192
1869.92871,0.00192
1868.96433,0.00206
1867.99995,0.00201
1867.03558,0.00195
1866.07120,0.00202
1865.10682,0.00178
1864.14244,0.00165
1863.17806,0.00166
1862.21369,0.00170
1861.24931,0.00177
1860.28493,0.00183
1859.32055,0.00204
1858.35618,0.00213
1857.39180,0.00209
1856.42742,0.00222
1855.46304,0.00239
1854.49866,0.00226
1853.53429,0.00195
1852.56991,0.00181
1851.60553,0.00189
1850.64115,0.00202
1849.67677,0.00196
1848.71240,0.00174
1847.74802,0.00171
1846.78364,0.00194
1845.81926,0.00204
1844.85488,0.00199
1843.89051,0.00205
1842.92613,0.00198
1841.96175,0.00179
1840.99737,0.00185
1840.03300,0.00209
1839.06862,0.00227
1838.10424,0.00218
1837.13986,0.00199
1836.17548,0.00204
1835.21111,0.00224
1834.24673,0.00226
1833.28235,0.00215
1832.31797,0.00211
1831.35359,0.00218
1830.38922,0.00211
1829.42484,0.00189
1828.46046,0.00204
1827.49608,0.00241
1826.53171,0.00239
1825.56733,0.00213
1824.60295,0.00201
1823.63857,0.00205
1822.67419,0.00209
1821.70982,0.00210
1820.74544,0.00210
1819.78106,0.00219
1818.81668,0.00236
1817.85230,0.00242
1816.88793,0.00241
1815.92355,0.00230
1814.95917,0.00211
1813.99479,0.00212
1813.03041,0.00219
1812.06604,0.00222
1811.10166,0.00228
1810.13728,0.00223
1809.17290,0.00231
1808.20853,0.00243
1807.24415,0.00239
1806.27977,0.00245
1805.31539,0.00246
1804.35101,0.00236
1803.38664,0.00236
1802.42226,0.00243
1801.45788,0.00244
1800.49350,0.00241
1799.52912,0.00247
1798.56475,0.00253
1797.60037,0.00242
1796.63599,0.00232
1795.67161,0.00240
1794.70724,0.00242
1793.74286,0.00233
1792.77848,0.00242
1791.81410,0.00264
1790.84972,0.00267
1789.88535,0.00247
1788.92097,0.00236
1787.95659,0.00248
1786.99221,0.00259
1786.02783,0.00261
1785.06346,0.00260
1784.09908,0.00262
1783.13470,0.00258
1782.17032,0.00255
1781.20594,0.00269
1780.24157,0.00286
1779.27719,0.00289
1778.31281,0.00274
1777.34843,0.00259
1776.38406,0.00264
1775.41968,0.00272
1774.45530,0.00274
1773.49092,0.00286
1772.52654,0.00300
1771.56217,0.00292
1770.59779,0.00281
1769.63341,0.00285
1768.66903,0.00288
1767.70465,0.00287
1766.74028,0.00291
1765.77590,0.00301
1764.81152,0.00304
1763.84714,0.00304
1762.88276,0.00313
1761.91839,0.00313
1760.95401,0.00305
1759.98963,0.00314
1759.02525,0.00336
1758.06088,0.00349
1757.09650,0.00348
1756.13212,0.00338
1755.16774,0.00336
1754.20336,0.00343
1753.23899,0.00340
1752.27461,0.00346
1751.31023,0.00360
1750.34585,0.00358
1749.38147,0.00359
1748.41710,0.00367
1747.45272,0.00366
1746.48834,0.00368
1745.52396,0.00382
1744.55959,0.00383
1743.59521,0.00379
1742.63083,0.00385
1741.66645,0.00392
1740.70207,0.00401
1739.73770,0.00401
1738.77332,0.00392
1737.80894,0.00392
1736.84456,0.00398
1735.88018,0.00403
1734.91581,0.00410
1733.95143,0.00426
1732.98705,0.00424
1732.02267,0.00412
1731.05829,0.00408
1730.09392,0.00401
1729.12954,0.00398
1728.16516,0.00401
1727.20078,0.00408
1726.23641,0.00412
1725.27203,0.00415
1724.30765,0.00420
1723.34327,0.00418
1722.37889,0.00416
1721.41452,0.00413
1720.45014,0.00412
1719.48576,0.00418
1718.52138,0.00434
1717.55700,0.00437
1716.59263,0.00411
1715.62825,0.00403
1714.66387,0.00408
1713.69949,0.00401
1712.73512,0.00400
1711.77074,0.00405
1710.80636,0.00407
1709.84198,0.00406
1708.87760,0.00407
1707.91323,0.00406
1706.94885,0.00407
1705.98447,0.00411
1705.02009,0.00398
1704.05571,0.00389
1703.09134,0.00388
1702.12696,0.00397
1701.16258,0.00412
1700.19820,0.00409
1699.23382,0.00398
1698.26945,0.00391
1697.30507,0.00398
1696.34069,0.00413
1695.37631,0.00413
1694.41194,0.00399
1693.44756,0.00386
1692.48318,0.00382
1691.51880,0.00382
1690.55442,0.00390
1689.59005,0.00399
1688.62567,0.00396
1687.66129,0.00382
1686.69691,0.00374
1685.73253,0.00395
1684.76816,0.00420
1683.80378,0.00418
1682.83940,0.00406
1681.87502,0.00399
1680.91065,0.00395
1679.94627,0.00391
1678.98189,0.00392
1678.01751,0.00393
1677.05313,0.00407
1676.08876,0.00426
1675.12438,0.00421
1674.16000,0.00411
1673.19562,0.00416
1672.23124,0.00417
1671.26687,0.00413
1670.30249,0.00424
1669.33811,0.00433
1668.37373,0.00423
1667.40935,0.00418
1666.44498,0.00420
1665.48060,0.00430
1664.51622,0.00437
1663.55184,0.00441
1662.58747,0.00455
1661.62309,0.00461
1660.65871,0.00459
1659.69433,0.00455
1658.72995,0.00458
1657.76558,0.00466
1656.80120,0.00472
1655.83682,0.00482
1654.87244,0.00486
1653.90806,0.00501
1652.94369,0.00521
1651.97931,0.00511
1651.01493,0.00500
1650.05055,0.00496
1649.08618,0.00496
1648.12180,0.00505
1647.15742,0.00518
1646.19304,0.00527
1645.22866,0.00522
1644.26429,0.00519
1643.29991,0.00523
1642.33553,0.00526
1641.37115,0.00527
1640.40677,0.00527
1639.44240,0.00534
1638.47802,0.00542
1637.51364,0.00547
1636.54926,0.00557
1635.58488,0.00564
1634.62051,0.00554
1633.65613,0.00548
1632.69175,0.00558
1631.72737,0.00566
1630.76300,0.00565
1629.79862,0.00565
1628.83424,0.00574
1627.86986,0.00580
1626.90548,0.00577
1625.94111,0.00577
1624.97673,0.00587
1624.01235,0.00603
1623.04797,0.00608
1622.08359,0.00600
1621.11922,0.00595
1620.15484,0.00592
1619.19046,0.00591
1618.22608,0.00597
1617.26171,0.00607
1616.29733,0.00605
1615.33295,0.00597
1614.36857,0.00591
1613.40419,0.00587
1612.43982,0.00580
1611.47544,0.00573
1610.51106,0.00578
1609.54668,0.00582
1608.58230,0.00581
1607.61793,0.00579
1606.65355,0.00576
1605.68917,0.00581
1604.72479,0.00583
1603.76041,0.00580
1602.79604,0.00580
1601.83166,0.00582
1600.86728,0.00581
1599.90290,0.00577
1598.93853,0.00578
1597.97415,0.00585
1597.00977,0.00595
1596.04539,0.00590
1595.08101,0.00584
1594.11664,0.00585
1593.15226,0.00584
1592.18788,0.00586
1591.22350,0.00584
1590.25912,0.00580
1589.29475,0.00585
1588.33037,0.00590
1587.36599,0.00589
1586.40161,0.00583
1585.43724,0.00578
1584.47286,0.00575
1583.50848,0.00576
1582.54410,0.00579
1581.57972,0.00581
1580.61535,0.00581
1579.65097,0.00574
1578.68659,0.00571
1577.72221,0.00573
1576.75783,0.00577
1575.79346,0.00573
1574.82908,0.00560
1573.86470,0.00547
1572.90032,0.00537
1571.93594,0.00531
1570.97157,0.00531
1570.00719,0.00534
1569.04281,0.00528
1568.07843,0.00517
1567.11406,0.00512
1566.14968,0.00513
1565.18530,0.00507
1564.22092,0.00499
1563.25654,0.00491
1562.29217,0.00481
1561.32779,0.00486
1560.36341,0.00499
1559.39903,0.00497
1558.43465,0.00484
1557.47028,0.00469
1556.50590,0.00459
1555.54152,0.00462
1554.57714,0.00462
1553.61276,0.00452
1552.64839,0.00446
1551.68401,0.00444
1550.71963,0.00436
1549.75525,0.00431
1548.79088,0.00432
1547.82650,0.00430
1546.86212,0.00425
1545.89774,0.00425
1544.93336,0.00421
1543.96899,0.00407
1543.00461,0.00406
1542.04023,0.00415
1541.07585,0.00417
1540.11147,0.00421
1539.14710,0.00412
1538.18272,0.00394
1537.21834,0.00380
1536.25396,0.00376
1535.28959,0.00381
1534.32521,0.00387
1533.36083,0.00388
1532.39645,0.00379
1531.43207,0.00371
1530.46770,0.00372
1529.50332,0.00379
1528.53894,0.00387
1527.57456,0.00376
1526.61018,0.00363
1525.64581,0.00367
1524.68143,0.00369
1523.71705,0.00366
1522.75267,0.00368
1521.78829,0.00375
1520.82392,0.00374
1519.85954,0.00361
1518.89516,0.00354
1517.93078,0.00361
1516.96641,0.00367
1516.00203,0.00362
1515.03765,0.00352
1514.07327,0.00348
1513.10889,0.00355
1512.14452,0.00356
1511.18014,0.00348
1510.21576,0.00348
1509.25138,0.00351
1508.28700,0.00359
1507.32263,0.00368
1506.35825,0.00365
1505.39387,0.00359
1504.42949,0.00353
1503.46512,0.00348
1502.50074,0.00342
1501.53636,0.00340
1500.57198,0.00348
1499.60760,0.00354
1498.64323,0.00357
1497.67885,0.00367
1496.71447,0.00378
1495.75009,0.00375
1494.78571,0.00364
1493.82134,0.00357
1492.85696,0.00355
1491.89258,0.00363
1490.92820,0.00377
1489.96382,0.00379
1488.99945,0.00374
1488.03507,0.00376
1487.07069,0.00380
1486.10631,0.00381
1485.14194,0.00372
1484.17756,0.00368
1483.21318,0.00375
1482.24880,0.00379
1481.28442,0.00386
1480.32005,0.00391
1479.35567,0.00388
1478.39129,0.00388
1477.42691,0.00397
1476.46253,0.00402
1475.49816,0.00394
1474.53378,0.00399
1473.56940,0.00414
1472.60502,0.00422
1471.64065,0.00424
1470.67627,0.00416
1469.71189,0.00413
1468.74751,0.00418
1467.78313,0.00419
1466.81876,0.00418
1465.85438,0.00422
1464.89000,0.00435
1463.92562,0.00436
1462.96124,0.00438
1461.99687,0.00447
1461.03249,0.00446
1460.06811,0.00450
1459.10373,0.00461
1458.13935,0.00475
1457.17498,0.00484
1456.21060,0.00479
1455.24622,0.00472
1454.28184,0.00471
1453.31747,0.00474
1452.35309,0.00478
1451.38871,0.00479
1450.42433,0.00482
1449.45995,0.00491
1448.49558,0.00501
1447.53120,0.00502
1446.56682,0.00498
1445.60244,0.00498
1444.63806,0.00497
1443.67369,0.00503
1442.70931,0.00512
1441.74493,0.00507
1440.78055,0.00506
1439.81618,0.00517
1438.85180,0.00519
1437.88742,0.00530
1436.92304,0.00547
1435.95866,0.00543
1434.99429,0.00537
1434.02991,0.00540
1433.06553,0.00538
1432.10115,0.00536
1431.13677,0.00542
1430.17240,0.00549
1429.20802,0.00551
1428.24364,0.00550
1427.27926,0.00550
1426.31488,0.00550
1425.35051,0.00558
1424.38613,0.00571
1423.42175,0.00579
1422.45737,0.00585
1421.49300,0.00584
1420.52862,0.00581
1419.56424,0.00587
1418.59986,0.00589
1417.63548,0.00589
1416.67111,0.00587
1415.70673,0.00586
1414.74235,0.00593
1413.77797,0.00599
1412.81359,0.00601
1411.84922,0.00601
1410.88484,0.00604
1409.92046,0.00610
1408.95608,0.00610
1407.99171,0.00604
1407.02733,0.00606
1406.06295,0.00617
1405.09857,0.00621
1404.13419,0.00615
1403.16982,0.00614
1402.20544,0.00625
1401.24106,0.00627
1400.27668,0.00621
1399.31230,0.00622
1398.34793,0.00622
1397.38355,0.00620
1396.41917,0.00627
1395.45479,0.00635
1394.49041,0.00637
1393.52604,0.00631
1392.56166,0.00622
1391.59728,0.00620
1390.63290,0.00626
1389.66853,0.00629
1388.70415,0.00633
1387.73977,0.00641
1386.77539,0.00642
1385.81101,0.00633
1384.84664,0.00626
1383.88226,0.00630
1382.91788,0.00637
1381.95350,0.00637
1380.98912,0.00631
1380.02475,0.00636
1379.06037,0.00643
1378.09599,0.00637
1377.13161,0.00630
1376.16724,0.00636
1375.20286,0.00637
1374.23848,0.00629
1373.27410,0.00625
1372.30972,0.00630
1371.34535,0.00637
1370.38097,0.00636
1369.41659,0.00628
1368.45221,0.00623
1367.48783,0.00621
1366.52346,0.00624
1365.55908,0.00629
1364.59470,0.00628
1363.63032,0.00631
1362.66594,0.00630
1361.70157,0.00628
1360.73719,0.00630
1359.77281,0.00625
1358.80843,0.00618
1357.84406,0.00608
1356.87968,0.00604
1355.91530,0.00611
1354.95092,0.00615
1353.98654,0.00612
1353.02217,0.00611
1352.05779,0.00617
1351.09341,0.00619
1350.12903,0.00611
1349.16465,0.00605
1348.20028,0.00605
1347.23590,0.00604
1346.27152,0.00601
1345.30714,0.00599
1344.34276,0.00598
1343.37839,0.00600
1342.41401,0.00599
1341.44963,0.00595
1340.48525,0.00598
1339.52088,0.00603
1338.55650,0.00604
1337.59212,0.00603
1336.62774,0.00600
1335.66336,0.00599
1334.69899,0.00599
1333.73461,0.00595
1332.77023,0.00585
1331.80585,0.00580
1330.84147,0.00578
1329.87710,0.00577
1328.91272,0.00579
1327.94834,0.00580
1326.98396,0.00582
1326.01959,0.00581
1325.05521,0.00578
1324.09083,0.00579
1323.12645,0.00583
1322.16207,0.00582
1321.19770,0.00580
1320.23332,0.00580
1319.26894,0.00581
1318.30456,0.00576
1317.34018,0.00571
1316.37581,0.00571
1315.41143,0.00570
1314.44705,0.00571
1313.48267,0.00569
1312.51829,0.00563
1311.55392,0.00566
1310.58954,0.00571
1309.62516,0.00572
1308.66078,0.00572
1307.69641,0.00578
1306.73203,0.00577
1305.76765,0.00565
1304.80327,0.00560
1303.83889,0.00566
1302.87452,0.00573
1301.91014,0.00575
1300.94576,0.00574
1299.98138,0.00577
1299.01700,0.00580
1298.05263,0.00572
1297.08825,0.00569
1296.12387,0.00572
1295.15949,0.00572
1294.19512,0.00576
1293.23074,0.00573
1292.26636,0.00569
1291.30198,0.00572
1290.33760,0.00568
1289.37323,0.00569
1288.40885,0.00574
1287.44447,0.00575
1286.48009,0.00574
1285.51571,0.00575
1284.55134,0.00580
1283.58696,0.00582
1282.62258,0.00581
1281.65820,0.00580
1280.69382,0.00578
1279.72945,0.00581
1278.76507,0.00581
1277.80069,0.00583
1276.83631,0.00585
1275.87194,0.00587
1274.90756,0.00594
1273.94318,0.00593
1272.97880,0.00591
1272.01442,0.00592
1271.05005,0.00588
1270.08567,0.00583
1269.12129,0.00593
1268.15691,0.00605
1267.19253,0.00606
1266.22816,0.00600
1265.26378,0.00598
1264.29940,0.00600
1263.33502,0.00596
1262.37065,0.00598
1261.40627,0.00601
1260.44189,0.00604
1259.47751,0.00608
1258.51313,0.00608
1257.54876,0.00606
1256.58438,0.00602
1255.62000,0.00604
1254.65562,0.00607
1253.69124,0.00606
1252.72687,0.00608
1251.76249,0.00610
1250.79811,0.00614
1249.83373,0.00618
1248.86935,0.00620
1247.90498,0.00622
1246.94060,0.00618
1245.97622,0.00614
1245.01184,0.00615
1244.04747,0.00615
1243.08309,0.00619
1242.11871,0.00627
1241.15433,0.00622
1240.18995,0.00617
1239.22558,0.00624
1238.26120,0.00629
1237.29682,0.00627
1236.33244,0.00622
1235.36806,0.00621
1234.40369,0.00621
1233.43931,0.00619
1232.47493,0.00620
1231.51055,0.00617
1230.54618,0.00615
1229.58180,0.00623
1228.61742,0.00628
1227.65304,0.00626
1226.68866,0.00620
1225.72429,0.00616
1224.75991,0.00615
1223.79553,0.00610
1222.83115,0.00607
1221.86677,0.00603
1220.90240,0.00601
1219.93802,0.00608
1218.97364,0.00612
1218.00926,0.00609
1217.04488,0.00611
1216.08051,0.00607
1215.11613,0.00602
1214.15175,0.00605
1213.18737,0.00603
1212.22300,0.00597
1211.25862,0.00594
1210.29424,0.00593
1209.32986,0.00596
1208.36548,0.00595
1207.40111,0.00588
1206.43673,0.00594
1205.47235,0.00598
1204.50797,0.00588
1203.54359,0.00581
1202.57922,0.00579
1201.61484,0.00577
1200.65046,0.00581
1199.68608,0.00590
1198.72171,0.00587
1197.75733,0.00580
1196.79295,0.00580
1195.82857,0.00575
1194.86419,0.00572
1193.89982,0.00576
1192.93544,0.00581
1191.97106,0.00584
1191.00668,0.00585
1190.04230,0.00581
1189.07793,0.00572
1188.11355,0.00568
1187.14917,0.00570
1186.18479,0.00570
1185.22041,0.00570
1184.25604,0.00575
1183.29166,0.00578
1182.32728,0.00572
1181.36290,0.00572
1180.39853,0.00578
1179.43415,0.00580
1178.46977,0.00569
1177.50539,0.00557
1176.54101,0.00567
1175.57664,0.00580
1174.61226,0.00575
1173.64788,0.00563
1172.68350,0.00560
1171.71912,0.00558
1170.75475,0.00557
1169.79037,0.00562
1168.82599,0.00565
1167.86161,0.00560
1166.89724,0.00554
1165.93286,0.00551
1164.96848,0.00551
1164.00410,0.00552
1163.03972,0.00556
1162.07535,0.00565
1161.11097,0.00557
1160.14659,0.00541
1159.18221,0.00542
1158.21783,0.00548
1157.25346,0.00555
1156.28908,0.00560
1155.32470,0.00558
1154.36032,0.00559
1153.39594,0.00561
1152.43157,0.00565
1151.46719,0.00559
1150.50281,0.00551
1149.53843,0.00550
1148.57406,0.00550
1147.60968,0.00556
1146.64530,0.00562
1145.68092,0.00561
1144.71654,0.00558
1143.75217,0.00564
1142.78779,0.00569
1141.82341,0.00558
1140.85903,0.00550
1139.89465,0.00555
1138.93028,0.00561
1137.96590,0.00560
1137.00152,0.00560
1136.03714,0.00566
1135.07276,0.00572
1134.10839,0.00566
1133.14401,0.00559
1132.17963,0.00565
1131.21525,0.00562
1130.25088,0.00563
1129.28650,0.00573
1128.32212,0.00577
1127.35774,0.00573
1126.39336,0.00568
1125.42899,0.00574
1124.46461,0.00576
1123.50023,0.00570
1122.53585,0.00558
1121.57147,0.00549
1120.60710,0.00564
1119.64272,0.00569
1118.67834,0.00568
1117.71396,0.00572
1116.74959,0.00572
1115.78521,0.00577
1114.82083,0.00576
1113.85645,0.00577
1112.89207,0.00581
1111.92770,0.00584
1110.96332,0.00586
1109.99894,0.00587
1109.03456,0.00586
1108.07018,0.00573
1107.10581,0.00569
1106.14143,0.00586
1105.17705,0.00599
1104.21267,0.00589
1103.24829,0.00581
1102.28392,0.00590
1101.31954,0.00591
1100.35516,0.00597
1099.39078,0.00599
1098.42641,0.00590
1097.46203,0.00594
1096.49765,0.00600
1095.53327,0.00602
1094.56889,0.00602
1093.60452,0.00600
1092.64014,0.00599
1091.67576,0.00601
1090.71138,0.00612
1089.74700,0.00616
1088.78263,0.00608
1087.81825,0.00602
1086.85387,0.00605
1085.88949,0.00613
1084.92512,0.00614
1083.96074,0.00606
1082.99636,0.00603
1082.03198,0.00609
1081.06760,0.00616
1080.10323,0.00621
1079.13885,0.00619
1078.17447,0.00620
1077.21009,0.00621
1076.24571,0.00612
1075.28134,0.00611
1074.31696,0.00616
1073.35258,0.00607
1072.38820,0.00596
1071.42382,0.00596
1070.45945,0.00601
1069.49507,0.00603
1068.53069,0.00601
1067.56631,0.00600
1066.60194,0.00602
1065.63756,0.00593
1064.67318,0.00591
1063.70880,0.00598
1062.74442,0.00593
1061.78005,0.00596
1060.81567,0.00607
1059.85129,0.00609
1058.88691,0.00602
1057.92253,0.00595
1056.95816,0.00592
1055.99378,0.00585
1055.02940,0.00574
1054.06502,0.00563
1053.10065,0.00557
1052.13627,0.00554
1051.17189,0.00556
1050.20751,0.00558
1049.24313,0.00554
1048.27876,0.00557
1047.31438,0.00554
1046.35000,0.00542
1045.38562,0.00540
1044.42124,0.00539
1043.45687,0.00537
1042.49249,0.00540
1041.52811,0.00537
1040.56373,0.00533
1039.59935,0.00535
1038.63498,0.00533
1037.67060,0.00528
1036.70622,0.00526
1035.74184,0.00519
1034.77747,0.00514
1033.81309,0.00518
1032.84871,0.00530
1031.88433,0.00528
1030.91995,0.00518
1029.95558,0.00505
1028.99120,0.00499
1028.02682,0.00509
1027.06244,0.00506
1026.09806,0.00496
1025.13369,0.00496
1024.16931,0.00498
1023.20493,0.00499
1022.24055,0.00498
1021.27618,0.00504
1020.31180,0.00503
1019.34742,0.00492
1018.38304,0.00497
1017.41866,0.00501
1016.45429,0.00501
1015.48991,0.00491
1014.52553,0.00482
1013.56115,0.00482
1012.59677,0.00484
1011.63240,0.00493
1010.66802,0.00488
1009.70364,0.00477
1008.73926,0.00479
1007.77488,0.00478
1006.81051,0.00470
1005.84613,0.00464
1004.88175,0.00466
1003.91737,0.00469
1002.95300,0.00481
1001.98862,0.00491
1001.02424,0.00483
1000.05986,0.00482
999.09548,0.00482
998.13111,0.00465
997.16673,0.00454
996.20235,0.00456
995.23797,0.00458
994.27359,0.00463
993.30922,0.00471
992.34484,0.00476
991.38046,0.00478
990.41608,0.00468
989.45171,0.00452
988.48733,0.00452
987.52295,0.00457
986.55857,0.00464
985.59419,0.00470
984.62982,0.00467
983.66544,0.00470
982.70106,0.00473
981.73668,0.00474
980.77230,0.00482
979.80793,0.00477
978.84355,0.00463
977.87917,0.00469
976.91479,0.00469
975.95041,0.00459
974.98604,0.00452
974.02166,0.00442
973.05728,0.00434
972.09290,0.00435
971.12853,0.00443
970.16415,0.00442
969.19977,0.00435
968.23539,0.00418
967.27101,0.00404
966.30664,0.00421
965.34226,0.00435
964.37788,0.00444
963.41350,0.00452
962.44912,0.00437
961.48475,0.00423
960.52037,0.00422
959.55599,0.00437
958.59161,0.00453
957.62724,0.00446
956.66286,0.00435
955.69848,0.00427
954.73410,0.00425
953.76972,0.00434
952.80535,0.00429
951.84097,0.00423
950.87659,0.00437
949.91221,0.00434
948.94783,0.00423
947.98346,0.00424
947.01908,0.00417
946.05470,0.00418
945.09032,0.00420
944.12594,0.00415
943.16157,0.00408
942.19719,0.00403
941.23281,0.00409
940.26843,0.00418
939.30406,0.00408
938.33968,0.00390
937.37530,0.00395
936.41092,0.00400
935.44654,0.00398
934.48217,0.00400
933.51779,0.00407
932.55341,0.00415
931.58903,0.00400
930.62465,0.00394
929.66028,0.00408
928.69590,0.00411
927.73152,0.00408
926.76714,0.00399
925.80276,0.00392
924.83839,0.00394
923.87401,0.00398
922.90963,0.00397
921.94525,0.00401
920.98088,0.00394
920.01650,0.00381
919.05212,0.00393
918.08774,0.00393
917.12336,0.00378
916.15899,0.00369
915.19461,0.00376
914.23023,0.00396
913.26585,0.00394
912.30147,0.00400
911.33710,0.00415
910.37272,0.00414
909.40834,0.00395
908.44396,0.00391
907.47959,0.00401
906.51521,0.00389
905.55083,0.00386
904.58645,0.00390
903.62207,0.00388
902.65770,0.00384
901.69332,0.00381
900.72894,0.00387
899.76456,0.00374
898.80018,0.00373
897.83581,0.00379
896.87143,0.00369
895.90705,0.00374
894.94267,0.00392
893.97829,0.00392
893.01392,0.00376
892.04954,0.00374
891.08516,0.00372
890.12078,0.00370
889.15641,0.00367
888.19203,0.00354
887.22765,0.00355
886.26327,0.00351
885.29889,0.00357
884.33452,0.00376
883.37014,0.00382
882.40576,0.00378
881.44138,0.00373
880.47700,0.00385
879.51263,0.00376
878.54825,0.00352
877.58387,0.00372
876.61949,0.00401
875.65512,0.00395
874.69074,0.00386
873.72636,0.00399
872.76198,0.00413
871.79760,0.00395
870.83323,0.00380
869.86885,0.00398
868.90447,0.00395
867.94009,0.00388
866.97571,0.00402
866.01134,0.00399
865.04696,0.00389
864.08258,0.00381
863.11820,0.00384
862.15382,0.00395
861.18945,0.00397
860.22507,0.00395
859.26069,0.00390
858.29631,0.00400
857.33194,0.00410
856.36756,0.00410
855.40318,0.00411
854.43880,0.00408
853.47442,0.00399
852.51005,0.00396
851.54567,0.00395
850.58129,0.00381
849.61691,0.00377
848.65253,0.00390
847.68816,0.00403
846.72378,0.00402
845.75940,0.00391
844.79502,0.00404
843.83065,0.00408
842.86627,0.00392
841.90189,0.00392
840.93751,0.00396
839.97313,0.00398
839.00876,0.00400
838.04438,0.00403
837.08000,0.00409
836.11562,0.00411
835.15124,0.00417
834.18687,0.00424
833.22249,0.00416
832.25811,0.00401
831.29373,0.00397
830.32935,0.00388
829.36498,0.00386
828.40060,0.00403
827.43622,0.00411
826.47184,0.00418
825.50747,0.00422
824.54309,0.00404
823.57871,0.00386
822.61433,0.00372
821.64995,0.00374
820.68558,0.00404
819.72120,0.00420
818.75682,0.00417
817.79244,0.00414
816.82806,0.00403
815.86369,0.00395
814.89931,0.00390
813.93493,0.00399
812.97055,0.00415
812.00618,0.00405
811.04180,0.00390
810.07742,0.00376
809.11304,0.00364
808.14866,0.00381
807.18429,0.00396
806.21991,0.00393
805.25553,0.00404
804.29115,0.00420
803.32677,0.00410
802.36240,0.00398
801.39802,0.00406
800.43364,0.00404
799.46926,0.00402
798.50488,0.00405
797.54051,0.00405
796.57613,0.00404
795.61175,0.00377
794.64737,0.00362
793.68300,0.00371
792.71862,0.00380
791.75424,0.00403
790.78986,0.00412
789.82548,0.00405
788.86111,0.00403
787.89673,0.00417
786.93235,0.00413
785.96797,0.00379
785.00359,0.00383
784.03922,0.00392
783.07484,0.00407
782.11046,0.00433
781.14608,0.00414
780.18171,0.00389
779.21733,0.00372
778.25295,0.00373
777.28857,0.00405
776.32419,0.00416
775.35982,0.00416
774.39544,0.00426
773.43106,0.00418
772.46668,0.00398
771.50230,0.00391
770.53793,0.00396
769.57355,0.00399
768.60917,0.00401
767.64479,0.00400
766.68041,0.00372
765.71604,0.00352
764.75166,0.00366
763.78728,0.00374
762.82290,0.00399
761.85853,0.00407
760.89415,0.00387
759.92977,0.00412
758.96539,0.00431
758.00101,0.00412
757.03664,0.00402
756.07226,0.00423
755.10788,0.00435
754.14350,0.00389
753.17912,0.00371
752.21475,0.00385
751.25037,0.00376
750.28599,0.00384
749.32161,0.00395
748.35724,0.00420
747.39286,0.00449
746.42848,0.00422
745.46410,0.00403
744.49972,0.00415
743.53535,0.00416
742.57097,0.00427
741.60659,0.00436
740.64221,0.00423
739.67783,0.00406
738.71346,0.00383
737.74908,0.00360
736.78470,0.00350
735.82032,0.00348
734.85594,0.00358
733.89157,0.00388
732.92719,0.00408
731.96281,0.00413
730.99843,0.00431
730.03406,0.00457
729.06968,0.00467
728.10530,0.00451
727.14092,0.00420
726.17654,0.00406
725.21217,0.00419
724.24779,0.00430
723.28341,0.00424
722.31903,0.00410
721.35465,0.00419
720.39028,0.00438
719.42590,0.00423
718.46152,0.00401
717.49714,0.00385
716.53276,0.00389
715.56839,0.00408
714.60401,0.00417
713.63963,0.00433
712.67525,0.00431
711.71088,0.00434
710.74650,0.00445
709.78212,0.00439
708.81774,0.00439
707.85336,0.00430
706.88899,0.00426
705.92461,0.00418
704.96023,0.00410
703.99585,0.00429
703.03147,0.00433
702.06710,0.00434
701.10272,0.00441
700.13834,0.00443
699.17396,0.00445
698.20959,0.00439
697.24521,0.00434
696.28083,0.00437
695.31645,0.00443
694.35207,0.00447
693.38770,0.00441
692.42332,0.00443
691.45894,0.00450
690.49456,0.00447
689.53018,0.00449
688.56581,0.00455
687.60143,0.00453
686.63705,0.00439
685.67267,0.00431
684.70829,0.00451
683.74392,0.00469
682.77954,0.00472
681.81516,0.00467
680.85078,0.00445
679.88641,0.00449
678.92203,0.00474
677.95765,0.00483
676.99327,0.00464
676.02889,0.00459
675.06452,0.00481
674.10014,0.00472
673.13576,0.00452
672.17138,0.00448
671.20700,0.00462
670.24263,0.00483
669.27825,0.00554
668.31387,0.00703
667.34949,0.00655
666.38512,0.00498
665.42074,0.00458
664.45636,0.00454
663.49198,0.00460
662.52760,0.00458
661.56323,0.00461
660.59885,0.00476
659.63447,0.00464
658.67009,0.00451
657.70571,0.00456
656.74134,0.00479
655.77696,0.00487
654.81258,0.00472
653.84820,0.00452
652.88382,0.00442
651.91945,0.00457
650.95507,0.00473
649.99069,0.00487
649.02631,0.00489
648.06194,0.00473
647.09756,0.00462
646.13318,0.00455
645.16880,0.00456
644.20442,0.00458
643.24005,0.00443
642.27567,0.00441
641.31129,0.00480
640.34691,0.00493
639.38253,0.00461
638.41816,0.00438
637.45378,0.00452
636.48940,0.00479
635.52502,0.00480
634.56065,0.00496
633.59627,0.00489
632.63189,0.00454
631.66751,0.00453
630.70313,0.00430
629.73876,0.00423
628.77438,0.00415
627.81000,0.00366
626.84562,0.00415
625.88124,0.00503
624.91687,0.00556
623.95249,0.00591
622.98811,0.00681
622.02373,0.00505
621.05935,0.00084
620.09498,0.00279
619.13060,0.00363
618.16622,0.00580
617.20184,0.00846
616.23747,0.00373
615.27309,0.00340
614.30871,0.00695
613.34433,0.00624
612.37995,0.00271
611.41558,0.00126
610.45120,0.00558
609.48682,0.00729
608.52244,0.00353
607.55806,0.00178
606.59369,0.00345
605.62931,0.00582
604.66493,0.00771
603.70055,0.00644
602.73618,0.00391
601.77180,0.00313
600.80742,0.00363
599.84304,0.00455
598.87866,0.00446
597.91429,0.00472
596.94991,0.00503
595.98553,0.00409
595.02115,0.00356
594.05677,0.00331
593.09240,0.00337
592.12802,0.00442
591.16364,0.00538
590.19926,0.00557
589.23488,0.00544
588.27051,0.00527
587.30613,0.00483
586.34175,0.00444
585.37737,0.00438
584.41300,0.00453
583.44862,0.00453
582.48424,0.00424
581.51986,0.00443
580.55548,0.00474
579.59111,0.00473
578.62673,0.00506
577.66235,0.00552
576.69797,0.00542
575.73359,0.00467
574.76922,0.00432
573.80484,0.00443
572.84046,0.00412
571.87608,0.00435
570.91171,0.00496
569.94733,0.00472
568.98295,0.00450
568.01857,0.00481
567.05419,0.00516
566.08982,0.00521
565.12544,0.00508
564.16106,0.00533
563.19668,0.00537
562.23230,0.00497
561.26793,0.00470
560.30355,0.00482
559.33917,0.00513
558.37479,0.00483
557.41041,0.00448
556.44604,0.00455
555.48166,0.00455
554.51728,0.00428
553.55290,0.00386
552.58853,0.00399
551.62415,0.00450
550.65977,0.00495
549.69539,0.00511
548.73101,0.00488
547.76664,0.00477
546.80226,0.00482
545.83788,0.00486
544.87350,0.00483
543.90912,0.00476
542.94475,0.00460
541.98037,0.00441
541.01599,0.00446
540.05161,0.00471
539.08724,0.00486
538.12286,0.00466
537.15848,0.00476
536.19410,0.00502
535.22972,0.00515
534.26535,0.00535
533.30097,0.00488
532.33659,0.00448
531.37221,0.00468
530.40783,0.00464
529.44346,0.00438
528.47908,0.00388
527.51470,0.00350
526.55032,0.00396
525.58594,0.00466
524.62157,0.00506
523.65719,0.00564
522.69281,0.00582
521.72843,0.00546
520.76406,0.00526
519.79968,0.00512
518.83530,0.00505
517.87092,0.00474
516.90654,0.00474
515.94217,0.00502
514.97779,0.00461
514.01341,0.00436
513.04903,0.00455
512.08465,0.00480
511.12028,0.00491
510.15590,0.00462
509.19152,0.00425
508.22714,0.00432
507.26276,0.00469
506.29839,0.00470
505.33401,0.00462
504.36963,0.00442
503.40525,0.00436
502.44088,0.00466
501.47650,0.00469
500.51212,0.00463
499.54774,0.00449
498.58336,0.00449
497.61899,0.00466
496.65461,0.00488
495.69023,0.00528
494.72585,0.00528
493.76147,0.00506
492.79710,0.00497
491.83272,0.00504
490.86834,0.00502
489.90396,0.00485
488.93959,0.00500
487.97521,0.00532
487.01083,0.00564
486.04645,0.00521
485.08207,0.00468
484.11770,0.00509
483.15332,0.00504
482.18894,0.00472
481.22456,0.00490
480.26018,0.00508
479.29581,0.00516
478.33143,0.00519
477.36705,0.00529
476.40267,0.00503
475.43829,0.00443
474.47392,0.00443
473.50954,0.00496
472.54516,0.00513
471.58078,0.00459
470.61641,0.00449
469.65203,0.00512
468.68765,0.00534
467.72327,0.00512
466.75889,0.00502
465.79452,0.00503
464.83014,0.00483
463.86576,0.00454
462.90138,0.00428
461.93700,0.00417
460.97263,0.00437
460.00825,0.00444
459.04387,0.00471
458.07949,0.00493
457.11512,0.00485
456.15074,0.00486
455.18636,0.00442
454.22198,0.00421
453.25760,0.00461
452.29323,0.00475
451.32885,0.00451
450.36447,0.00438
449.40009,0.00477
448.43571,0.00505
447.47134,0.00491
446.50696,0.00470
445.54258,0.00475
444.57820,0.00479
443.61382,0.00467
442.64945,0.00473
441.68507,0.00454
440.72069,0.00455
439.75631,0.00466
438.79194,0.00420
437.82756,0.00428
436.86318,0.00476
435.89880,0.00475
434.93442,0.00468
433.97005,0.00469
433.00567,0.00459
432.04129,0.00461
431.07691,0.00452
430.11253,0.00422
429.14816,0.00423
428.18378,0.00450
427.21940,0.00481
426.25502,0.00486
425.29065,0.00467
424.32627,0.00445
423.36189,0.00424
422.39751,0.00443
421.43313,0.00447
420.46876,0.00414
419.50438,0.00396
418.54000,0.00420
417.57562,0.00448
416.61124,0.00420
415.64687,0.00395
414.68249,0.00397
413.71811,0.00389
412.75373,0.00372
411.78935,0.00363
410.82498,0.00387
409.86060,0.00424
408.89622,0.00440
407.93184,0.00453
406.96747,0.00456
406.00309,0.00413
405.03871,0.00390
404.07433,0.00411
403.10995,0.00433
402.14558,0.00457
401.18120,0.00457
400.21682,0.00457
399.25244,0.00431
